e[MeV/fm^3], P[MeV/fm^3], rho[fm^-3], v2[1], mu_q[MeV], mu_e[MeV]
71.58195607221194 0.019376260638347076 0.07551183166112621 0.01806185032450322 316.57195128971085 89.92341642585284
74.10016491175249 0.06485977178396946 0.07815115873557246 0.01806185032450326 316.72146406873105 91.024765790619
76.70639143836377 0.11193304521937247 0.08088273688183939 0.018061850324503265 316.876202692721 92.16461006582368
79.40371208999426 0.16065164710631397 0.08370979050524349 0.018061850324503224 317.0363498180116 93.34429474471072
82.19531083378259 0.21107308578268988 0.08663565671212049 0.018061850324503186 317.2020944852288 94.56521234887349
85.08448292446792 0.26325687964638034 0.08966378924900394 0.018061850324503227 317.3736323424404 95.82880407201151
88.0746387941701 0.317264627411876 0.09279776257949199 0.018061850324503234 317.55116587610246 97.13656148114251
91.1693080781302 0.37316008082260077 0.09604127610361388 0.0180618503245032 317.7349046500787 98.49002827727713
94.37214378115249 0.4310092199045644 0.09939815852466523 0.018088487354544512 317.9250655530129 99.89080211763012
97.6869757993967 0.49106090179612444 0.10287237236868205 0.019255301458732603 318.1222990017657 101.33984570908403
101.11986451800226 0.5612123980307122 0.10646801866188291 0.021662464342603646 318.3451487000273 102.80997251328064
104.67528624500615 0.6427510757917515 0.11018934177159138 0.024237271178381786 318.59574432277356 104.30486344182296
108.35791622476958 0.736980624741799 0.11404073441636543 0.026920267095794273 318.8759904930379 105.82396075340817
112.1727714362078 0.844944139362974 0.11802674285124978 0.029903169158792375 319.1863342944128 107.33131489870814
116.12536221854529 0.9697012467608513 0.12215207223425231 0.033128604049492305 319.53184301002517 108.83594926945497
120.22058430169312 1.1120115025052542 0.12642159218040233 0.03642699727296762 319.9131521806471 110.36057643612367
124.4640269233187 1.2739597956119093 0.130840342509936 0.04005797794488111 320.3330553238233 111.91312631407268
128.8618971317408 1.458760515403257 0.13541353919739 0.044167339746025575 320.79588975142224 113.49907969978847
133.4208715816421 1.6702641954106736 0.1401465805286361 0.04845346643322773 321.30651694759945 115.12367962053304
138.14674713038173 1.9093441223752088 0.14504505347311691 0.052773525840877133 321.864973007233 116.79378000164584
143.046301157445 2.1790046101745664 0.1501147402788089 0.057528169039875315 322.47450701812625 118.51374226197309
148.1273960447996 2.4844335534151987 0.15536162529769304 0.06284216502195894 323.1410092423423 120.28727240461446
153.3980665613772 2.830586859448035 0.16079190204979565 0.06832610081857435 323.8695330774141 122.11815106148126
158.86527298295658 3.219172163942335 0.1664119805341341 0.07388078486914754 324.6608118435546 124.01003694966207
164.53733520637863 3.6547355939838426 0.17222849479519628 0.08003547718389081 325.5190968335605 125.96563778643767
170.4244790514288 4.145740845861174 0.17824831075389239 0.0868529844855449 326.4526563846883 127.98699818273994
176.53631225317216 4.698462512306701 0.18447853431221173 0.09401637114015071 327.46672096984696 130.0757416868159
179.88308167057113 5.01569042373223 0.18762070797226976 0.021541354847660496 328.5630444196908 125.58606439683628
244.3580843832537 6.404569335970001 0.4194829104688171 0.021541354847660565 329.74707517392477 116.65466291388724
289.81433086434606 7.383758471461933 0.5799535412610068 0.03175713370475222 331.0300349266862 106.9770184799039
323.4272838632534 8.705126204155434 0.7032355975641351 0.049589301351822324 332.4166501261103 98.39015808312318
350.6286318936171 10.28026981384558 0.8069150441204549 0.05904737866239884 333.9096258088783 90.22967048676952
379.0769639452421 11.99400364918909 0.9156805049554397 0.08658582326561398 335.51527196244086 81.58660455214591
399.1335396339081 14.10315188001459 0.9968824783042021 0.10515993674919222 337.2475539070624 74.02079620258152
420.6874247110079 16.36975707142177 1.0841465272007444 0.12803324721267662 339.10915812779723 65.8901678135078
438.602713538976 19.004114730689192 1.1592374187329193 0.15011718756657427 341.1031533419793 58.40128531251234
457.1596864951364 21.848883500033956 1.2374298176438965 0.17267877220938532 343.23564238728784 50.545868256653314
474.22355241487054 25.099534041958222 1.311922065713553 0.19412685074801905 345.52172126130665 43.09095482416773
492.13488535384425 28.64481025207108 1.392745597727318 0.20411943760145423 347.9601724040327 35.41259715696817
510.68322993037094 32.549682389906444 1.4810576565154978 0.21811045763556947 350.553435966267 27.718542184926136
529.9824539199217 36.911384353382196 1.5799689239016463 0.25446198040729406 353.30588629997703 19.913379859464236
547.0064016218125 41.670682744009014 1.652343793144935 0.3226973360622909 356.23075742095136 12.033770551018396
561.3792296954736 46.832149281263895 1.6925824670662466 0.358987518513892 359.3222217150829 4.8008456542075715
576.910008203001 52.40540243748531 1.7356485239957982 0.3586059151174059 362.5812187590644 0.0
593.7598747195458 58.44336294241726 1.7818777754892436 0.35811997883638336 366.0093102394057 0.0
611.9743905405973 64.96203696008017 1.8313837878054837 0.3576590421765651 369.6146067251103 0.0
631.5957170599253 71.97503825091312 1.8841936556406407 0.35718799723158723 373.38857293297076 0.0
652.7112344492745 79.51203735450183 1.9404487238368493 0.35670914764873185 377.3304189270836 0.0
675.4106650830362 87.60346818848929 2.000290846323805 0.35622645559805943 381.43924800134255 0.0
699.7925537596548 96.28283513863667 2.063879241303591 0.3557215164535765 385.715199445606 0.0
726.00058215951 105.59842599604539 2.131412758783397 0.3552059306928872 390.1519632333736 0.0
754.0915959198617 115.56923263257835 2.202956830164699 0.35471238702858576 394.74706680995223 0.0
784.133518317422 126.21795341414727 2.278590830017112 0.3542317960898316 399.4973996827608 0.0
816.1946265160906 137.56713968954125 2.3583773027275137 0.35374751555827455 404.39704715862416 0.0
850.4365375280765 149.67140578450199 2.4425485360493315 0.353240024243223 409.443966892103 0.0
887.0701496809992 162.6019602754655 2.5314024822927848 0.3527509751290254 414.635064288593 0.0
926.0165242158621 176.331276213779 2.6247555846442374 0.3522807929496068 419.965155467323 0.0
967.494584114499 190.93270130555038 2.7228756310848703 0.35179650102021354 425.42575827814784 0.0
1011.6591504146488 206.45877010926054 2.8259867980541125 0.351333922405626 431.0191767573046 0.0
1058.55942298005 222.92564748905386 2.9341139258781865 0.3508711054820428 436.7425864142945 0.0
1108.4738477422175 240.42680037274096 3.0475982891262277 0.3504148486264955 442.58863755631796 0.0
1161.3173281547893 258.93228721503857 3.1662198887467494 0.3499750255787246 448.5493841174104 0.0
1217.4693242577807 278.5709985306447 3.290541577930773 0.3495333433107959 454.6305491184618 0.0
1277.0346485818282 299.3778813949941 3.4206556743370555 0.3491156743486452 460.8299726039833 0.0
1340.0114752711563 321.3510062926435 3.556448305072837 0.3486933846160243 467.1378280933174 0.0
1406.8432907415397 344.63959006975455 3.6984629800027657 0.34827780502278216 473.54898535308183 0.0
1477.5171138431633 369.23968435490605 3.8466867757027936 0.34789385382243854 480.071280830431 0.0
1552.2584277946796 395.22707055943687 4.0013745696259395 0.3474993756365148 486.70328412661297 0.0
1631.4420075306014 422.72667402651206 4.162879810134824 0.34711092756835216 493.4322960810193 0.0
1715.0228954572988 451.7227843732412 4.331072559882971 0.3467485077042065 500.25755711425035 0.0
1803.3548289080404 482.3354857044339 4.506438669177678 0.3463935205744355 507.1877539542807 0.0
1896.7042362073369 514.6542604061339 4.689260281777486 0.3460428228459027 514.2221043128914 0.0
1995.2032811082615 548.7214650305656 4.879501639683925 0.34569640962360015 521.3446486630854 0.0
2099.2243356073573 584.6628368507406 5.077607748503197 0.34536213605960997 528.5600614898749 0.0
2209.0632353534734 622.5787054603479 5.283956326980876 0.3450410047627561 535.8768235754889 0.0
2325.0334275323344 662.5742883298569 5.498860750099206 0.34472765816703843 543.2946808831524 0.0
2447.140201316823 704.6485247898356 5.722058411133575 0.34442298114237424 550.7940656725807 0.0
2575.874108113542 748.9675923664472 5.954171548833314 0.3441265193892895 558.3858568647358 0.0
2711.706607338 795.690765568571 6.1957558296172 0.34383792053425255 566.0774961051789 0.0
2855.0075608254047 844.9421330784711 6.447161093532234 0.34355713641304986 573.8691457199808 0.0
3005.6993856887366 896.6920402151908 6.707950530268211 0.3432849110415286 581.7373188974098 0.0
3164.4820359810815 951.177881015572 6.9790306043786705 0.34302050922818994 589.6997099959373 0.0
3331.871873327425 1008.5736508989544 7.260954451917718 0.3427636496377997 597.7620710944946 0.0
3508.3028906375025 1069.0248845246203 7.554111854540082 0.3425141476041791 605.9248908074412 0.0
3693.5833431879287 1132.4627754712287 7.857852776602681 0.34227225879201884 614.160475058444 0.0
3888.7197869724523 1199.2286832039933 8.173475256509292 0.3420338901015967 622.493868083454 0.0
4094.507754844685 1269.5899735971323 8.50176240313283 0.34180212929234655 630.9286144231583 0.0
4311.23908095309 1343.644218216993 8.842913498043162 0.341571575372944 639.4654611461091 0.0
