e[MeV/fm^3], P[MeV/fm^3], rho[fm^-3], v2[1], mu_q[MeV], mu_e[MeV]
71.58195607221194 0.019376260638347076 0.07551183166112621 0.01806185032450322 316.57195128971085 89.92341642585284
74.10016491175249 0.06485977178396946 0.07815115873557246 0.01806185032450326 316.72146406873105 91.024765790619
76.70639143836377 0.11193304521937247 0.08088273688183939 0.018061850324503265 316.876202692721 92.16461006582368
79.40371208999426 0.16065164710631397 0.08370979050524349 0.018061850324503224 317.0363498180116 93.34429474471072
82.19531083378259 0.21107308578268988 0.08663565671212049 0.018061850324503186 317.2020944852288 94.56521234887349
85.08448292446792 0.26325687964638034 0.08966378924900394 0.018061850324503227 317.3736323424404 95.82880407201151
88.0746387941701 0.317264627411876 0.09279776257949199 0.018061850324503234 317.55116587610246 97.13656148114251
91.1693080781302 0.37316008082260077 0.09604127610361388 0.0180618503245032 317.7349046500787 98.49002827727713
94.37214378115249 0.4310092199045644 0.09939815852466523 0.018088487354544512 317.9250655530129 99.89080211763012
97.6869757993967 0.49106090179612444 0.10287237236868205 0.019255301458732603 318.1222990017657 101.33984570908403
101.11986451800226 0.5612123980307122 0.10646801866188291 0.021662464342603646 318.3451487000273 102.80997251328064
104.67528624500615 0.6427510757917515 0.11018934177159138 0.024237271178381786 318.59574432277356 104.30486344182296
108.35791622476958 0.736980624741799 0.11404073441636543 0.026920267095794273 318.8759904930379 105.82396075340817
112.1727714362078 0.844944139362974 0.11802674285124978 0.029903169158792375 319.1863342944128 107.33131489870814
116.12536221854529 0.9697012467608513 0.12215207223425231 0.033128604049492305 319.53184301002517 108.83594926945497
120.22058430169312 1.1120115025052542 0.12642159218040233 0.03642699727296762 319.9131521806471 110.36057643612367
124.4640269233187 1.2739597956119093 0.130840342509936 0.04005797794488111 320.3330553238233 111.91312631407268
128.8618971317408 1.458760515403257 0.13541353919739 0.044167339746025575 320.79588975142224 113.49907969978847
133.4208715816421 1.6702641954106736 0.1401465805286361 0.04845346643322773 321.30651694759945 115.12367962053304
138.14674713038173 1.9093441223752088 0.14504505347311691 0.052773525840877133 321.864973007233 116.79378000164584
143.046301157445 2.1790046101745664 0.1501147402788089 0.057528169039875315 322.47450701812625 118.51374226197309
148.1273960447996 2.4844335534151987 0.15536162529769304 0.06284216502195894 323.1410092423423 120.28727240461446
153.3980665613772 2.830586859448035 0.16079190204979565 0.06832610081857435 323.8695330774141 122.11815106148126
158.86527298295658 3.219172163942335 0.1664119805341341 0.07388078486914754 324.6608118435546 124.01003694966207
164.53733520637863 3.6547355939838426 0.17222849479519628 0.08003547718389081 325.5190968335605 125.96563778643767
170.4244790514288 4.145740845861174 0.17824831075389239 0.0868529844855449 326.4526563846883 127.98699818273994
176.53631225317216 4.698462512306701 0.18447853431221173 0.09382020158110449 327.46672096984696 130.0757416868159
182.8813754413206 5.316058719226849 0.19092651974116215 0.10090610940848843 328.5630444196908 132.23321948878043
189.47003531795517 6.005327445562022 0.19759987836188778 0.10878861147005087 329.74707517392477 134.4600859855788
196.31596471295904 6.779778757210621 0.2045064875302128 0.11746300959217892 331.0300349266862 136.75533593637135
207.200999907058 8.1264421417815 0.21514305318424035 0.008881499836271352 332.4166501261103 135.82961963655274
389.8146479122946 9.84140569610282 0.8616766349284927 0.00990092495020618 333.9096258088783 111.4625247914025
573.9089799915588 11.758705897284404 1.5028867645900361 0.024488787170581387 335.51527196244086 85.62820399071285
687.1572487670262 15.512503278245667 1.9503018393590945 0.03314662044330022 337.2475539070624 62.66197768964021
808.8599864754538 19.54653773197744 2.4311183682137143 0.21164878534063714 339.10915812779723 37.981224103786545
829.3075114089282 24.48746329795032 2.502387721134046 0.38896169607365016 341.1031533419793 18.912424575634066
840.667346080667 29.835766422308595 2.5361533572175587 0.47796509644928464 343.23564238728784 0.0
852.7412248643107 35.698502334127795 2.5711408248166956 0.4850807495247935 345.52172126130665 0.0
865.7619006482853 42.00768531288918 2.608709149083376 0.48377818604858214 347.9601724040327 0.0
879.8543136084398 48.813498285884776 2.6490919909285653 0.4818664784267612 350.553435966267 0.0
895.1854183453617 56.18311152901856 2.692602338435125 0.4799382131306902 353.30588629997703 0.0
911.7653135539442 64.12683474015338 2.7393353414993094 0.4782591473491302 356.23075742095136 0.0
929.6450628703947 72.66143193975999 2.789340028763722 0.4763964336302262 359.3222217150829 0.0
948.9163197312007 81.82273322879676 2.842774827006208 0.4742494642212296 362.5812187590644 0.0
969.7485482812748 91.67679388148305 2.8999300004986805 0.47202073524641674 366.0093102394057 0.0
992.1960246670212 102.2482981210784 2.960941109740946 0.46991194804809155 369.6146067251103 0.0
1016.2978698039968 113.54733562748707 3.0258103464733193 0.4677419132695291 373.38857293297076 0.0
1042.1478224571986 125.60900023126212 3.094678995457562 0.46552025271701414 377.3304189270836 0.0
1069.8418439722384 138.46900438225376 3.1676885400114267 0.46326458013825267 381.43924800134255 0.0
1099.4859996702492 152.16732275305716 3.245001182899195 0.4608865299728113 385.715199445606 0.0
1131.2300429541513 166.75675767158876 3.3268002506903356 0.4584407320953532 390.1519632333736 0.0
1165.1321857217151 182.25705253812293 3.41314488196481 0.45608127587231584 394.74706680995223 0.0
1201.262042077421 198.6918611025329 3.50410648983916 0.4537664414082432 399.4973996827608 0.0
1239.687270353616 216.08236572948383 3.599731058290996 0.45141605281935115 404.39704715862416 0.0
1280.5788519068135 234.49081468692688 3.7002485546778154 0.4489338799395437 409.443966892103 0.0
1324.1593813318368 253.99785315422284 3.805952543993029 0.446525227970318 414.635064288593 0.0
1370.3377866486019 274.5646444833786 3.91664109785673 0.4441902143078358 419.965155467323 0.0
1419.3401188840053 296.26929867259867 4.032561127533938 0.4417681326601679 425.42575827814784 0.0
1471.3319874993053 319.1734987709835 4.153947256451714 0.4394377425904903 431.0191767573046 0.0
1526.3613095938424 343.29159321768884 4.280816323738412 0.43708794211034396 436.7425864142945 0.0
1584.7170832613851 368.72460613404036 4.4134932677240295 0.434756131592005 442.58863755631796 0.0
1646.2987846105634 395.42804683832566 4.551730926930268 0.43249097845834017 448.5493841174104 0.0
1711.513515971868 423.55442729092874 4.696118212456935 0.4302010532897671 454.6305491184618 0.0
1780.4678861220052 453.13936713511225 4.846742498622785 0.4280207875838413 460.8299726039833 0.0
1853.1483416113529 484.1691923423076 5.003458877297865 0.4258003977541249 467.1378280933174 0.0
1930.0181368241595 516.8081435206708 5.166804359175542 0.4236021307586646 473.54898535308183 0.0
2011.0672594684033 551.0554108121214 5.336789074360663 0.42155720824256004 480.071280830431 0.0
2096.530423997248 586.9935997465076 5.513667741809205 0.4194424090593185 486.70328412661297 0.0
2186.7887196010456 624.7499091756696 5.697761759661131 0.41734777047925986 493.4322960810193 0.0
2281.789909634929 664.3018266930318 5.888936827036654 0.41538095869291247 500.25755711425035 0.0
2381.9127582676456 705.7907280636853 6.087712403793476 0.41344314053055964 507.1877539542807 0.0
2487.434029353107 749.3135900754286 6.294372834467304 0.41151754414463193 514.2221043128914 0.0
2598.4730472657184 794.8984613390018 6.508834357287932 0.4096045946204039 521.3446486630854 0.0
2715.42256185317 842.6875076157932 6.731563006688146 0.407748448282673 528.5600614898749 0.0
2838.5984084524107 892.7979385684991 6.962967756871573 0.40595542503520887 535.8768235754889 0.0
2968.3256640064114 945.3432607032942 7.203366252058891 0.4041966352684261 543.2946808831524 0.0
3104.58467019157 1000.2973345573482 7.452433511486972 0.4024776891024717 550.7940656725807 0.0
3247.89754294594 1057.8527165125881 7.710834084440382 0.40079667052732404 558.3858568647358 0.0
3398.762219330367 1118.1901631090286 7.979154664410997 0.3991521997165539 566.0774961051789 0.0
3557.5616778377553 1181.4429385172184 8.2577511813805 0.39754459846822776 573.8691457199808 0.0
3724.183401119975 1247.5471892932997 8.546110004958193 0.39597872981393856 581.7373188974098 0.0
3899.3748643372232 1316.7804386960422 8.845204726366 0.394450957116276 589.6997099959373 0.0
4083.6774390287565 1389.3362103949344 9.155614445864448 0.3929602071921323 597.7620710944946 0.0
4277.539872690814 1465.3701691563138 9.47773664451527 0.39150593363719555 605.9248908074412 0.0
4480.723855439193 1544.7688781777422 9.810828538484712 0.39009012837719714 614.160475058444 0.0
4694.304112613894 1627.9312341889768 10.15628342107167 0.3886891347707828 622.493868083454 0.0
4919.108524865372 1715.1484842111645 10.514907495516573 0.38732165163125787 630.9286144231583 0.0
5155.436199551156 1806.5223629699767 10.886905450978944 0.3859595891739147 639.4654611461091 0.0
