e[MeV/fm^3], P[MeV/fm^3], rho[fm^-3], v2[1], mu_q[MeV], mu_e[MeV]
71.58195607221194 0.019376260638347076 0.07551183166112621 0.01806185032450322 316.57195128971085 89.92341642585284
74.10016491175249 0.06485977178396946 0.07815115873557246 0.01806185032450326 316.72146406873105 91.024765790619
76.70639143836377 0.11193304521937247 0.08088273688183939 0.018061850324503265 316.876202692721 92.16461006582368
79.40371208999426 0.16065164710631397 0.08370979050524349 0.018061850324503224 317.0363498180116 93.34429474471072
82.19531083378259 0.21107308578268988 0.08663565671212049 0.018061850324503186 317.2020944852288 94.56521234887349
85.08448292446792 0.26325687964638034 0.08966378924900394 0.018061850324503227 317.3736323424404 95.82880407201151
88.0746387941701 0.317264627411876 0.09279776257949199 0.018061850324503234 317.55116587610246 97.13656148114251
91.1693080781302 0.37316008082260077 0.09604127610361388 0.0180618503245032 317.7349046500787 98.49002827727713
94.37214378115249 0.4310092199045644 0.09939815852466523 0.018088487354544512 317.9250655530129 99.89080211763012
97.6869757993967 0.49106090179612444 0.10287237236868205 0.019255301458732603 318.1222990017657 101.33984570908403
101.11986451800226 0.5612123980307122 0.10646801866188291 0.021662464342603646 318.3451487000273 102.80997251328064
104.67528624500615 0.6427510757917515 0.11018934177159138 0.024237271178381786 318.59574432277356 104.30486344182296
108.35791622476958 0.736980624741799 0.11404073441636543 0.026920267095794273 318.8759904930379 105.82396075340817
112.1727714362078 0.844944139362974 0.11802674285124978 0.029903169158792375 319.1863342944128 107.33131489870814
116.12536221854529 0.9697012467608513 0.12215207223425231 0.033128604049492305 319.53184301002517 108.83594926945497
120.22058430169312 1.1120115025052542 0.12642159218040233 0.03642699727296762 319.9131521806471 110.36057643612367
124.4640269233187 1.2739597956119093 0.130840342509936 0.04005797794488111 320.3330553238233 111.91312631407268
128.8618971317408 1.458760515403257 0.13541353919739 0.044167339746025575 320.79588975142224 113.49907969978847
133.4208715816421 1.6702641954106736 0.1401465805286361 0.04845346643322773 321.30651694759945 115.12367962053304
138.14674713038173 1.9093441223752088 0.14504505347311691 0.052773525840877133 321.864973007233 116.79378000164584
143.046301157445 2.1790046101745664 0.1501147402788089 0.057528169039875315 322.47450701812625 118.51374226197309
148.1273960447996 2.4844335534151987 0.15536162529769304 0.06284216502195894 323.1410092423423 120.28727240461446
153.3980665613772 2.830586859448035 0.16079190204979565 0.06832610081857435 323.8695330774141 122.11815106148126
158.86527298295658 3.219172163942335 0.1664119805341341 0.07388078486914754 324.6608118435546 124.01003694966207
164.53733520637863 3.6547355939838426 0.17222849479519628 0.08003547718389081 325.5190968335605 125.96563778643767
170.4244790514288 4.145740845861174 0.17824831075389239 0.0868529844855449 326.4526563846883 127.98699818273994
176.53631225317216 4.698462512306701 0.18447853431221173 0.09382020158110449 327.46672096984696 130.0757416868159
182.8813754413206 5.316058719226849 0.19092651974116215 0.10090610940848843 328.5630444196908 132.23321948878043
189.47003531795517 6.005327445562022 0.19759987836188778 0.10878861147005087 329.74707517392477 134.4600859855788
196.31596471295904 6.779778757210621 0.2045064875302128 0.11740966184855067 331.0300349266862 136.75533593637135
203.43050851080594 7.646768440999467 0.2116544999352168 0.12608946577877583 332.4166501261103 139.11816799894396
210.8244028704521 8.611548461528256 0.2190523532228215 0.1349022716417198 333.9096258088783 141.54800776113123
218.51074020607123 9.683761637930058 0.2267087799557421 0.144675685399567 335.51527196244086 144.04316211894482
226.5082297443755 10.883905458890382 0.2346328179215674 0.15515575564888284 337.2475539070624 146.5980221258686
234.82991040706085 12.219142432571214 0.24283382080112978 0.165468793415954 339.10915812779723 149.21047258606862
243.4895649756236 13.697245910404929 0.251321469209763 0.17584512352042914 341.1031533419793 151.87844925539375
252.5038440061727 15.330749682934059 0.2601057821244808 0.18722157626269964 343.23564238728784 154.59823272020708
261.8986645589929 17.148496170258692 0.2691971287105613 0.1990941783168373 345.52172126130665 157.35874279741
271.6882403462793 19.154773742642355 0.2786062405615009 0.21042316819891171 347.9601724040327 160.15923345514636
281.89049785111735 21.359861900727388 0.28834422436678714 0.22164620815909453 350.553435966267 162.99688619016126
292.5265475405733 23.778386588672046 0.29842257502243846 0.2337246132981532 353.30588629997703 165.86712739404365
303.63223194734013 26.447522162853414 0.3088531891997931 0.24592594617416275 356.23075742095136 168.75397623493998
315.221644345916 29.365222005850605 0.3196483793885593 0.2571506414649065 359.3222217150829 171.66146423910627
327.3182001354512 32.54397588998893 0.3308208884307057 0.2680601823279971 362.5812187590644 174.58688764206116
339.94834281111105 35.99922256647753 0.34238390456234696 0.27953912812815473 366.0093102394057 177.52639819239948
353.1609909336148 39.77515980981052 0.35435107698138235 0.2920249078355086 369.6146067251103 180.46095093582716
359.53316595683214 41.639479002421055 0.3600154940999014 0.06440654527218759 373.38857293297076 173.822995561886
447.22588293055173 48.85340897074993 0.6841529942695933 0.10012091418583768 377.3304189270836 159.9722794149755
498.27345677211196 54.49497834768296 0.8708422039343395 0.12254397404081496 381.43924800134255 146.43955456846254
546.0860412045179 60.89277020554412 1.044506434099615 0.14668619525397542 385.715199445606 133.18234891154785
591.3388634476479 68.08223231140009 1.2071803498262597 0.1705113752374009 390.1519632333736 120.23068680071701
635.1131339550424 76.03904925490195 1.362335240118626 0.1921019572915963 394.74706680995223 107.51049841445035
678.1845245354393 84.75104511925993 1.5125867088002725 0.21040873685762584 399.4973996827608 95.0158099843678
721.5465788302397 94.23014918407584 1.6628851378640106 0.2259356024223912 404.39704715862416 82.68726086605687
765.6913070752809 104.53352335734631 1.8152932272274525 0.24032137400167697 409.443966892103 70.48704323146676
810.9708870082303 115.73663346740224 1.9710526522693714 0.2527061556889225 414.635064288593 58.41659501582332
857.6852315026356 127.79636110264119 2.1314776619115783 0.2630340037003198 419.965155467323 46.39684527632912
906.1925202569196 140.80097765757887 2.298708935801899 0.2704288803503272 425.42575827814784 34.44933844905033
957.5328082220166 154.81163279130013 2.4818978882910008 0.26885208600761645 431.0191767573046 22.51282363726503
1014.5872849617207 169.8943264550509 2.7119889921440383 0.30764002929797574 436.7425864142945 10.407189259197445
1061.7153528587585 186.07779597024097 2.8191609056438303 0.3432821010314071 442.58863755631796 1.2261556081152802
1111.6188726132025 203.20289748076075 2.9311835029356716 0.3430344599961648 448.5493841174104 0.0
1164.6619708707372 221.39119319431836 3.0486223655847486 0.34277310871411104 454.6305491184618 0.0
1220.9447213236 240.67603422746862 3.1715663538715932 0.34252605471178565 460.8299726039833 0.0
1280.4661788211656 261.05637821731045 3.2999087625133994 0.3422764775828626 467.1378280933174 0.0
1343.6488072775403 282.6737992892507 3.434169431705525 0.34203104378178484 473.54898535308183 0.0
1410.479999674961 305.52430919450904 3.5743344418297722 0.3418044688734998 480.071280830431 0.0
1481.1746068404723 329.6798626130228 3.720647374258241 0.3415718582856151 486.70328412661297 0.0
1556.0903469219188 355.25968961669963 3.873448181443063 0.3413429621676616 493.4322960810193 0.0
1635.184753598813 382.2492402930903 4.032612989265383 0.3411295610357383 500.25755711425035 0.0
1718.7941653729695 410.76181940608535 4.198603804081613 0.3409206777094904 507.1877539542807 0.0
1807.1724866406087 440.88242902410417 4.371690103494795 0.3407144569482701 514.2221043128914 0.0
1900.4468935984737 472.65252370996205 4.551840988259823 0.34051089002583 521.3446486630854 0.0
1998.9718498179604 506.19114252816223 4.739480289703824 0.3403145825133227 528.5600614898749 0.0
2103.0287037675917 541.5930127388303 4.934966840475891 0.3401261118932224 535.8768235754889 0.0
2212.9162047537416 578.958119229295 5.138599823132832 0.3399423206223773 543.2946808831524 0.0
2328.6411086354997 618.2871598897482 5.350132533162525 0.3397637192479426 550.7940656725807 0.0
2450.6700530815096 659.7371411401427 5.57015672203424 0.3395900330168642 558.3858568647358 0.0
2579.4517775984073 703.4588067656284 5.79920129133002 0.33942104749354707 566.0774961051789 0.0
2715.3388422384824 749.5701152415029 6.0376001470545395 0.3392567268387978 573.8691457199808 0.0
2858.259488303591 798.0450609570368 6.284941094083351 0.3390974988264488 581.7373188974098 0.0
3008.8793787076306 849.1077696080218 6.542085809281984 0.33894292601510845 589.6997099959373 0.0
3167.6902634313537 902.923186214829 6.809561121342163 0.3387928370731097 597.7620710944946 0.0
3335.1058770843674 959.6296987595697 7.0877389963839255 0.3386471176312358 605.9248908074412 0.0
3510.946156772866 1019.1645981997748 7.376004558968791 0.338505910886727 614.160475058444 0.0
3696.168358112105 1081.8501762846515 7.6755917714266175 0.33836682363035875 622.493868083454 0.0
3891.5305176168285 1147.9403100270115 7.987247428991593 0.33823165147961687 630.9286144231583 0.0
4097.311027829062 1217.5279586984352 8.311161604990764 0.33809720590006265 639.4654611461091 0.0
