e[MeV/fm^3], P[MeV/fm^3], rho[fm^-3], v2[1], mu_q[MeV], mu_e[MeV]
71.58195607221194 0.019376260638347076 0.07551183166112621 0.01806185032450322 316.57195128971085 89.92341642585284
74.10016491175249 0.06485977178396946 0.07815115873557246 0.01806185032450326 316.72146406873105 91.024765790619
76.70639143836377 0.11193304521937247 0.08088273688183939 0.018061850324503265 316.876202692721 92.16461006582368
79.40371208999426 0.16065164710631397 0.08370979050524349 0.018061850324503224 317.0363498180116 93.34429474471072
82.19531083378259 0.21107308578268988 0.08663565671212049 0.018061850324503186 317.2020944852288 94.56521234887349
85.08448292446792 0.26325687964638034 0.08966378924900394 0.018061850324503227 317.3736323424404 95.82880407201151
88.0746387941701 0.317264627411876 0.09279776257949199 0.018061850324503234 317.55116587610246 97.13656148114251
91.1693080781302 0.37316008082260077 0.09604127610361388 0.0180618503245032 317.7349046500787 98.49002827727713
94.37214378115249 0.4310092199045644 0.09939815852466523 0.018088487354544512 317.9250655530129 99.89080211763012
97.6869757993967 0.49106090179612444 0.10287237236868205 0.019255301458732603 318.1222990017657 101.33984570908403
101.11986451800226 0.5612123980307122 0.10646801866188291 0.021662464342603646 318.3451487000273 102.80997251328064
104.67528624500615 0.6427510757917515 0.11018934177159138 0.024237271178381786 318.59574432277356 104.30486344182296
108.35791622476958 0.736980624741799 0.11404073441636543 0.026920267095794273 318.8759904930379 105.82396075340817
112.1727714362078 0.844944139362974 0.11802674285124978 0.029903169158792375 319.1863342944128 107.33131489870814
116.12536221854529 0.9697012467608513 0.12215207223425231 0.033128604049492305 319.53184301002517 108.83594926945497
120.22058430169312 1.1120115025052542 0.12642159218040233 0.03642699727296762 319.9131521806471 110.36057643612367
124.4640269233187 1.2739597956119093 0.130840342509936 0.04005797794488111 320.3330553238233 111.91312631407268
128.8618971317408 1.458760515403257 0.13541353919739 0.044167339746025575 320.79588975142224 113.49907969978847
133.4208715816421 1.6702641954106736 0.1401465805286361 0.04845346643322773 321.30651694759945 115.12367962053304
138.14674713038173 1.9093441223752088 0.14504505347311691 0.052773525840877133 321.864973007233 116.79378000164584
143.046301157445 2.1790046101745664 0.1501147402788089 0.057528169039875315 322.47450701812625 118.51374226197309
148.1273960447996 2.4844335534151987 0.15536162529769304 0.06284216502195894 323.1410092423423 120.28727240461446
153.3980665613772 2.830586859448035 0.16079190204979565 0.06832610081857435 323.8695330774141 122.11815106148126
158.86527298295658 3.219172163942335 0.1664119805341341 0.07388078486914754 324.6608118435546 124.01003694966207
164.53733520637863 3.6547355939838426 0.17222849479519628 0.08003547718389081 325.5190968335605 125.96563778643767
170.4244790514288 4.145740845861174 0.17824831075389239 0.0868529844855449 326.4526563846883 127.98699818273994
176.53631225317216 4.698462512306701 0.18447853431221173 0.09382020158110449 327.46672096984696 130.0757416868159
182.8813754413206 5.316058719226849 0.19092651974116215 0.10090610940848843 328.5630444196908 132.23321948878043
189.47003531795517 6.005327445562022 0.19759987836188778 0.10878861147005087 329.74707517392477 134.4600859855788
196.31596471295904 6.779778757210621 0.2045064875302128 0.11740966184855067 331.0300349266862 136.75533593637135
203.43050851080594 7.646768440999467 0.2116544999352168 0.12608946577877583 332.4166501261103 139.11816799894396
210.8244028704521 8.611548461528256 0.2190523532228215 0.13487721121198315 333.9096258088783 141.54800776113123
218.99650740198945 9.752499027032613 0.22710594765308778 0.029919100646449315 335.51527196244086 144.2529973771034
265.929567075337 11.156693963045312 0.39975347822163354 0.029919100646449398 337.2475539070624 133.3250155267474
318.1364881011275 12.718678087657173 0.5901379315060834 0.04602796650725169 339.10915812779723 121.58121296625792
355.267581140234 14.853161356676898 0.7302432612657436 0.05995264526241789 341.1031533419793 111.1703653259602
392.7460753461152 17.193442706380853 0.8724348173305744 0.0832901877438203 343.23564238728784 100.31207443347544
421.5442458265978 20.053353215891633 0.984517893065794 0.10528673974870789 345.52172126130665 90.45822703103657
450.0060432842159 23.21815987157722 1.0960518584210073 0.12359044093484906 347.9601724040327 80.42401164887876
476.38269735135816 26.78106219244174 1.2008300343991547 0.14919339733692444 350.553435966267 70.57472736133997
501.1817796335697 30.810037182840865 1.3001906760685427 0.17122679051001677 353.30588629997703 60.995473396448176
525.9286631007802 35.26374510966831 1.3996592222822941 0.18948163539992324 356.23075742095136 51.34534862830863
550.6002336317962 40.172496215798525 1.4990258685553703 0.20800753206349187 359.3222217150829 41.70678899556869
575.4686073198924 45.57200048596479 1.599216026722075 0.22604084110012646 362.5812187590644 32.08615107532917
600.8218770413752 51.533371171424214 1.7014052172048484 0.23992125892155802 366.0093102394057 22.520225572274512
627.4849083096913 58.064685932401815 1.8110060936121606 0.253365428805322 369.6146067251103 12.86810068329405
654.738045359662 65.20389698479838 1.9205461394821521 0.2889355807981375 373.38857293297076 3.074644230065565
679.4046952269623 72.93323376766911 1.993746236585341 0.32046713373812485 377.3304189270836 0.19354344181086003
704.7991752056536 81.2573542351043 2.0606922344974277 0.3278466280543262 381.43924800134255 0.0
732.1009142048587 90.20972563617843 2.1318945965946052 0.3279639445631579 385.715199445606 0.0
761.4768928826072 99.84585675256801 2.2075902665046567 0.32808391903608447 390.1519632333736 0.0
792.9934270069878 110.1878298695055 2.287857496852049 0.3281989334199109 394.74706680995223 0.0
826.7297413257456 121.26202279967497 2.3727912961070574 0.32831108003117193 399.4973996827608 0.0
862.7660396405814 133.09520729041367 2.4624690408280334 0.3284242384998868 404.39704715862416 0.0
901.2895257245552 145.7495501506402 2.5571636479225646 0.3285429884738009 409.443966892103 0.0
942.5446145167725 159.30623326073095 2.6572255287277518 0.3286575898559143 414.635064288593 0.0
986.4417147697962 173.7357429324449 2.7624439532057914 0.3287679193316537 419.965155467323 0.0
1033.235765483975 189.1229081224972 2.8731379938699044 0.3288817114038731 425.42575827814784 0.0
1083.1056534818858 205.52708972812087 2.9895679357126728 0.3289905468171086 431.0191767573046 0.0
1136.1093760127694 222.96768277700428 3.1117648548229364 0.3290995781313679 436.7425864142945 0.0
1192.5708236252901 241.55242305336202 3.240132873236548 0.3292072053745754 442.58863755631796 0.0
1252.3939895184358 261.24975571475824 3.3744206811909483 0.32931108372495377 448.5493841174104 0.0
1316.0170255478856 282.20503177119014 3.5152818365068823 0.3294155306028599 454.6305491184618 0.0
1383.5623803295668 304.45905987877336 3.6628257822649286 0.3295144165329127 460.8299726039833 0.0
1455.0307755076842 328.0124418218817 3.816926584532611 0.3296145081890798 467.1378280933174 0.0
1530.9373532981722 353.0364549799341 3.978223072701491 0.3297131322907463 473.54898535308183 0.0
1611.2661669992406 379.5257077114579 4.146694459397598 0.3298043461791358 480.071280830431 0.0
1696.2793311250614 407.5673826773232 4.32263961412674 0.3298981572390094 486.70328412661297 0.0
1786.4147104198953 437.3073873592673 4.506480765659842 0.32999064121412713 493.4322960810193 0.0
1881.621369314526 468.728963445843 4.698066629485599 0.3300770166385405 500.25755711425035 0.0
1982.3079375239988 501.96770759154026 4.8979586327929985 0.33016169911142557 507.1877539542807 0.0
2088.784265471808 537.1267028216934 5.106487036225812 0.3302454372802299 514.2221043128914 0.0
2201.2084421338404 574.259097292593 5.323621635207625 0.3303282329862198 521.3446486630854 0.0
2320.012079854519 613.508301621809 5.549879039821648 0.33040820356808664 528.5600614898749 0.0
2445.537147827902 654.9878286995174 5.785694471759201 0.3304850977990337 535.8768235754889 0.0
2578.14830725117 698.8190163211572 6.031434302890923 0.33056019130916026 543.2946808831524 0.0
2717.8578477736955 745.0067370789658 6.286805867305407 0.33063326750981004 550.7940656725807 0.0
2865.2332100516082 793.7393883894208 6.552528375303018 0.33070443061030597 558.3858568647358 0.0
3020.8206919248273 845.1984685895876 6.829245739465426 0.3307737606663075 566.0774961051789 0.0
3185.0507344057087 899.527224683273 7.117366639971501 0.3308412648668617 573.8691457199808 0.0
3357.8409009942184 956.6992297645694 7.41639769250576 0.3309067598451052 581.7373188974098 0.0
3540.000250962562 1016.9830238384709 7.727385288260753 0.33097041808939887 589.6997099959373 0.0
3732.128085431528 1080.5778411056276 8.050971608848188 0.33103230330619704 597.7620710944946 0.0
3934.729635471226 1147.651839835726 8.387611770558744 0.3310924561890052 605.9248908074412 0.0
4147.591454051043 1218.1352353951452 8.736566281763949 0.3311508114925532 614.160475058444 0.0
4371.877034988043 1292.4142137359215 9.099333766042015 0.3312083544947453 622.493868083454 0.0
4608.511201377361 1370.7964170030755 9.476826736448817 0.3312643381060911 630.9286144231583 0.0
4857.834336105438 1453.395226490396 9.86927751691683 0.3313200592656713 639.4654611461091 0.0
