M[M_sun], R[km], Lambda[1], P_c[MeV/fm^3], rho_c[fm^-3]
0.23848912294887037 16.21570186450063 2784644.0411725277 3.4469561053153734 0.1694538074003404
0.2485036504558377 15.871975598087388 2284104.9066475714 3.633139098131947 0.17194009517886588
0.25880964725609595 15.567827948483966 1882492.9856818456 3.818143570720287 0.17423190706497388
0.26940419356376843 15.297638500618463 1558077.909173746 4.01485142739468 0.1766435820730963
0.28028646664405227 15.057309900472822 1294686.880225471 4.219467185289188 0.17907934670681053
0.2914550722305701 14.842890309745668 1080113.2665212424 4.427059068192143 0.18141930172919127
0.302908954393652 14.651167485234202 904300.0456861616 4.649746618530876 0.18392941361097603
0.31464045692283166 14.479426404647198 759642.3850262705 4.872772953798426 0.18629841463896685
0.32667154760136935 14.325383630760216 640134.7719861245 5.10721218480152 0.18874606688900364
0.33897577177862764 14.186984513158194 541089.9872202463 5.354975226431551 0.19130330139238239
0.35157182941615706 14.062644704639505 458634.49284892407 5.601879875715676 0.19369378163157464
0.3644490335241004 13.950634557418946 389793.49191846984 5.865949973045066 0.19625045422262444
0.37760921432115563 13.85006316182377 332164.6267355432 6.137052078275862 0.19877460754409937
0.39105622805317775 13.759416540118746 283747.5291362012 6.414688087857819 0.20125058425224648
0.40479339956216337 13.677766477860702 242921.2865665723 6.711376891509181 0.20389647506631958
0.41880732053402453 13.604377449762342 205873.22233225958 7.008712302469838 0.206393960763208
0.43312030699161236 13.538371178234181 179232.96621376183 7.320161369802872 0.20896174425411934
0.4477159520787557 13.479031536507076 154423.34937995594 7.652262503935195 0.21169662795475133
0.46259108439432467 13.42589271944286 133308.64409037877 7.97949735590635 0.21420583769579346
0.4777567078812662 13.378281176229201 115293.81425011222 8.328351130055085 0.21688081954146332
0.4931952386966369 13.335672108606218 99896.84839780822 8.693793356375553 0.21963964502767347
0.5089281262740717 13.297717795276968 86704.81005697306 9.060228962016575 0.22225627708244736
0.5249326256956512 13.263809096794906 75370.43686039923 9.450640718838264 0.2250441172970279
0.5412188656981547 13.233951809218189 65636.20762932047 9.853150752204716 0.2278271840578737
0.5577881798798515 13.207503107381616 57241.62499284195 10.263043298772196 0.23053352978426384
0.5746390820268991 13.184227249402108 49988.44371884279 10.699522826642387 0.23341541801277746
0.591756234479466 13.163915303838815 43720.97165765707 11.143786234797727 0.23622900124600288
0.6091631387036996 13.146427511303127 38294.64239220764 11.601887937201257 0.2390426541440253
0.6268302294556495 13.13122587729127 33582.20486065326 12.089470705688349 0.24203737925065905
0.6447661684053233 13.118292621477995 29490.72227720327 12.58035731089079 0.24490800906542984
0.6629755000841321 13.107341051265385 25930.834898765588 13.092274977665134 0.24784757130508875
0.6814479932988704 13.098250881973538 22826.56780407173 13.636916669630113 0.2509750432712983
0.7001680038214184 13.09090235874026 20118.914808036716 14.179654094941379 0.25391566245060754
0.7191585420180256 13.085175768127634 17754.17315564298 14.751897983385195 0.25699295523937316
0.7383862844855594 13.080718097353364 15684.969627841081 15.358465713701614 0.2602444021374779
0.7578630785741881 13.077552312878577 13871.915381789964 15.960659886362167 0.2632562390321996
0.777588811625891 13.07541765372425 12280.692553822073 16.600426130039875 0.26645599031539935
0.7975542792380987 13.074489230427044 10884.592558463097 17.27170207659887 0.2697749441481699
0.8177461851922954 13.074250814417718 9656.449600251404 17.94532509249232 0.2729341253049319
0.8381684726114045 13.07488721892073 8575.314825728803 18.660832130479164 0.2762897356368333
0.8588074670459589 13.076280544222593 7623.505976877339 19.40377441679318 0.27970586305210093
0.8796687811814639 13.078135488440902 6783.125075602988 20.158023702545467 0.28303673547226893
0.9007281248730973 13.080585913176765 6041.400514671983 20.959068564718077 0.286574263832096
0.9219830890726571 13.083476761645432 5386.326743455968 21.781404803215956 0.2901008560889513
0.9434369937118162 13.086569296909516 4805.791716019055 22.627022371556098 0.29362466976626955
0.9650755254885619 13.0901551031876 4292.206956257616 23.52506197667135 0.29736693383664614
0.9868635390035828 13.093798551455938 3837.2671045456113 24.435222836558335 0.3009894006065995
1.0088416322024731 13.097567132221009 3432.850849857899 25.384337760111837 0.3046984109968238
1.030974575045151 13.101475560755867 3073.936661808661 26.392309597093515 0.30863742609777833
1.0532384547909033 13.10530935430467 2754.939004389131 27.40084737740742 0.31238039472354057
1.0756472007582378 13.109064330759153 2470.9740264468305 28.467577432803953 0.31632718652795366
1.0981819305522023 13.112759204674525 2218.3378151783454 29.586685975304064 0.3204267687484827
1.120824490364246 13.116284813663727 1993.1191369795622 30.71846390673038 0.3244046794749653
1.1435777321916023 13.119507127670188 1792.0843410840337 31.919736937046387 0.3286268477467094
1.166410689384733 13.122485914481318 1612.7671418652058 33.158581254331985 0.3328776711752923
1.1893226940245805 13.125161593697179 1452.5312534585328 34.4356043235144 0.33715124112035927
1.2122939856432586 13.127423096475525 1309.2226380949053 35.79138377508258 0.34168837005419345
1.235316616299227 13.12928916261467 1181.064897479711 37.16334608667472 0.3460733903735458
1.258378088720824 13.130565135731361 1066.1876872397813 38.607144208607515 0.35064925590043095
1.2814693929250063 13.13148919646576 963.3163811690977 40.12106536080773 0.355399650133999
1.3045540459552405 13.131739296549197 871.0057378295761 41.66222597759628 0.36007150244158914
1.3276440426245109 13.131441549195877 788.1465025288983 43.29827378206303 0.36503099441624975
1.3506802107467144 13.130401886094793 713.7508036840278 44.976069486183555 0.3699777465638879
1.3737191081512805 13.128738630529952 646.7927281057301 46.726445000463585 0.375065173641058
1.396687270736456 13.126397110623198 586.613585002091 48.57017037731275 0.3803895411326378
1.4195786866487012 13.12329621097872 532.4949678541642 50.44780464548785 0.38563095195431196
1.442382894720092 13.119305363999041 483.6936736028545 52.44151864202782 0.3911963990138952
1.46506943146538 13.114532084128234 439.6977898578308 54.48750164022896 0.39673334212682715
1.4876302005281279 13.108832226345006 400.0271232462688 56.630877936550284 0.4024612039366185
1.5100583383786153 13.102293506852853 364.22205710389585 58.874622472173776 0.408390728449256
1.532334079642834 13.094838110704906 331.85473419712486 61.18461038333005 0.4143482638533225
1.5544257500879388 13.08635617654396 302.6030617908097 63.63878610476027 0.4206776644002295
1.5763024605649696 13.076900187001048 276.1396920798682 66.13629962122123 0.4269086627309311
1.5979944756902014 13.066390109564642 252.19817058526735 68.78820148276293 0.433521903962736
1.6194250515313577 13.054844641219741 230.51231469877314 71.52393998687825 0.44018761611847484
1.64060540877537 13.042178364830184 210.85170086571665 74.39708304039847 0.44712248073544364
1.6615063561973018 13.0284933330505 193.0414998620541 77.39051805656354 0.45422473045193673
1.6821133423749652 13.01352281528095 176.84169145063083 80.51109849343725 0.46150371156379516
1.7024032381836627 12.997464595947962 162.15664407224125 83.78523544647842 0.46906574347651914
1.7223588692244194 12.980195135535322 148.80379758936297 87.1830925095412 0.4767709054122133
1.7419472373407676 12.961676949214203 136.6594492222306 90.7631287716992 0.48483264889994826
1.7611688386644007 12.941911610524802 125.61542745137069 94.47259038880976 0.4930226529010318
1.7799957737497571 12.920890035485593 115.55645615764676 98.38777646611203 0.5016135265896691
1.7984046464750747 12.898586295759717 106.39166495756358 102.4478399394212 0.5103442508555136
1.8163716262020597 12.874941534594502 98.03463294523618 106.73207287464487 0.519491272870091
1.8338702627932943 12.849961816499034 90.41732242908799 111.18699820025493 0.5288167283535318
1.8509014469943101 12.823666581532867 83.45906236461528 115.87971522845505 0.538561941076268
1.8674403375456197 12.795955702546259 77.10702101383842 120.78039226762337 0.5485909163268914
1.8834570826045496 12.766888600385679 71.29641768538836 125.9266734989702 0.5590104185394184
1.8989230178055592 12.736349144405601 65.98675253705642 131.3319377286072 0.5698364452238914
1.9138516009574364 12.704435658631388 61.12957581251519 136.9844216642703 0.5809872804771723
1.9281837720635455 12.671042828776377 56.68064659940662 142.96195881719024 0.5927026471120329
1.9419181800975365 12.636224996715857 52.606480288027456 149.1820049883716 0.6046441461194106
1.9550641285814265 12.59998802191361 48.871128006918454 155.76752511024367 0.6172142848254094
1.9675510242204357 12.562187105879207 45.44305814722443 162.6694007553043 0.6302078468775663
1.979392208623255 12.522957980160799 42.29985680660988 169.9331946720931 0.6437338754124242
1.9905624898454228 12.482128766100582 39.411555654530645 177.61801351306582 0.6579408017454036
2.001054468290712 12.439861119071775 36.75623018715137 185.65438124688197 0.6725328194529212
2.010837673589998 12.396099225291001 34.32182957032678 194.170243006968 0.6878851111651816
2.019237791176565 12.352432145223995 32.19281577621786 204.3228183668083 1.2455384310247686
