M[M_sun], R[km], Lambda[1], P_c[MeV/fm^3], rho_c[fm^-3]
0.23848912294887037 16.21570186450063 2784644.0411725277 3.4469561053153734 0.1694538074003404
0.24848707432425673 15.872467166912157 2284918.5701296367 3.6328205813029086 0.17193584170497275
0.25877596263654423 15.5686221994961 1883508.3970956309 3.8175179738584926 0.17422423713077675
0.2693517361584215 15.29893557699114 1559514.762082712 4.013843163473565 0.1766312205693859
0.2802097233943777 15.059062354344398 1296536.6251772696 4.2181454363682525 0.17906444808465527
0.29136239384648555 14.844557762137496 1081640.9286635325 4.425287785191452 0.1813993360036746
0.30279204212263083 14.652982352390591 905906.7157888339 4.647465469529252 0.18390370072669315
0.31450601377787124 14.481282371604594 761124.9940297947 4.870159817780424 0.1862711323098671
0.3265129174391782 14.327255967803097 641542.3100653188 5.104013788455616 0.1887126741757659
0.33878910528762574 14.188976476640043 542412.5294426101 5.351433771748162 0.19126901375355831
0.3513632827963262 14.064561575868828 459881.9297767419 5.597673711762647 0.1936530584137589
0.36421329945331343 13.952671648760898 390948.60058087745 5.860999424129048 0.19620252402207453
0.37734692458087776 13.851955192224418 333234.25620269484 6.1317410207358565 0.19872724317380575
0.39076692392429185 13.761237108149865 284699.9140119323 6.408542989015528 0.20119578184521836
0.4044739307767957 13.679559752724003 243797.0050971007 6.7043020147958465 0.20383338083736274
0.4184598824447024 13.606077308694397 209230.14642637438 7.001263199285549 0.20633254563571218
0.4327392706715986 13.540042154676152 179945.919444923 7.311681591426404 0.20889183158715222
0.44730156830056045 13.480600651846915 155063.25645632803 7.643101000151827 0.2116242632286403
0.4621430624131851 13.427337797219147 133891.0544843904 7.969482904733942 0.2141290477136701
0.4772722150216109 13.379615121556608 115822.10842733794 8.3170775865499 0.21679437494361908
0.49268648931880143 13.336980996348546 100369.20370441236 8.682097477297066 0.21955612745559694
0.5083801474596411 13.298930260506209 87126.24599332597 9.047151578853025 0.22216289450867033
0.5243468480794323 13.264953186906116 75754.05663535271 9.4360386516239 0.22493984730647326
0.5405961864636156 13.235022170493918 65979.00879025117 9.838103559279672 0.22772783385839365
0.5571218109109396 13.208518932195323 57551.813040004716 10.24633208183744 0.230423192743708
0.5739350508269632 13.185138765675434 50268.85342829511 10.680979295483285 0.23329298298260948
0.5910117435042505 13.164765718033124 43973.98472547299 11.129460758297586 0.23627489007476452
0.6083411219425953 13.147074075551215 38528.34177892619 11.5992295838579 0.24877042139335057
0.6235684071512108 13.13134759024759 34345.66281714961 12.143112753994355 0.3505686265515189
0.6353415431078921 13.113543334987087 31347.04610965665 12.725226532555515 0.45952242602374416
0.6440083907620253 13.091370600504968 29159.7736511391 13.348888943502915 0.5762528518670973
0.6498495481120429 13.06393910984679 27565.693155792662 14.017756743520726 0.7014443364883676
0.6531381171461321 13.030873938862163 26421.860597243693 14.742261260899879 0.8365044388327757
0.6542285421692333 12.992146593589611 25615.038417979787 15.720083013229345 1.0024264322463565
0.6534607047154511 12.94812548693867 25062.88217047103 16.78628788692096 1.1833457435714956
0.651035802351224 12.898783723057797 24715.187854006643 17.966582315291717 1.341479432547652
0.6475550904550738 12.841077916308864 24423.472523689732 19.284464491826487 1.452970619171139
0.6435904313991807 12.775948040809261 24109.686847619316 20.7310388997211 1.5753490078821903
0.6393147864705477 12.704408969343971 23762.21562796597 22.27634856360422 1.696220901113574
0.6349296117486294 12.626344656448536 23351.776220159576 23.914684596446268 1.8113795874633236
0.6304880691344712 12.542438784800172 22873.266646882184 25.713334318154384 1.9378067275634758
0.6261003568257049 12.452914835136221 22327.974405451943 27.581219547688736 2.0465571020357856
0.6218663233698185 12.356650928921209 21685.9170996291 29.566981891761447 2.1489333317966537
0.617922496275225 12.25464108253572 20948.269015835383 31.743873224376017 2.2611632408275155
0.6143403307337688 12.14584119134697 20102.944205217853 33.89948587829987 2.3031079350814276
0.6113612723069787 12.028398495489968 19109.298802711168 36.19713653313937 2.3300001004323443
0.6091772401265907 11.903817318626412 17981.85167631882 38.69092554890133 2.358637917700683
0.6079911888895269 11.773448792297446 16739.27044525185 41.054921881295286 2.372873031503093
0.6078560916913676 11.638202684418525 15415.041172829639 43.619815478067906 2.388317874517784
0.6088570405004388 11.500029243838034 14049.630327125034 46.29969209898322 2.404394338236367
0.6111245619723118 11.360496729872994 12673.558016465013 48.938692921412944 2.4200706613650382
0.6145400883884246 11.220766228330529 11331.741691547926 51.790771668619165 2.437012720514704
0.619135782978326 11.082290928386493 10051.575621887458 54.66705523582097 2.454054021518287
0.6248244956095255 10.94582994912929 8854.129674129981 57.61496019201048 2.471485045339921
0.6316854675078949 10.813177232585392 7751.231579300001 60.79151773103856 2.490268096678578
0.6395823272643947 10.684451951133942 6752.441643960374 63.888812405443936 2.5084876181931337
0.6484553794512161 10.560106035853435 5858.819713428071 67.18587118690131 2.5278726265745415
0.6582867286776781 10.441068928440382 5067.670599545014 70.63361919631768 2.5481157715783125
0.6689877628887836 10.327390278268695 4373.609299121061 74.07878430530559 2.56826887075022
0.6804833513790506 10.219005107193023 3768.6780532539747 77.77283176523693 2.589877851002433
0.6927604951428838 10.116706955131676 3245.3776574628837 81.49600683234642 2.6115786284732145
0.7057183510985271 10.019759706083786 2794.0181582108444 85.36989490117318 2.6341190735982103
0.7192955864899249 9.928292061137256 2406.1476326249476 89.46801281996613 2.6579452074032903
0.7334566360173431 9.842290871432017 2073.9371269399444 93.55285331322769 2.6815806411215792
0.7481324469221103 9.761236374540397 1789.0731364088704 97.91962064810431 2.7068473412722764
0.7632714568705996 9.68522902049527 1545.9323015790499 102.35999178512516 2.732442952685318
0.7788358570947642 9.613833865653595 1337.773497928612 106.97989361774476 2.759019553895116
0.7947613697893766 9.546629431869752 1159.7000095062772 111.836841132432 2.7869225274788
0.8109845168916924 9.483600461373001 1007.2872772876589 116.74684243523379 2.8149991727229393
0.8274973248831953 9.42425954594994 876.7115674051605 121.9868206938525 2.8449627107306155
0.8442382037749889 9.36832089533404 764.5421641927664 127.27624722991436 2.8750362657275463
0.8611644055441712 9.315809276869173 668.2586595607025 132.86277686401678 2.9067668542387097
0.8782307930221044 9.26619449610664 585.4161378218361 138.63354610914652 2.9394302440910445
0.8954058723567847 9.21926474810541 513.9254870214189 144.61334388249 2.973170979378719
0.91266134737606 9.174758727455634 452.18811727558017 150.89304699107694 3.008541749333086
0.9299405447047662 9.132486463526604 398.7316375885253 157.3179139266281 3.0445561991737145
0.9472265629175921 9.092346838945279 352.38117210838175 164.13997681061016 3.0827791166087724
0.9644765078046836 9.053894763342242 312.0767323310928 171.06771953471323 3.1213548224559746
0.9816698316902034 9.017012679448262 276.9665887574449 178.44889025804315 3.1624553485538196
0.9987594204504873 8.981620335191787 246.35443563071382 185.96730095947927 3.204042725495491
1.0157375041247212 8.947429765433938 219.56164876911248 193.95140232265314 3.2481852350834757
1.0325395320783424 8.914377301746423 196.10876639263668 202.13769338404052 3.293144664329832
1.04916552716542 8.882309876471767 175.50520499744763 210.8025034993388 3.3406783512804905
1.0655944521705143 8.850952301401918 157.37550843107175 219.7194388332798 3.3893128447998233
1.0817741665448748 8.820252458966573 141.38675423219314 229.15351682576141 3.440707835264359
1.097694219147171 8.790109901555018 127.28384975517946 238.87202135507442 3.4932927730813854
1.1133085015341835 8.76036690785127 114.80213808009702 249.17647655962566 3.548992287188813
1.1286427793513427 8.730921243150949 103.74081116881096 259.7812752641476 3.6058799988515604
1.1436101779034191 8.701688112563538 93.91133330357755 271.02518484348315 3.666126560363991
1.158236689361221 8.672546117448283 85.17018901020451 282.6622150005185 3.7280632977076893
1.1724634524187052 8.643445543669694 77.38515690174246 294.94177984007274 3.793239202098324
1.186315310217447 8.614228271101974 70.43423697856991 307.76295255314994 3.8609018790993814
1.1997106553327033 8.584872549568344 64.22294036183527 321.2059947241284 3.93152241404404
1.2126759007297598 8.555331419964919 58.66032088256131 335.3737285760253 4.0057079330693695
1.2251423825678143 8.525491094885856 53.68719032617549 350.1277263286622 4.0823726861467
1.2371690773375505 8.495280394491969 49.206071606246475 365.7268177495379 4.163181691247078
1.248680783437106 8.464636744856572 45.18292369716576 382.0702650434488 4.247319149573908
1.259651074876742 8.433528098489724 41.557478102847924 399.2505054570427 4.335283436619532
1.2700979936931294 8.401907252917676 38.28336545827799 417.40870743897545 4.427895680545334
1.2800059704084021 8.369729598805794 35.28516509734472 436.4416891229177 4.52418062299628
1.2893236724930974 8.336879576376909 32.658794022392776 456.5271963620577 4.625258793542591
1.2980647888151908 8.303433700276965 30.238125025691883 477.7712822177437 4.731677236004334
1.3062139681868796 8.269290842538727 28.051401014703185 500.13773059578506 4.842917430326219
1.3137512148095676 8.234425695151426 26.061699980575064 523.7546369836715 4.95953769433078
1.3206456645151456 8.198737313092014 24.25249990846662 548.7699719543708 5.082360858566765
1.326965694910047 8.162423024580182 22.609746134541947 575.2722505620852 5.211723673786652
1.332620416031763 8.1252546000842 21.112973048379757 603.2528305966168 5.347124045865797
1.337574765049846 8.087281633739654 19.7552834473609 632.9330798285362 5.489786445065583
1.3418909860313086 8.048492010216352 18.51262167325464 664.4485811783687 5.640238353027671
1.3455735245705995 8.008868638423046 17.376731118906513 697.9328476381488 5.798933481220935
1.3485391657617232 7.968324612246788 16.32399349547786 733.5343199705618 5.966381483059726
1.350819612249591 7.927024186324449 15.394741856745005 771.3627265771999 6.142706062329534
1.3524574851262514 7.884922866474719 14.529692762525837 811.651100199106 6.328953469642944
1.3533648971407548 7.841923583660199 13.726599941463006 854.6147879607739 6.525941340815407
1.3536022541210357 7.798120915475991 13.015834787767641 900.4734976432575 6.73441069202483
