M[M_sun], R[km], Lambda[1], P_c[MeV/fm^3], rho_c[fm^-3]
0.23848912294887037 16.21570186450063 2784644.0411725277 3.4469561053153734 0.1694538074003404
0.24849125602554517 15.872347096548857 2284846.215448141 3.6329432136651816 0.17193747933759942
0.2587893175301873 15.56834266484971 1882994.2650817165 3.8177588270097873 0.17422719003532988
0.2693723437319382 15.298439302286035 1558840.8902767855 4.014231327759515 0.1766359795359229
0.2802395854579827 15.058371133304815 1295838.5513380712 4.218654271687624 0.17907018362568164
0.2913969059354406 14.843994113436606 1081196.1686646552 4.425969652501834 0.18140702194406502
0.3028379354844781 14.652321523337411 905302.0121123833 4.648343579104376 0.18391359869034077
0.3145579236478385 14.480621249745484 760603.1772027556 4.871165697857035 0.18628163415557888
0.32657456836090776 14.326624464299606 641024.1175554732 5.10524490645405 0.18872552760787295
0.338863542444044 14.18816331752354 541864.3291550019 5.35279690914898 0.19128221137065224
0.3514416829711221 14.063783413575146 459406.58372554096 5.599292639307399 0.19366873253863112
0.36430222070682033 13.952011642728777 390553.0050591003 5.862904785517939 0.1962209713407535
0.3774486482111337 13.851192370749846 332815.6301083419 6.133785098320412 0.19874547239593232
0.3908801692869078 13.760352376559792 284298.5712984117 6.41090797243413 0.20121687292727372
0.4045963107417586 13.678895364484179 243452.82264628494 6.70702471908536 0.20385766209833517
0.4185950034081602 13.605434665504148 208938.66360272144 7.004129882236875 0.20635618038671377
0.43288193832569416 13.539312231129502 179669.04024674246 7.31494478342032 0.2089187354099872
0.44745890238580466 13.480038306279948 154826.28929199043 7.646801739734631 0.21165475526716
0.4623131839248517 13.426799408191574 133667.2362511499 7.9733364709333605 0.21415859654010802
0.4774604875177819 13.379088422026715 115611.94813281542 8.32141547278348 0.21682763749596418
0.4928852380329843 13.336533496860772 100184.8183692742 8.686597833909461 0.21958826346309357
0.5085894920491144 13.29844644334113 86959.68641861291 9.052183305283885 0.22219882490535436
0.524571538370037 13.264525762988644 75610.14037301463 9.44165678622907 0.2249799651085362
0.5408362960257694 13.234543685598654 65846.78034527792 9.843892924136338 0.2277660585662337
0.557380272137807 13.208111889364371 57430.6113175302 10.252761404265362 0.2304656428185437
0.5742090680848893 13.184745406943165 50157.261140578856 10.688113257134619 0.2333400854898129
0.5913021424962351 13.164483095983458 43877.66428144852 11.132088236900199 0.23615715234102666
0.6086827058766586 13.146811154810742 38429.6455623442 11.588964530127694 0.23896327879664267
0.6263275113681201 13.131504265987587 33425.82435565079 12.075200554074224 0.24194973222111596
0.6442310999821653 13.118548612292667 29606.505702015533 12.56577508609908 0.24482427419916114
0.6624194037797222 13.107624531317583 26030.111863870912 13.07623336843063 0.24775545627990073
0.6808629900198981 13.098664074334357 22918.599992091218 13.619273862857886 0.2508737337601107
0.6995544464999081 13.0911563273686 20202.862900790562 14.161665836033688 0.2538189289764072
0.718518103481402 13.085315495656891 17827.470353970708 14.732177677256068 0.25688690752603116
0.7377222765337409 13.080882079654662 15751.81289602717 15.338342559272283 0.2601437574256889
0.757171538251174 13.077618048824588 13931.59910970401 15.938662729936318 0.263146221615376
0.7768724225126352 13.075559799002114 12335.351274064316 16.57637988722625 0.2663357245197913
0.7968006591668677 13.074468470942207 10933.767525024648 17.247205514633173 0.2696600593013912
0.8169612895725022 13.07426741343233 9701.024060987851 17.918614650305823 0.27280885772402474
0.8373645041564742 13.07483238312596 8615.389302164873 18.631703563373318 0.2761531274477526
0.8579735241304032 13.076126220269396 7659.437627751578 19.374122646690928 0.27957491660626604
0.8787977596279953 13.078074901752665 6816.25444979941 20.125760044414903 0.2828942545563823
0.8998337986541642 13.080539860730097 6071.3413566773115 20.92395459571978 0.2864191955368938
0.9210559662321446 13.083322829355119 5412.884052938147 21.745670147198684 0.28995194448358447
0.9424785224502108 13.086485216274664 4830.367511318135 22.588208031533892 0.2934629246614288
0.9640842815827907 13.089973891109928 4314.268671376511 23.482889245050956 0.29719119381650266
0.9858436443012314 13.093540671131503 3857.0890674690227 24.392320551601678 0.3008217443863466
1.0077894316323974 13.09742992581902 3451.134527297827 25.33780634165843 0.30451657262274223
1.0298931575125576 13.10121907271156 3090.420009577369 26.341822896901743 0.3084401310274634
1.0521330356526324 13.10522707943797 2770.0734378747406 27.349490840877863 0.31219038080534967
1.0745139914139619 13.10890784249869 2484.7137700482867 28.41194450768939 0.3161213504105715
1.097024664434043 13.11266620942071 2230.673828122464 29.52995762162833 0.3202273830560103
1.1196308981814558 13.116094358230725 2004.3715586854776 30.657100115008053 0.3241890014002018
1.14234920428327 13.119341199067998 1802.361749786197 31.85332905565994 0.32839344098346107
1.1651571198709858 13.122352276907028 1622.0412037884919 33.09082257614812 0.3326509161090824
1.1880465954773591 13.125054676661806 1461.038314624602 34.36236899462592 0.3369061583900565
1.2109928999995578 13.127300943093347 1316.914123082274 35.71218997418159 0.34142334724017115
1.2339973618482984 13.129242171553667 1188.0948809678387 37.08250357797504 0.3458171741871924
1.2570229275168945 13.130496357966088 1072.5774217152784 38.519822926857636 0.35037250637648243
1.2800856846325113 13.131396384322551 969.0889071602815 40.031728708293954 0.35512883628004227
1.3031498355173659 13.13173901857803 876.2990975522498 41.5658268527374 0.35977927950971844
1.3262228273707595 13.131440751375026 792.9542009618852 43.194197120244105 0.3647154979083658
1.3492500382103818 13.130522839359093 718.1641472671973 44.869483290719515 0.36966795618323384
1.372243449195058 13.128892797265268 650.9179838597231 46.61146973067333 0.37473100060449305
1.3952015203699246 13.126605254400518 590.3092008179204 48.45213803797291 0.3800600541866392
1.4180631756186293 13.123435344461825 535.8553697071309 50.32057738185943 0.38527579740281237
1.440855413937664 13.119605960867757 486.78331394616873 52.30429900148438 0.39081335077011253
1.4635224291216424 13.114862658664649 442.57444319772407 54.346510464730414 0.39635656369037536
1.4860814458652996 13.109255111833791 402.6473476976838 56.478909046371335 0.40205508915228205
1.5085051739540152 13.102777399100074 366.58080212378087 58.71813701999898 0.4079871472802593
1.5307612218544877 13.095335100602039 334.03662672530015 61.01602926892064 0.41391348757042484
1.5528363908183305 13.086951884484693 304.6082416391468 63.45705879149562 0.4202089836346587
1.5747138798751528 13.07759833220298 277.994601683375 65.9489419063624 0.42644143512233446
1.5963928781814496 13.067207883975316 253.8982546608617 68.58631514515874 0.4330184452671695
1.6178211042062758 13.055728121277493 232.0715856537689 71.31533362212535 0.4396841058960977
1.6390006399957724 13.043203487614203 212.28401062634495 74.17236802859797 0.4465800893002773
1.6599241623320107 13.02972075580005 194.35819100209247 77.15785548357545 0.4536820280577907
1.6804955673443895 13.014698616667935 178.06376829343867 80.26052120344292 0.46091922178766986
1.7008047368914654 12.998807879264994 163.27331582573564 83.5252805129318 0.46847625580185104
1.7207721915404248 12.98160096189522 149.82128664362506 86.9031525656436 0.4761360986619682
1.7403717617881131 12.96320756351854 137.60285178298025 90.47212345995722 0.4841901473960885
1.7596062026944286 12.943562993599624 126.47726206416647 94.15921758983659 0.4923307669234057
1.77844337076728 12.922674442287152 116.35517788016183 98.06139176065673 0.5009116718313255
1.7968617667514362 12.900518292161577 107.13279571393062 102.09634095883453 0.5095883905840174
1.814867278168661 12.877043691836043 98.71514817570063 106.36532461051952 0.5187235619971233
1.8323696442687358 12.852139147641452 91.04591347074857 110.791964203979 0.5279898072095254
1.8494378925123423 12.825966012867967 84.03748703810098 115.46681043707645 0.5377169533530406
1.865995008869715 12.798463913570778 77.64262600041383 120.33552882047083 0.5476805269121755
1.8820402654074457 12.769487189416488 71.79906705460186 125.46084813549439 0.5580774321763017
1.8975585719490442 12.739171771161715 66.44559638855077 130.82988505070585 0.5688309003592815
1.9125083329059136 12.707409133652087 61.55643811683332 136.4578011454083 0.579955157665038
1.9268861152752597 12.674219372132649 57.07496963939216 142.39413797750075 0.5915897758492207
1.940672944912927 12.639545148867759 52.97081852533498 148.5854039663883 0.6034998971871207
1.9538436290451464 12.603436308031105 49.20835760868902 155.13948540983176 0.6160319290082106
1.9663795188457878 12.56581697770455 45.75509439800195 161.99203182359906 0.6289326231994036
1.978278496430961 12.526739957295149 42.58846612354038 169.21895685395742 0.642412979985718
1.9894981300580874 12.486156394689987 39.68140453252577 176.85053995666723 0.6565266588794106
2.0000479460785474 12.444103245644005 37.01060980671346 184.84025349830915 0.6710545687161652
2.0098922225855778 12.400533576811295 34.5555189568319 193.29710500539065 0.6863076126979577
2.0190150806476828 12.355388475614605 32.29499386835186 202.221153845556 0.7022233555443598
2.0274023406836092 12.308797627853576 30.2163562104851 211.60495297953477 0.7187317543426874
2.0350583138020446 12.26076611626011 28.304296976358163 221.54278219448878 0.7360705139158742
2.0419571742888527 12.211122142309344 26.540037585864997 232.0635933607694 0.7542611465290947
2.0480524611859416 12.15993115256158 24.915088909603302 243.13883990136486 0.773109818999413
2.053362835383189 12.107269467844862 23.41858276866003 254.88188300679477 0.7929044089672393
2.0578831727795253 12.05313186814511 22.0383682057033 267.33560024511564 0.8136941501621575
2.0615599524581953 11.997443883333771 20.76612236617118 280.53906948532807 0.8355124363315505
2.0644659646685373 11.940441978451203 19.591795607773133 294.5089837829394 0.8583010649549416
2.0665284815329668 11.881932490520986 18.507101782892757 309.35311774366704 0.8822600521786087
2.0677329674059233 11.8219192982557 17.505956713842718 325.13477184229293 0.9074611238306121
2.0681018366958983 11.760569492806756 16.582312490332534 341.92363928128094 0.9339888036667919
