M[M_sun], R[km], Lambda[1], P_c[MeV/fm^3], rho_c[fm^-3]
0.23848912294887037 16.21570186450063 2784644.0411725277 3.4469561053153734 0.1694538074003404
0.24847660156594895 15.872772315384486 2285317.3308688384 3.6326442455520525 0.17193348691726826
0.25875645671286573 15.569174267473544 1884276.3274627547 3.8171716640365103 0.17421999130777374
0.26932485482349555 15.299729449345095 1560267.7167166856 4.013285075087639 0.17662437830169303
0.28016998952868916 15.05986389183026 1297347.5363653826 4.217413885173438 0.1790562021124694
0.29131083006470193 14.845531789477928 1082647.597036473 4.424307522743085 0.18138828658301698
0.3027260180806736 14.653983983113264 906756.2347319156 4.646203161087059 0.18388947211169243
0.31442686867734454 14.48249668477654 762069.5216378383 4.868713890685118 0.18625603617304276
0.32642326259300397 14.3282766751286 642324.8674190119 5.10224419194855 0.18869419878300145
0.33868812744929044 14.18990464733421 543135.205068959 5.349474476971802 0.19125004426286943
0.3512426561974803 14.06577697237483 460593.9348831289 5.595346895793914 0.19363053065816732
0.36408181409501084 13.953790368170418 391613.0961384258 5.858261094487992 0.1961760120754007
0.37720198270042965 13.853000467125451 333799.0048311226 6.128803411012599 0.19870104537164254
0.39060691521413987 13.762231683148501 285219.08665123594 6.405144399813386 0.20116547299688944
0.40429724905157677 13.680610516137815 244272.63444311213 6.700389606596833 0.20379848971647352
0.4182633259216125 13.607076263344007 209683.0881041603 6.997143985697496 0.2062985842283543
0.43252857030834213 13.540910960362933 180336.2126028941 7.3069929123279165 0.20885317514522939
0.4470735865737287 13.481403059870152 155417.4891473603 7.637779942741394 0.21158039305914617
0.4618984294325928 13.428240231494966 134204.0207411416 7.963946389944011 0.2140865941768337
0.4770100294156157 13.380382446298153 116106.14221244828 8.31084563004876 0.21674658881734243
0.49240013336857213 13.337697809485652 100632.16615665834 8.675632193168575 0.21950996035438353
0.5080703245547058 13.299630003999987 87366.2902654815 9.039923374329375 0.22211127956906324
0.524023837020739 13.265597247970785 75964.18130734988 9.42796857730621 0.2248822207690435
0.5402517924698361 13.235570578962363 66167.73849513754 9.829787593191362 0.2276729270798431
0.5567578002108031 13.209019978516052 57719.83813385204 10.237097460519097 0.23036222047634422
0.5735497111021796 13.185657809865585 50422.43244941514 10.670733256614033 0.23322533275637716
0.5906079028264841 13.165238444152129 44115.34778136979 11.114268997318721 0.23604770687329335
0.6079505533370467 13.147464956139792 38642.76293747167 11.569280800011937 0.23884238165962374
0.6255547194212284 13.13223070171824 33899.26557966999 12.053468015928905 0.24181625133987686
0.6434246292985026 13.119140710966823 29776.013112654255 12.543567298640824 0.24469675140071975
0.6615699376203805 13.108086847944346 26186.38526100732 13.051805751449317 0.2476151866522952
0.6799678721339881 13.098922102692836 23057.911614501587 13.592411065900627 0.25071948070593353
0.6986295168722483 13.091516295423752 20328.285213907602 14.134276943803407 0.25367164275412574
0.7175450442847753 13.08560494068276 17942.01522543417 14.702154992492737 0.2567254578483896
0.7367066868796777 13.081052232622289 15853.511744965464 15.305998169591238 0.2599726786435017
0.7561074075272669 13.077784423566964 14024.157432180245 15.905177318828397 0.2629787464035781
0.7757583774364096 13.075581172886631 12418.741716117898 16.5397794989687 0.2661526699425141
0.795649386686645 13.074505409917574 11009.557872490528 17.20991931066108 0.26948519313705804
0.8157705487834587 13.074226594824665 9769.269277534357 17.877963429702437 0.2726182101851201
0.8361210955105739 13.074791792338383 8677.248470452587 18.58737743478691 0.2759452451948034
0.8566831141212233 13.076088043737196 7715.753648446082 19.32899971671686 0.2793756473118737
0.8774666414981347 13.0779563567765 6866.845017281485 20.076668294954597 0.2826774583890886
0.8984633750671377 13.08034829672689 6117.042556398283 20.870532401493733 0.28618327550788786
0.9196377723894662 13.083096144602866 5454.21463176185 21.691302759264527 0.2897253875240614
0.9410167547034368 13.08627925799784 4867.433592960239 22.52916237135157 0.29321687264840696
0.9625716778577175 13.089725134574236 4348.33895005349 23.418742731070566 0.2969238857900622
0.9842916182981876 13.093343633419067 3887.7576612575363 24.327063116358303 0.3005667273179701
1.0061917852586864 13.097137919019778 3479.094698035105 25.26703761262186 0.3042400181773471
1.0282438966062737 13.100975815754154 3115.889480178474 26.26504853374882 0.30814010739115716
1.0504388667455553 13.104853152320272 2793.0165909041293 27.271392074132443 0.31190142337796095
1.0727787439940346 13.108648231382944 2505.596633828532 28.32735345992979 0.31580837220925867
1.095254011191103 13.112464021096581 2249.781830169467 29.443699314574673 0.31992420711013847
1.1178058647549403 13.115835331877681 2021.687406915046 30.56380544148601 0.32386109442108324
1.1404910899608904 13.119111616300378 1818.0755262935434 31.75237895029749 0.328038627114229
1.1632453247964178 13.1221205562199 1636.4509167264484 32.98781708591126 0.33230620724839205
1.1860909924631537 13.124771297163502 1474.0507398441653 34.251052801285915 0.33653363768174877
1.209007041266105 13.127174730189177 1328.8189818947521 35.591833433081156 0.3410205729214047
1.2319440516090712 13.128964467247709 1198.897155471767 36.959638977379456 0.3454277763331578
1.2549494610412728 13.130513346163005 1082.5294372137234 38.387130054710276 0.3499519595354118
1.2779666632973303 13.131301901559421 978.1056419923661 39.89597101911536 0.3547173023577806
1.3010142683966184 13.131842089724723 884.553458569062 41.4193570903373 0.3593352731615112
1.324033593439005 13.131528647084263 800.5103596513222 43.03608438307534 0.36423619721254313
1.347030038089569 13.130614853320653 725.0400127913289 44.70755562577685 0.3691973170658264
1.370005148264236 13.129103701026395 657.1431153460825 46.43682211248599 0.37422339122897286
1.3929241491559239 13.126886942358848 596.0970818862766 48.272844778187995 0.37955955755211446
1.4157658160094782 13.12382932600238 541.1209977340447 50.12734465094954 0.3847363887735285
1.4385259989770935 13.120028837554603 491.5837193626128 52.095920565954174 0.3902316629486322
1.4611795548715036 13.115423387280897 446.92868051881544 54.13240272621387 0.3957843918600092
1.4837282555509361 13.109967079949518 406.6403885358646 56.248165039766036 0.40143845931199634
1.506114741231007 13.10347568075327 370.26403012494376 58.48053412200962 0.4073743615292846
1.5283402260649557 13.096184633252848 337.42996871764313 60.76009926561863 0.41325343560726485
1.5504232878699962 13.087959265273748 307.6957854644187 63.18121363260021 0.419497569824992
1.5722947611840241 13.07870174690794 280.8251961570787 65.66455001810058 0.425732226313095
1.5939575069985519 13.06845001261112 256.49866979442476 68.27991814361347 0.4322543607008038
1.6153812098053553 13.05712932237817 234.4695559513376 70.99873925520777 0.4389199465652985
1.6365618043565033 13.044756204656208 214.4927379841667 73.83138039375399 0.4457570522848366
1.6574562854593191 13.031185502730843 196.36439759538325 76.80481148703005 0.45285852722693776
1.6780713609207718 13.016605807472526 179.92550836657855 79.88035476673492 0.4600324558900626
1.6983679714972373 13.000749201300076 164.98723945534687 83.13089273265366 0.46758192103258245
1.718337694284887 12.98376620810017 151.40778129877913 86.47851467913532 0.475173167138113
1.7379676509392359 12.965517381379772 139.05150538725695 90.03071019320163 0.4832155648841186
1.7572163093843853 12.946098736104076 127.82257444535155 93.68395587107308 0.49128145147550334
1.7760807641118865 12.925465874465171 117.59058248073251 97.56641000342483 0.4998472674772003
1.7945257241319543 12.90347283199143 108.26937204349714 101.56336331637662 0.5084422802173321
1.812544172338299 12.880173835462314 99.7665523672222 105.8092434870897 0.5175595223370385
1.8301034349072458 12.85553916313893 92.01514859766257 110.1930999267157 0.5267362099547886
1.8471992291544093 12.829585370376993 84.93810181325975 114.84087985189304 0.5364360196581163
1.8637838999093894 12.802245290617304 78.47468830150342 119.6612725342489 0.5463006972369997
1.8798964277628534 12.773583553602277 72.56101313903518 124.7548547176628 0.5566634210834489
1.895442652388108 12.743413936000914 67.15873822729475 130.06912645210733 0.5673072018796194
1.9104597220107884 12.711915170300525 62.21170783898048 135.65985885671822 0.5783912716989094
1.9248969113024164 12.678951710933937 57.68047461505183 141.53393097942705 0.5899038573669937
1.938778508226932 12.644720129894397 53.535236047823105 147.6816533204296 0.6017665516620715
1.9519957131250936 12.608722478193728 49.72817611585877 154.18817615931454 0.6142409816754761
1.9646093625496046 12.571500091692217 46.24451350879177 160.9662022237985 0.6270013828749728
1.97656760097828 12.532594685980861 43.03983355869802 168.13737504833645 0.6404127268146067
1.9878807976099195 12.49229531880973 40.098437229498614 175.68346127528704 0.6543682897008289
1.9985036281856268 12.450506463130855 37.39846955484266 183.60775911179036 0.6688166696418332
2.0084411920798892 12.407253475799331 34.914471525955484 191.99337797699005 0.683982459116039
2.017656630805503 12.362442977189511 32.6307714382427 200.8133869281101 0.6997126502975555
2.0261503879227396 12.316105749177536 30.526945066256193 210.11346661555407 0.7161133714638813
2.0338889479552567 12.268286426790604 28.592988127519963 219.96013500873238 0.7333340943511251
2.0409086873821236 12.219031525444654 26.80850496781879 230.35301205844175 0.7513035270514811
2.047123167984707 12.168157642227497 25.166371594556054 241.32084188594456 0.7700165478762657
2.0525575154445477 12.115899179603936 23.653242901150353 252.946951166951 0.7896624319687406
2.0572337217511008 12.06220730140261 22.25664793558767 265.27335408977353 0.8102863581682208
2.06102960859461 12.006749488983298 20.967652191548954 278.3069280935267 0.8318238982079077
2.0640321494698775 11.949960431808094 19.77977608501197 292.1261391759387 0.854416172417063
2.0662282580047906 11.891804124449699 18.682979829922818 306.80601224782976 0.8781672154657029
2.0675925811469327 11.832169760108576 17.669000655226977 322.40857446839004 0.9031397660215884
2.068087729205783 11.771088432750165 16.73395966464662 339.00206845373015 0.9294154203216186
