M[M_sun], R[km], Lambda[1], P_c[MeV/fm^3], rho_c[fm^-3]
0.23848912294887037 16.21570186450063 2784644.0411725277 3.4469561053153734 0.1694538074003404
0.24848618065352587 15.8724851782366 2284823.958173354 3.632828486316468 0.17193594726852773
0.2587769377812753 15.568579541705517 1883443.0182942147 3.8175334991980594 0.17422442747433528
0.269355599378303 15.298867376473499 1559316.1242241312 4.013868183901319 0.17663152732449638
0.28021465382295535 15.058857120104035 1296389.547913408 4.2181782344734415 0.1790648177816294
0.2913641450227116 14.844573633898731 1081678.5968748382 4.4253317354859485 0.18139983140701554
0.3027943858986337 14.65295824751915 889294.5043889504 4.647522067487002 0.18390433869323425
0.3145076044862872 14.481305707598555 761192.8511044935 4.870224650149143 0.18627180918929762
0.3265153038389714 14.327274137801652 641499.4005828646 5.104093136372851 0.18871350260412803
0.33879320269288626 14.18894069180525 542390.7667740223 5.351521627449227 0.19126986435445995
0.3513687382719333 14.064519885843733 459844.843103826 5.597778051065633 0.19365406860551787
0.36422075759192735 13.952631299008015 390934.4603853632 5.861122221141725 0.19620371291759792
0.377353839443042 13.8518200299731 333199.9208281143 6.1318727563945155 0.19872841800131807
0.3907745418636477 13.761210991197261 284679.26624878217 6.40869540272576 0.20119714108099296
0.4044793786959841 13.679557414949619 243779.3233495913 6.704477478013877 0.20383494563020654
0.4184672773175611 13.606080977630048 209221.21323576788 7.001447939655618 0.20633406875240165
0.43274745327707914 13.540001921045532 179931.48015180987 7.311891879430454 0.20889356533472694
0.4473117005740146 13.480567918341501 155050.09810106267 7.643339659739282 0.21162623088952903
0.4621538478825188 13.427304816638172 133876.8843878545 7.969731230367245 0.21413095185405823
0.47728456246511797 13.379551494190492 115805.05191560925 8.31735711522975 0.21679651834638367
0.4926972377888648 13.337010769688954 100360.20428528226 8.682387473964113 0.21955819825483994
0.5083932049182148 13.29881641967567 87110.61660949851 9.047475808428967 0.22216520975721182
0.5243601641149356 13.264942922311445 75747.56399784685 9.436400658643583 0.2249424323150182
0.5406113898125651 13.234961915461906 65969.70422420755 9.838476598408361 0.22773029687671434
0.557142644525406 13.208411541310413 57538.790313588244 10.246746346569118 0.2304259279571086
0.573953615521199 13.185151791717049 50261.9720702826 10.681438951050353 0.23329601789234367
0.5910357759627174 13.16479100019732 43968.09015223004 11.125245236289551 0.23611512274716506
0.6083916464300905 13.147068698524992 38514.44844763908 11.581405216008791 0.23891684961734447
0.6260268355644468 13.131866171560517 33781.707892905164 12.066854071531695 0.24189846826669084
0.6439229289778047 13.118795191359578 29670.635164901083 12.557246079240512 0.24477529845925122
0.6620921510947425 13.107823319874617 26089.802964171668 13.06685143701832 0.2477015828289443
0.680514639289695 13.098730963523039 22971.578537865757 13.608956211745534 0.25081448716719085
0.6991987137349938 13.09136060085177 20251.29474953522 14.151146134689126 0.2537623583397585
0.7181430937767902 13.085421309847929 17871.958954351972 14.720645883451295 0.2568248942714843
0.7373333452851814 13.080897913744137 15676.672712678514 15.326265482974506 0.2600816679373701
0.7567638228476529 13.077710659672345 13967.034200170347 15.92580037835506 0.26308189135978055
0.7764439922264966 13.075556969716802 12367.271047708491 16.562320407038413 0.26626540689954065
0.796372223103664 13.074614591173574 10962.940039650026 17.232882644926942 0.2695928873980876
0.8165104585708525 13.074304686700016 9726.935094552287 17.902998490280666 0.27273562050182704
0.8368885294668087 13.074852183359171 8639.387113993092 18.61467493220471 0.27607326596819504
0.8574848948642838 13.076184535000252 7681.1402328894 19.356787999752214 0.2794983643330426
0.8782907224472103 13.07801870970912 6835.564983810364 20.106899880237762 0.2828109653814581
0.899305919669734 13.080482308926909 6088.806903499707 20.903429819591313 0.2863285551981784
0.9205110806968739 13.083291158715472 5428.961707847653 21.72478235458344 0.2898649019574328
0.9419154747616092 13.086396185104899 4844.584936017324 22.56552182915912 0.2933683878953922
0.9635046670105747 13.089880337182601 4327.267770685958 23.45824207137149 0.29708848539254046
0.9852474559808561 13.093496929845019 3868.880981229466 24.367246703136477 0.3007237592402147
1.0071740640851956 13.097274519387135 3461.7414899897562 25.310613621932365 0.30441030721957607
1.0292536070937899 13.101113659627954 3100.104195047603 26.312321115188382 0.30832484212810096
1.051479620482672 13.104990917369845 2778.863515181648 27.31948037265868 0.31207934515072
1.0738436204535449 13.108803996378452 2492.7608283362524 28.379437739258254 0.3160010787011705
1.0963320329316717 13.11246726626207 2238.0328761709548 29.496810390445496 0.3201108789938492
1.1189309847443698 13.115966285565106 2010.9310833772768 30.621247236578313 0.32406298767814484
1.1416437823223304 13.119261349247733 1808.3393686732434 31.81453230658579 0.3282570803070338
1.1644273782603678 13.122264194534422 1627.5684975681413 33.051236190967096 0.33251843989152136
1.1872892367180152 13.124947337711045 1466.0427313779687 34.319586580949405 0.3367629866324919
1.2102284260686766 13.127284714897204 1321.471494064861 35.665930718522354 0.3412685401975756
1.2332031352847146 13.12903307179661 1192.1868301303064 37.03528068813047 0.34566750950039365
1.2562411098204918 13.130617483512234 1076.388252590282 38.46881995317571 0.3502108613753604
1.27926541576414 13.131367801308114 972.5834880431395 39.979548040120534 0.35497065654694887
1.3023201670134443 13.13174384444132 879.5057378855706 41.50952594055308 0.3596086097277097
1.3253820610641025 13.13148582967079 795.8472720201564 43.13341761987958 0.364531251798039
1.3484014387987118 13.130554949538233 720.7814750481226 44.807237660274176 0.3694870406578625
1.3713871674428366 13.128988906317497 653.2759316456311 46.54433094599932 0.3745358632363727
1.3943275235110817 13.12668127968548 592.5489178553605 48.38192719766237 0.3798595254649445
1.417193825073097 13.123614888161573 537.8684889948377 50.22318643607372 0.3849239966951489
1.4399832375800476 13.119783966380684 488.58285515798906 52.17706272305199 0.3902982264811283
1.462666306213441 13.115127229384823 444.1849660990532 54.252154776560026 0.3960058660061767
1.4831359105590312 13.108937971670754 407.3329089058422 56.617832267399166 0.6772099676398105
1.4902499664394546 13.093493214463688 391.517674133658 59.372648731142036 1.2373646972668955
1.4876680907106952 13.06525955267808 387.5295037249181 63.29743928670146 1.6355550921978776
1.480006495093723 13.027040440519606 388.62954833939443 67.57608002695424 2.069645426958736
1.468268589406179 12.980828136928988 393.9334313306104 72.72623043818439 2.477911165532937
1.4534410941942584 12.926028790569639 401.95052609365143 78.6970924450476 2.888221309099216
1.4364942884984908 12.864642404377788 411.8700175512636 85.28798488475984 3.2515257423365376
1.4170398115278469 12.79249951824421 423.42372202795 92.55218557430186 3.4437306453164167
1.3964811591733015 12.711510024561909 434.85249195173117 100.5666768999372 3.646179541329861
1.3746764853348805 12.61937939810032 445.75328086169145 108.55538766345194 3.670264427838377
1.352376771827793 12.515977092450042 454.67996380379753 117.37448092315961 3.6968528056825427
1.330315468447654 12.403047379129372 460.6544331149929 126.00268634483454 3.722095297233085
1.309003743164508 12.281840406512114 462.933567737273 135.36476119390863 3.7494025433058322
1.2887664299944466 12.153498315961327 461.0531318383346 144.69206263624412 3.7763947651002017
1.269858009746773 12.019161775139727 454.8827812061254 154.6898531723221 3.8052804063471304
1.2524592355540745 11.879716305076146 444.4031352020325 164.7356442829402 3.834109762573662
1.2367123296212572 11.736143240049135 429.762329949546 175.46439232015913 3.8648501338407253
1.2227048414076362 11.589692535977353 411.5710066187084 186.26058390847192 3.8955419948824517
1.2104843570823065 11.441225913622006 390.2769528467271 197.82123432741633 3.928362038017771
1.2000122896985224 11.291408588795276 366.6346105193402 209.41489358658717 3.960990423613748
1.1913980630283278 11.141860121172584 341.3987357866627 221.81680708929156 3.995847147648208
1.1845190571708661 10.992870181524077 315.2631236419544 234.3685116385702 4.030851243775881
1.179334209521918 10.84536350295433 288.8940720417325 247.64173640726827 4.0677592055119325
1.1757472164177958 10.69992474209419 262.92086785909544 261.3141926085822 4.105526730335993
1.1737000269001827 10.557242446159705 237.83673517234485 275.54505689206616 4.144644610278911
1.1730729178526058 10.417714448761556 213.99266449636022 290.47480858709423 4.185529804476596
1.173760454423683 10.281823984665742 191.68739772893318 305.76089436554656 4.227047893263832
1.175668418578476 10.149971598342225 171.10217249050126 321.8892458316326 4.270710428959341
1.1786656034289378 10.022207440710815 152.24554542883374 338.5600396631996 4.315535357238799
1.1826404992800184 9.89864888171889 135.17170561398507 355.91613666362167 4.361941386099017
1.1874986529120903 9.779587007138447 119.8297465491933 374.1587498511471 4.41051977441321
1.1931185989019308 9.664809969874977 106.10289217259944 392.98091757761665 4.460215012798795
1.1994049966933669 9.554406090604935 93.93306577419183 412.6717220819332 4.511933356123777
1.206234435126752 9.448179088955056 83.17693034442526 433.3346124061852 4.56595231691085
1.2135752572718506 9.346120532766616 73.62741694609402 454.78406092200674 4.621621833317585
1.2212806383015313 9.248004719965891 65.25379643472678 477.17426101024347 4.6793311657665395
1.229272821343292 9.15365803126088 57.88273287165694 500.66231749786976 4.739534775079321
1.2374982748318446 9.062944161638189 51.31145047261842 525.2840241663953 4.802286388896774
1.2458592707676956 8.975801946397905 45.666388856972375 550.8735008474525 4.866966910453665
1.2543011814568519 8.8917549242369 40.70465144792159 577.7071661506161 4.934372503057099
1.2627726228334162 8.810715478506395 36.419189546789916 605.8647211984094 5.004659028958443
1.2711801611303744 8.732654114040738 32.59138479628927 635.4093618729248 5.077920372517986
1.2795127140033782 8.657108441723476 29.222940624747167 666.4138495322412 5.15427369654517
1.2876902037221876 8.584156561575645 26.224491276343382 698.8551941298412 5.233526491217265
1.2956624794427323 8.513434919062155 23.654485451271405 732.9274342008785 5.316170691278054
1.3034201084345698 8.444723627004809 21.35044033861689 768.7546787318392 5.402460101135455
1.3108950660733727 8.378132117075175 19.319165587643912 806.4434599928852 5.492577043339581
1.3180662551553717 8.313053020243606 17.517617426510178 846.1123220905557 5.586728021931756
1.3248569535682673 8.249925254749693 15.926635882023445 887.8919126674899 5.685142670762782
1.3313124263040073 8.188236821268173 14.513637242387048 931.9258190021463 5.788074998439276
1.3373386790459576 8.127825731843743 13.255452409885567 978.3697064906073 5.895798535324262
1.3429559724056375 8.068683338992532 12.135697257341592 1027.3956152782516 6.008618825719673
1.3481028530829353 8.010624381751205 11.13844418458764 1079.1915695636865 6.126869776188354
1.3527986871209952 7.953567982664012 10.245306780599993 1133.9639317739386 6.250918698916242
1.3569976453773653 7.8972637297718595 9.445782750520706 1191.9370604958942 6.381159889974352
1.3606365875323805 7.842145692610884 8.731572896310231 1253.3581106708232 6.5180090553624055
1.363773351122078 7.787603074542965 8.081465102185303 1318.4978480283849 6.661959018228773
