M[M_sun], R[km], Lambda[1], P_c[MeV/fm^3], rho_c[fm^-3]
0.23848912294887037 16.21570186450063 2784644.0411725277 3.4469561053153734 0.1694538074003404
0.24848845336496722 15.872351976990306 2284826.7448961376 3.6328709994521695 0.171936514988963
0.2587801379547956 15.568582270711193 1883448.2950505433 3.8176169951601437 0.1742254511504021
0.269360463736026 15.298738199804228 1559121.2579201541 4.014002746176913 0.17663317708309056
0.2802240162282521 15.058644460335243 1296148.8724579103 4.218354627214505 0.17906680606303324
0.29137609792004454 14.8443978896655 1081550.2153455946 4.425568108534699 0.181402495780472
0.30281227056424803 14.652699454678563 905592.4941771891 4.647826465116365 0.1839077698329863
0.3145252439987625 14.48105173588741 760919.2497108751 4.8705733366958395 0.18627544963551018
0.32653777118772276 14.326908547596917 641284.7581904138 5.104519895830342 0.18871795816705528
0.3388213318956833 14.188663538917217 542209.788134125 5.351994147241234 0.19127443919429668
0.3513962590639536 14.06418074215572 459648.75632511266 5.598339231203294 0.1936595018366603
0.3642490478101009 13.952284648392999 390769.7671045771 5.861782681248005 0.19621010735706032
0.3773877460856802 13.851676623610896 333076.113568882 6.132581295948778 0.19873473680497686
0.3908131644759553 13.760939663306363 284519.73281431216 6.409515167397149 0.2012044517977677
0.4045245365470501 13.679324136464016 243666.08188158792 6.705421225456643 0.20384336203372055
0.4185124426431474 13.605849632106557 209113.8606674517 7.002441588727487 0.20634226102507194
0.43279523197067543 13.53969252566743 179831.79280052977 7.313022951388027 0.20890289060875827
0.44736612777161106 13.480387101714491 154965.98124296407 7.644623347091416 0.21163681442159263
0.4622140015119231 13.427147576671535 133799.68970870416 7.97106691233719 0.21414119375277327
0.4773566102809825 13.379505210076875 115734.94121300089 8.31886064663642 0.21680804730067704
0.4927666783521165 13.336760582089216 100292.56876278658 8.683947314049451 0.219569336712743
0.5084643007809071 13.298724568774853 87058.91641737032 9.049219799668602 0.22217766319598967
0.5244404757822384 13.264762897377292 75696.11981839014 9.438347871322103 0.22495633691117
0.5406962253646388 13.234827545315687 65924.00240927537 9.840483154907554 0.2277435453137787
0.5572296163788176 13.208304423623838 57497.90151813622 10.248974677418717 0.2304406406756547
0.5740491128474843 13.18500783483386 50223.154767301574 10.68391146681666 0.233312342859786
0.5911334213342658 13.16471234206936 43934.13510831228 11.12778024295631 0.23613069271518095
0.6084980523495691 13.147013112921744 38485.92598192674 11.58420553833085 0.23893404914962196
0.6261408512269662 13.131748892410151 33756.65438309536 12.06994594731428 0.2419174585153853
0.6440386156633411 13.118751230516612 29646.233748691866 12.560405569054426 0.24479344105825956
0.6622109362858601 13.107800185729982 26068.542781581473 13.070326828193457 0.24772153941440628
0.6806429708775324 13.098638050904292 22952.086357067725 13.612778162049908 0.25083643378385556
0.6993346392324231 13.091194459187312 20231.625592647873 14.155042932464344 0.253783313718986
0.718282635572058 13.085381667264345 17854.980343433723 14.724917518154196 0.25684786536987947
0.737476606773283 13.080962695206896 15775.94441485041 15.330934065301385 0.26010670430148264
0.7569071616484636 13.07764809270115 13954.827676902918 15.930564806540845 0.2631057203525601
0.7766030206394178 13.075546200363553 12354.901546043611 16.567528182873886 0.2662914532681586
0.7965247218570601 13.074491401137717 10952.067830933345 17.23818799109731 0.26961776859907993
0.8166749771782038 13.074281305278323 9717.667228776954 17.90878278696984 0.27276274790198174
0.8370613361374188 13.074880198966499 8630.849590618855 18.620982304734408 0.2761028465080138
0.8576651182402101 13.076204893381595 7672.9001116467525 19.36320873286466 0.2795267192062198
0.8784730357621142 13.077997064129478 6828.289971369438 20.113885541606766 0.28284181505838873
0.8995010244124036 13.080481305285078 6082.24948507937 20.91103190486665 0.2863621270909965
0.9207126056395186 13.083249383525386 5422.87858858471 21.732518914372697 0.28989714134817096
0.9421251249881187 13.086472127444198 4839.456587129519 22.57392434599195 0.293403402427786
0.9637184093541671 13.089904106215037 4322.424804749245 23.467370725768912 0.2971265258477362
0.9854702649263222 13.093549978176368 3864.5359141732133 24.376533412232217 0.3007600504202102
1.0074016506199917 13.097308570737011 3457.796738452981 25.320684922059737 0.30444966447325367
1.029485045592515 13.101158095990723 3080.3189574913263 26.3232474116618 0.30836754058973176
1.0517240017984217 13.10503151065333 2775.480526314607 27.330595100980165 0.31212046850561714
1.0740937574958656 13.108841829325113 2489.734008528979 28.391476775189698 0.3160456218994303
1.096584740231057 13.1125673894975 2235.305779291277 29.509086658814603 0.3201540269456432
1.1191876194579897 13.115965442414241 2008.4661129122912 30.634525306648207 0.3241096567073699
1.1419047713150825 13.11935100371678 1806.2108345094248 31.828900357779617 0.3283075803418689
1.1646973564226728 13.122266941310576 1625.4769032271518 33.06589671818264 0.33256750148641273
1.1875767578936083 13.124960631409545 1464.1253158021327 34.33543042631192 0.33681600821290775
1.2105198319139647 13.127283178852213 1319.748263259225 35.68306182084042 0.3413258695957353
1.2334953328189293 13.12913836520129 1190.6587269821243 37.05276870113841 0.3457229346977541
1.2565321419589202 13.130579257766776 1075.0004196232999 38.48770746362242 0.3502707220349837
1.2795722807429084 13.131455106462845 971.3536603094341 39.99887172368955 0.355029234085649
1.3026195809926582 13.1316922417686 878.3139044360413 41.530375024108125 0.3596718113421662
1.325693146890398 13.131459956537423 794.7665611506776 43.15592472820699 0.3645994795251371
1.3487259132338365 13.130631788739953 719.8222685991982 44.83028773873585 0.36955403519265806
1.37171566360171 13.128928048270781 652.3689350055366 46.56919248335174 0.3746081227357058
1.3946462569991205 13.126628789197031 591.7205790573399 48.40873642828955 0.37993889871428327
1.4175116867273807 13.123563986133455 537.1328470207237 50.27379836033273 0.3851452138947175
1.4402998407753456 13.119734854175316 487.9424417069062 52.25385000890563 0.39067252254806384
1.4629670625513511 13.114999030364727 443.6115839846439 54.29467460747664 0.3962180398914273
1.4855180959783916 13.109433467987714 403.60182970812355 56.42304171251915 0.4019057918177281
1.5079179414295123 13.102940608209456 367.48347448422163 58.66060914661213 0.4078387809876187
1.530180439817426 13.095550445267987 334.8541331068761 60.954059804424745 0.4137536662670655
1.5522596226547498 13.087236105403482 305.3629698569506 63.390262460170696 0.420036713681726
1.574128421763869 13.077857108081671 278.6723054800537 65.88007600544104 0.4262696991987533
1.5958008917077027 13.067480040557092 254.5237326282056 68.51211535752508 0.4328334078409788
1.6172207287773406 13.056026505356982 232.6409016355168 71.23866419384754 0.43949904998504047
1.6384076550303674 13.04357357613375 212.81727359183887 74.08978529218673 0.4463807605212911
1.6593104354955532 13.029952819432994 194.83215203139918 77.07235247315957 0.4534825860596066
1.6799205612200376 13.015214806903888 178.5101901700237 80.16844265344011 0.4607044418645639
1.7002133542307587 12.999219944472342 163.68116506131716 83.42975679870814 0.46825964113174223
1.7201874988962238 12.982131145001755 150.20556931226895 86.80029430000306 0.4759028517718031
1.7397906503767289 12.963784689626626 137.95717585837534 90.3652007059905 0.48395407599997137
1.7590341202183868 12.944212338724697 126.80149495016343 94.04408694456714 0.4920765735814246
1.777876942702142 12.923370531604668 116.64911736130338 97.94148246619936 0.5006538199544518
1.7962995246996205 12.90126186645395 107.40420041013569 101.96721703937376 0.5093107236597566
1.8142929339502136 12.877773743179489 98.97120699246625 106.23060133221132 0.5184415469592452
1.8318326227306116 12.852995732222684 91.27797988633041 110.64686410229469 0.5276860704597484
1.8489059929338478 12.82685494088446 84.2558013754834 115.31514955937529 0.5374065874226199
1.8654654758633877 12.799355463378832 77.84349653073943 120.17214537698845 0.5473461713735529
1.8815208121963836 12.770473128371878 71.97830785451903 125.28977052267057 0.5577347864289594
1.8970477467054367 12.740208586872985 66.62171900920782 130.64552112528378 0.5684616438916088
1.912021100188828 12.708537913876224 61.712649910123034 136.26442118316552 0.5795761525497953
1.926410476131704 12.675342141538462 57.22137471829048 142.18565025960038 0.5911811610649738
1.9402160430397812 12.640785231920686 53.106226165989696 148.36635638021897 0.6030797756027465
1.9533957556400776 12.604724405786538 49.335611709677764 154.9089034722471 0.6155978324135759
1.9659452823733112 12.567133547036793 45.87501181190015 161.74336520184136 0.628464480139999
1.977867476757928 12.528139587142688 42.69677504980577 168.9567663762281 0.6419280907875198
1.98911598489162 12.48768434717478 39.78305558692465 176.56759787432546 0.6560033921283395
1.9996832693048463 12.445647606256516 37.102741003438396 184.54144067603718 0.6705119999664204
2.009553287889436 12.402175410226924 34.64036964528396 192.98100888445765 0.685743865830855
2.0186953399615053 12.357134721626418 32.375976081623335 201.87980011444878 0.7016145625736725
2.027097994426234 12.310576874717484 30.29144984178843 211.24328248126997 0.7180968227313126
2.0347794710583917 12.262540428268816 28.37060127936617 221.15898729936936 0.7354069270663809
2.0416803033462934 12.212950467005454 26.603635573648845 231.6487329728068 0.7535438469992455
2.0478092820704568 12.161888141671707 24.977305794183895 242.6979047532852 0.772359580578267
2.0531570689923333 12.109308223207892 23.47508233932242 254.41256045890734 0.7921180593533683
2.057708205068137 12.05530594590654 22.091771264703553 266.8353675625249 0.8128675325799536
2.061435046790967 11.999737598121103 20.815340040911018 279.9975688793149 0.8346176249022246
2.0643802088826404 11.942769340661437 19.635832002762193 293.93088677206225 0.8573585591964341
2.0664509195422585 11.884298567890514 18.548905465921727 308.73512824642825 0.8812670308425773
2.067682695100333 11.82437703429204 17.5457972972527 324.4732837742624 0.9064125839648915
2.0680900954291443 11.763095040021318 16.619305972732825 341.2146933540441 0.9328790302990959
