M[M_sun], R[km], Lambda[1], P_c[MeV/fm^3], rho_c[fm^-3]
0.23848912294887037 16.21570186450063 2784644.0411725277 3.4469561053153734 0.1694538074003404
0.24848198710161196 15.872431173122116 2284805.283263634 3.632728014396621 0.1719346055664602
0.25876518834925877 15.568969987636102 1883978.4259845875 3.817336176915662 0.1742220082663532
0.26933947662535 15.299233007103904 1559856.8247450297 4.013550187656251 0.17662762863122672
0.2801902695394752 15.059398520151834 1296897.1096579828 4.217761394035359 0.1790601191977398
0.291335095984861 14.845043986268163 1082188.4541370827 4.4247731686522265 0.18139353529731403
0.30275743674766353 14.65344624635647 906334.6898048446 4.646802773960005 0.1838962308882588
0.3144657393922603 14.481897926007274 761618.8456039098 4.8694007166775055 0.18626320694893406
0.32646541786572547 14.327848386718573 641983.8802730361 5.103084747936309 0.18870297456999716
0.33874076820974347 14.189589531482257 542816.5628213935 5.350405129813791 0.19125905465305354
0.3512992760630108 14.065183240010244 460228.2117346911 5.596452098805676 0.19364123100734087
0.364145333250621 13.953233207602775 391281.22085518873 5.859561736030756 0.1961886046203984
0.37727169076501654 13.852492842465521 333512.1604316469 6.130198694275941 0.19871348860213883
0.3906807189639244 13.761817000246468 284981.1765551186 6.4067586054676875 0.20117986859207262
0.4043783351906932 13.680162091220188 244051.51639544568 6.702247821869531 0.2038150614059343
0.4183600717483618 13.606521090065428 209456.22464759075 6.999100411482824 0.2063147142424069
0.43262919357279067 13.540445276970178 180145.32507998045 7.309219763992004 0.20887153472160802
0.4471793212480477 13.481106600836945 155259.61362108417 7.640307087989472 0.21160122844614127
0.46201600861198816 13.42776618400984 134056.07295345122 7.966575850374389 0.2141067566616236
0.4771344690803112 13.38005650985601 115971.45639329404 8.31380531925329 0.21676928346902066
0.49253882904652685 13.337433942464724 100502.49001227468 8.678702682454643 0.21953188600944018
0.5082181693660762 13.299204311850056 87249.6045717554 9.043356122601221 0.22213579203189657
0.5241748777290182 13.265323521213848 75869.4425461815 9.431801061589873 0.22490958765444347
0.5404127410700853 13.235301117419246 66076.95501281785 9.833736841511387 0.22769900228272946
0.5569323516267268 13.208764238993803 57641.202637092356 10.241482890510833 0.23039117560084188
0.5737330219357423 13.185411020771195 50349.02321460912 10.67559889933556 0.23325745852078986
0.5908014753595574 13.165055483776772 44047.938861921786 11.119257593372337 0.23607834674577072
0.6081421825810541 13.147254742713416 38586.18376846278 11.574791109871391 0.23887622588946114
0.6257642378805262 13.132045105857372 33847.22124629164 12.059551578334503 0.2418536164771444
0.6436505502713133 13.119006511361805 29725.553058908954 12.549783894784852 0.24473244868657304
0.6618051957880394 13.107903397644046 26139.17615969294 13.058643410469108 0.24765445024010785
0.6802188490038997 13.09880421410844 23017.5369428306 13.59992999491527 0.25076265632039
0.6988841934311697 13.091431358370109 20293.466144078684 14.141943141264148 0.2537128684179373
0.7178197716336686 13.085518499584031 17908.75409312158 14.710557976643049 0.25677064564864766
0.7369901421611375 13.080969978732638 15824.951863774188 15.315208211007938 0.26002220646652996
0.7564048056618361 13.077735670961248 13901.395407622982 15.914549038861248 0.2630256184814616
0.7760716678872848 13.075662245395499 12395.790600500988 16.55002250292475 0.2662038996930301
0.7959710292530029 13.074566661200974 10988.700464098341 17.220354295194117 0.26953413149832256
0.8161064947715696 13.074279784326894 9749.962122050569 17.88933957818983 0.27267156245054147
0.8364709228821542 13.074804169778007 8659.779189018589 18.599781353642438 0.27600341753421853
0.8570427017745935 13.076120523684583 7700.364681235916 19.34162668279357 0.2794314097949808
0.8778385830597322 13.077976623828452 6852.233945040679 20.090405162552052 0.28273812235561024
0.8988402765234521 13.080310774787137 6103.941022359149 20.88548022031539 0.2862492872077267
0.9200328064036372 13.083203866280074 5442.812696073082 21.70651515610176 0.28978877983525125
0.9414243168897763 13.086382213036195 4857.46657056612 22.545682904848054 0.2932857161588437
0.9629934598961588 13.08977628348659 4338.658948500067 23.436689466401212 0.29699867249481987
0.9847262660018853 13.09342975323512 3879.1927731161845 24.34532081320869 0.3006380758824475
1.0066402239998609 13.097211543788676 3471.156159735674 25.286836176502142 0.3043173882379384
1.0286959163979266 13.101101505820193 3108.925224164192 26.2865260576601 0.30822403859628983
1.0509107891393163 13.104905557629273 2786.5355202816254 27.29324029994311 0.3119822595727736
1.0732773167802703 13.108853070427982 2499.7294599884585 28.351016583305135 0.3158959233389303
1.0957398677749075 13.112377246662277 2244.3623341570674 29.467829029040075 0.3200090169012942
1.118320424905192 13.115865690837174 2016.7013799859171 30.589902027800235 0.323952817265063
1.1410051912792127 13.11914554311685 1813.7126128279583 31.780615303670288 0.3281378706935917
1.1637840734598575 13.122159368041359 1632.3534421243799 33.01662858253387 0.33240262519808317
1.1866381861235358 13.124888741837788 1470.4149950943631 34.28218707021075 0.33663782881121995
1.2095675992715242 13.127218279682968 1325.5020544421654 35.62549422030178 0.34113321906857685
1.2325150375885674 13.12905756660996 1195.9313097258873 36.99400149987138 0.34553668233580387
1.255532916188519 13.130533349683025 1079.777792679327 38.424239116342974 0.3500695702133041
1.2785637465047945 13.131426075774124 975.634809672469 39.93393746829369 0.3548323933101918
1.301604453416508 13.131760276690336 882.2419597498892 41.46031685675958 0.35945943801311314
1.3246359326152752 13.131476833065074 798.4063633202722 43.08029734851641 0.3643702237652406
1.3476620672117006 13.130655375474728 723.1090841884356 44.75283565644024 0.36932892245688265
1.3706414079916664 13.129110793634792 655.39106948235 46.48565601260633 0.3743653258617012
1.3935612547523304 13.126782577844619 594.4532131700738 48.32297790171034 0.3796995040265734
1.4164231803765803 13.123722363998102 539.6217259930196 50.18137208274335 0.38488720619866346
1.4391835736765444 13.119917272741553 490.22719405219846 52.15417896615276 0.3903942911102662
1.461841707758068 13.115301223523137 445.70961952274575 54.192263160494726 0.3959443601754297
1.4843884585769869 13.10986491325593 405.54717160197134 56.312672475570174 0.4016108460639746
1.5067905582517465 13.10328536592994 369.2302832585371 58.54695918410156 0.407545673966557
1.5290319736610998 13.095984306068319 336.4609499957307 60.83164322079811 0.41343794983951265
1.5510981968069575 13.087682804804384 306.8292089932826 63.258319584594744 0.41969642863141826
1.572976347128428 13.078429322652608 280.03418902899176 65.74404504273778 0.42593046885829555
1.594640790227097 13.068112276585987 255.76513700850433 68.36555833843967 0.4324679279054345
1.6160508071161597 13.056730192625764 233.79766107991188 71.0872295157699 0.43913353425149704
1.6372462795170653 13.044295682251231 213.86383452396242 73.92668214031372 0.44598708075812915
1.6581364501223113 13.030745276515168 195.80044643253248 76.90348241656848 0.45308868435537225
1.6787498352536572 13.016045252036891 179.3965794020773 79.98659856677854 0.46028027729041215
1.6990432533022797 13.000212039558127 164.50071231465085 83.24111018611922 0.46783185600963717
1.7190194110541428 12.983173707530861 150.96260118915154 86.597177464973 0.47544225320137307
1.7386394834830299 12.964896639005268 138.64541328337967 90.1540596084613 0.4834879041906768
1.757881195883869 12.945407091972621 127.44077742389746 93.81675426146381 0.4915746528779982
1.7767457362672265 12.92471078159571 117.24073603501837 97.70471691701299 0.5001446814300945
1.7951846295244749 12.902638710612885 107.94884756869753 101.71227585890513 0.5087625004200677
1.813182443706009 12.879267837315215 99.47323529136523 105.9646087729889 0.5178847471054528
1.8307472771538527 12.854595909965688 91.7383237496246 110.36040576746893 0.5270864297802691
1.8478304897164233 12.82858445543033 84.68708234988388 115.01574416097452 0.5367938701783564
1.8644248631721705 12.801216150781535 78.23726438774493 119.84962272897873 0.5466861459058874
1.8804886470429607 12.772459286743766 72.35137392077546 124.95206642390202 0.5570584099505111
1.8960333659170223 12.742233986218242 66.96036465122589 130.28161920170473 0.5677327966479168
1.9110308052542315 12.710643924204097 62.02530843472904 135.88273230952922 0.578828081064717
1.9254692589817486 12.677756722329178 57.514851180783545 141.7741758440019 0.5903747129382153
1.9392651319148961 12.643148643047219 53.37771877210444 147.9340525403028 0.6022506399006243
1.9524962286002876 12.607192778895836 49.58170381175916 154.45384954577318 0.6147411418942461
1.965095751128153 12.569869663650648 46.10775491838073 161.2526626960681 0.6275406771354525
1.9770518218920545 12.530989918353402 42.91372776899003 168.439394077301 0.6409712740435658
1.9883398195373458 12.490574455746206 39.97904575734902 176.00932581424254 0.6549709362819853
1.998954888647137 12.4487618623153 37.287723162943706 183.95187589217295 0.669441498957653
2.0088572728188367 12.405348593730963 34.811692124970826 192.35736862097323 0.6846316242642685
2.0180388490438665 12.360464613179277 32.535204470576886 201.20638902776045 0.7004135564073449
2.026517580445457 12.314122247953378 30.440079590026645 210.52982225341447 0.7168443057184584
2.0342386175746148 12.266178429395195 28.510215843782547 220.4019180045419 0.7340979434540627
2.041192303430708 12.2167523148027 26.733004166121557 230.83046160381474 0.7521290441274899
2.0473943750636883 12.165899154046665 25.096538843216816 241.8282474131792 0.7708798837280143
2.052791231147368 12.11348469946233 23.586983648411454 253.4869641234335 0.7905672233147494
2.057399168989946 12.059580561316988 22.195659516699177 265.8488661350217 0.8112373723500781
2.0611966800604375 12.004239326959489 20.91153068127076 278.9297904426192 0.8328531571647318
2.0641525835463264 11.94728598686813 19.72681514141869 292.7910136331195 0.8555001565802515
2.0663164835892713 11.889087715891508 18.63361921150722 307.48676109752745 0.8792154678544585
2.0676352872756096 11.829295704112633 17.62309943373423 323.1490287045717 0.9042978898785718
