M[M_sun], R[km], Lambda[1], P_c[MeV/fm^3], rho_c[fm^-3]
0.23848912294887037 16.21570186450063 2784644.0411725277 3.4469561053153734 0.1694538074003404
0.24848196362395508 15.87263792901402 2285219.170265594 3.6327543711898267 0.17193495753508978
0.25876830254290084 15.56885851976199 1883804.322655737 3.8173879397854256 0.17422264288879008
0.26934221838947425 15.299173080384481 1559688.4365607193 4.0136336053144115 0.17662865134727287
0.2801956500828754 15.059324052777608 1296800.60645612 4.217870739532423 0.17906135172928894
0.2913423770348039 14.844959267453893 1082019.494972853 4.424919689698681 0.18139518686795225
0.302765980639961 14.653443920992034 906216.6847299311 4.646991453427623 0.18389835766442028
0.31447716973657147 14.481751262957586 761496.4300062682 4.8696168424332065 0.18626546340016864
0.32647838314603583 14.327724760501718 641851.123178424 5.103349254153501 0.1887057361352646
0.3387565623801936 14.189417631911097 542680.8543511085 5.350697991298084 0.19126189007795563
0.35131757671204256 14.065008035592294 460125.6668800398 5.596799895949924 0.1936445983080498
0.3641631843815487 13.953107991289581 391209.19838892703 5.859971044983257 0.19619256746583494
0.37729069106398516 13.852347125700499 333443.3399670079 6.130637791100442 0.19871740449731295
0.39070736423311136 13.761600477732165 284880.63716188015 6.407266608618768 0.20118439899852686
0.404408241051156 13.679947116012837 243976.5864404356 6.702832630091754 0.20382027676520684
0.41838703875513394 13.606470167850638 209407.63490833656 6.999716132744895 0.20631979063870273
0.4326574800576137 13.540404186211 180098.06122542062 7.309920608893914 0.2088773129311375
0.4472106479703725 13.481061237096434 155212.74027980684 7.641102461212814 0.21160778600705965
0.46205223890939334 13.42766197807669 134004.06256451525 7.9674034301716885 0.21411310247496335
0.4771730016005489 13.379899170900808 115927.8963724704 8.314736854804755 0.21677642640647302
0.4925804969816823 13.337243385804122 100461.51338127445 8.678082427337733 0.2195092074108274
0.5082679007420682 13.299108116944911 87205.39286551486 9.034149962128748 0.2219541382443214
0.524259032497464 13.265170853028636 75815.68372527063 9.41308694236895 0.22455610168219603
0.5405282690657319 13.235176210433698 66020.1015618465 9.816720318746997 0.2273276424459817
0.5570655195610547 13.20874938276007 57584.7739607471 10.247049737574766 0.23028249106836193
0.5726560638032288 13.185926952260093 50764.95944811794 10.706031731825151 0.30637098947215874
0.5846490890588328 13.164066453632444 45997.37975645233 11.196196187540526 0.41233673235064683
0.5933307811200803 13.139272414627698 42623.072145679704 11.783811422147421 0.5366914115555742
0.5990926832211997 13.110153316318515 40225.69769939089 12.43413886059556 0.6736581107622182
0.6022567710949065 13.07593564446129 38548.29811856492 13.147676467424585 0.8030053947813202
0.6040374654851359 13.03408170129585 37132.62654577307 13.964334154266666 0.8751618716820998
0.6052782397230279 12.985233870019057 35751.783319156806 14.85124307802877 0.9535254557169252
0.6060994553822194 12.930543942270091 34408.14455466573 15.808201091727328 1.0361565872993235
0.6065807004415756 12.87042465627657 33085.53397452312 16.822145041310023 1.116821367777257
0.6069079568796949 12.805614754787905 31761.355174317527 17.925435435457153 1.2045941460298604
0.6069328715990792 12.73573713558944 30461.35156590149 19.086674426742114 1.2783872314766087
0.6071794017094865 12.66043263539819 29074.354337608886 20.31099528249556 1.3379643028383787
0.6075420562627601 12.579608854963679 27637.25661312964 21.643206779861714 1.4027914754496873
0.6081323310159208 12.494120066541313 26157.221881587942 23.013434294726054 1.4683951478053472
0.609097504760389 12.405196911850195 24637.74201657975 24.453336734329334 1.536659089448299
0.6104052293701252 12.313027508729641 23103.375735273352 26.01777912353828 1.6108273115607246
0.6120228326176724 12.217985172924955 21577.603954685554 27.598195229934575 1.6833380864487295
0.6139810802352313 12.11999591332135 20067.18650728342 29.28971754722847 1.7604775099419643
0.6163574911340078 12.020504062933275 18586.480683582035 31.109011569439655 1.8400595992618478
0.6191840146334259 11.918448044617637 17132.15728963014 32.91337762785421 1.8841598034283655
0.6226113487017939 11.813490100698614 15692.596802377568 34.86528804408739 1.9318661141679232
0.6266530450950935 11.706657270753722 14294.07026101773 36.91628692027255 1.9764893443555775
0.6314242483270003 11.598374706175358 12940.69326362747 38.95801965016641 2.0053129784432957
0.6369481402913522 11.489097092352042 11644.388102950066 41.161019312301946 2.0364132567642796
0.6433302906731133 11.380782767174232 10423.235980237767 43.40953438930626 2.0599932354732866
0.650602949647563 11.273510580050607 9278.634762723563 45.69680347936426 2.0751908430101125
0.658693912008677 11.166754566025546 8215.480089049974 48.15854617606489 2.0915477288368494
0.667680844890394 11.062457194710662 7243.056319994296 50.5953737407497 2.107647120062915
0.6774945387256848 10.96080817160548 6362.746007598695 53.14911431991844 2.124490100344212
0.6881371436920127 10.863103621747094 5574.072949181414 55.865391591306256 2.14239362986584
0.6995285750185386 10.768379609560679 4870.8479400542765 58.532312457300485 2.1598642727094215
0.7116626012601502 10.677580226321222 4248.724847980131 61.38901449423909 2.1785781466883107
0.7244616270100512 10.591248445240952 3703.130305218216 64.32969464290156 2.1977911194126243
0.7379061603890348 10.508781652379898 3225.007715636309 67.32328426703216 2.217283301116315
0.751946443587097 10.430399662803545 2807.782825930618 70.52617791099958 2.2381383255934737
0.7665217394196572 10.3561042992911 2445.2790052310247 73.720249701407 2.2588250741079716
0.7816012423579691 10.28551191173938 2129.910214594031 77.08882732350601 2.2806200071098304
0.7971356232128813 10.218970659259668 1857.237871803 80.60938833847551 2.303354894289228
0.8130703481402122 10.156150950931378 1620.8926711294384 84.1705769242072 2.3262432340806796
0.8293757062638103 10.0969096084677 1416.542237131083 87.97207917371776 2.350676108979072
0.8460110647899344 10.040554546283609 1239.1499187354402 91.8080527250443 2.3751959440339054
0.8629370075232203 9.987115841696141 1085.4102372990903 95.84066792225309 2.400935734858974
0.8800633231927835 9.937466571608768 953.0980353733554 100.04424121636089 2.4276999186129937
0.8974208794038541 9.889744755214016 837.6402318333187 104.34084017185661 2.45492987911126
0.9149365082210569 9.844781445601251 737.7848940440314 108.92191072277868 2.4839626958655034
0.9325895191423467 9.801755437908435 650.6879447125925 113.52515197368228 2.5129093302237453
0.9503126230860273 9.761105162029732 575.1238576314961 118.42199366146717 2.5436956874160237
0.9681230631163991 9.722004875802888 509.06496905515377 123.45507439800762 2.5751802919273317
0.9859323500980244 9.684746959931102 451.51020177069097 128.70993365900136 2.6079593684848916
1.0037356042594665 9.649070311694151 401.22697113965273 134.2003315453995 2.6421086630187642
1.0214972358542949 9.614633164558741 357.1683354478516 139.86040608716647 2.6771410000767233
1.0391853413012282 9.581307962121793 318.50761823033247 145.84085141840748 2.714107518335448
1.0568102154344676 9.548743282665942 284.4404302410971 151.95912030562138 2.7516781645810235
1.0742261704478668 9.517629154432685 254.66840493093665 158.46838757807717 2.7916411047284404
1.091518313962101 9.486836652026602 228.31383154344502 165.1042954527199 2.8320483813523176
1.1086267687654092 9.456644111115864 205.02234963730945 172.17220635701847 2.875086204730522
1.1255000734247391 9.427241199831228 184.5146902020837 179.40964928804237 2.9187749548703996
1.142109502736029 9.398130994567863 166.3402735305001 187.10037301289347 2.965174982193845
1.1584680635604665 9.36910756108922 150.1751572046822 195.0074442325628 3.0125238538008032
1.1745420129164628 9.340240675213801 135.8081254136398 203.40325815502882 3.062763279854283
1.1902531115844373 9.311600729870074 123.06438043928875 212.04807728412 3.114042910417588
1.2056566100880226 9.282712521624754 111.66254836157908 221.231087250692 3.168468920628451
1.2206638429938106 9.253750129235113 101.49729876321446 230.70702708822517 3.2241328802354716
1.2352746642457715 9.224840199072746 92.43466563914642 240.74986735306675 3.2830296628956193
1.2494976191761016 9.195339396290096 84.28674698437837 251.18773452715902 3.343798002883204
1.263261844591419 9.165615392550228 76.99974269338733 262.1936019201937 3.4076264696187715
1.2765573965158337 9.135459419581501 70.44657208220914 273.7254958481756 3.4740985548725294
1.2893438004821562 9.104909134284156 64.57803068515742 285.81688356716944 3.5433864409959437
1.3016789753560796 9.073725776387851 59.26946496337874 298.59616942328205 3.6163752063871835
1.3134617199257659 9.04213043622552 54.50505690624289 311.9146999371804 3.6917239812375993
1.3247187618496108 9.009749537797985 50.195645011736396 326.0153588501753 3.771216809880778
1.3354313454981723 8.976606728737103 46.290898024303665 340.8336269452889 3.8541878269175127
1.3455472967278113 8.942970674312614 42.777322837914845 356.4218327844633 3.940878687335352
1.3550969052233917 8.908427916672359 39.581416670789515 372.92305072450284 4.032231446430619
1.364041056340856 8.873086903477086 36.67512008674959 390.26981071407243 4.127402003163619
1.3723647333376128 8.836895866846044 34.047885873725484 408.5929176437646 4.227280160699456
1.3800677406729456 8.799929807674758 31.655837380489942 428.00589213976264 4.332538168311131
1.3870996817382084 8.762014719251 29.482996840499954 448.4983751315444 4.442770588240255
1.3935175234767874 8.723215812603511 27.49658524720113 470.1647846467895 4.5583118426890055
1.3992306618019672 8.683488219596033 25.66193781945626 493.1556098881363 4.680116914869984
1.4042967496194143 8.642820179196208 24.043078906382448 517.5584346381231 4.808533183586075
1.408643675564315 8.60134042835728 22.541620604077206 543.3873160883991 4.943145369166755
1.4123025966832556 8.558791783919595 21.169160038999113 570.8268386004228 5.08501091296884
1.415268916958086 8.515342340240734 19.910815913705235 600.019338140857 5.234762180279112
1.417530186249639 8.470960159841256 18.740653087048294 631.0965409293168 5.392864544625034
1.4191133218091767 8.425612744090797 17.70738451324264 664.2047704997539 5.559841413137835
1.4199651578580605 8.379321198029155 16.742291744718752 699.4648696285242 5.7358886510690095
1.420090929811822 8.332212841792176 15.861727119973349 737.0864799283255 5.921931940604452
