M[M_sun], R[km], Lambda[1], P_c[MeV/fm^3], rho_c[fm^-3]
0.23848912294887037 16.21570186450063 2784644.0411725277 3.4469561053153734 0.1694538074003404
0.24849276038291077 15.872355925641266 2284720.466507928 3.632972771231234 0.17193787404935118
0.2587897179986821 15.568445957634037 1883161.0679722587 3.8178168803903283 0.17422790178060205
0.26937652438418813 15.298350488490915 1558836.9768809292 4.014324890625341 0.17663712663410705
0.2802481928149555 15.058167572905194 1269413.6265907057 4.218776923886486 0.17907156614904776
0.2914058147025561 14.84383371189758 1080963.3384240111 4.426134018005821 0.18140887465565078
0.3028501116166392 14.652131225829203 905117.4205019359 4.6485552555880565 0.18391598468657616
0.3145707143680684 14.480393280142314 760426.9025783159 4.871408179322761 0.18628416577241894
0.3265902301922668 14.326429263136307 640856.2692211679 5.105541693584443 0.1887286262005632
0.33887909115040293 14.188060628979297 541783.8544600572 5.35312552791595 0.1912853929902408
0.3514619772226114 14.063754735406496 459292.9712717652 5.59968293443903 0.19367251129614874
0.36432867524533763 13.951819713405785 390425.34979211574 5.8633641489809385 0.19622541880370767
0.3774701926820447 13.851072816163708 332741.3174856937 6.134277911591007 0.1987498673380052
0.39090908937666236 13.760300849315142 284216.2827430524 6.411478171407405 0.2012219580002762
0.4046259053287956 13.678733882551949 243376.7644235135 6.707681185475381 0.20386351650999388
0.41862637658263785 13.60531087801629 208866.68154755034 7.004821070389306 0.20636187897988062
0.43291775529077897 13.53913976276575 179603.32346357443 7.3157315988635085 0.20892522241514255
0.44749822580050014 13.479848406032266 154761.3972243113 7.647625376394524 0.21166107084484873
0.4623549795162123 13.426641334491661 133615.08560893938 7.97426567372894 0.2141657215901815
0.4775026679583972 13.378938730935786 115570.26273485462 8.322461492293321 0.216835658286927
0.49292989385877917 13.336318496413895 100138.25348807861 8.687683037925076 0.2195960126544099
0.5086439104510021 13.298277276994918 86917.81905202319 9.053396681202912 0.22220748934263976
0.524626878607525 13.26440865496568 75576.4396640156 9.443011616079431 0.22498963963568544
0.5408934737607635 13.234486027887444 65815.73329864987 9.845289052573623 0.22777527660706262
0.5574410703157313 13.20800856350829 57402.531751228984 10.254311911750051 0.2304758801584028
0.5742705795981836 13.184762943936256 50136.91449885425 10.689833754544551 0.2333514452006728
0.5913714538683518 13.164443521835034 43855.42838011573 11.13385222368656 0.23616798671799463
0.6087553039445334 13.146756683265748 38410.38038578748 11.590913229829596 0.23897524767720973
0.6264040413630512 13.13150759757288 33687.22101170887 12.07735224635451 0.24196294787866168
0.6443124574523699 13.118552400389822 29586.862496048478 12.567973833003176 0.24483689996653224
0.6625040383489966 13.107587107454798 26015.08507347354 13.078652074668673 0.24776934511005377
0.6809521471378022 13.098535107838186 22904.32109217356 13.621933890666794 0.25088900832047656
0.6996548786245803 13.091144585555034 20188.682404621373 14.164377951831312 0.25383351362214107
0.7186137589166626 13.085315208648812 17816.492339718934 14.735150822387116 0.2569028958803963
0.7378248961211502 13.080804065872732 15740.662167989103 15.341376446102402 0.26015893122295264
0.7572734720192602 13.077585623207103 13922.744494363782 15.941979025718254 0.26316280786353863
0.7769767800478102 13.075483481137693 12326.983285135519 16.580004961495195 0.2663538551044516
0.7969168950836161 13.074472750692768 10925.909172572656 17.25089848950988 0.26967737874619585
0.8170906389039614 13.074326831361091 9694.239949357734 17.922641220684586 0.272827741676869
0.8374849520020078 13.074918605483303 8609.994440776298 18.63609448713119 0.2761737201580214
0.8580958475851298 13.076164806060147 7653.966426847724 19.37859246028734 0.2795946559406119
0.8789296623387113 13.07808763828027 6810.838592283311 20.13062338824956 0.28291573177638724
0.8999706613106114 13.080545276923454 6066.710102050817 20.92924737055529 0.2864425691854458
0.921199662135343 13.08335153936767 5408.829484772404 21.75105650845789 0.2899743902488888
0.9426233732963377 13.086514549946763 4826.669764764935 22.594058359487 0.2934873038446788
0.9642384798600955 13.089960836917589 4310.918220552066 23.48924550152378 0.2972176812788427
0.9859965656952614 13.0936653735098 3854.418207442397 24.39878680736254 0.30084701362319843
1.0079501293420663 13.097440987366983 3448.328311612917 25.344819286322366 0.3045439782445264
1.030052258854166 13.101202515565449 3087.814258736509 26.349431629152445 0.30846986490507294
1.0522985675797727 13.105180512237764 2767.7683494663543 27.35723071934768 0.31221901756190984
1.0746936767729696 13.108982569647202 2482.6650375939607 28.42032851173947 0.31615237036571914
1.0972091957596046 13.112745308373544 2228.8883922858768 29.538506763736684 0.32025743110974125
1.1198186172531122 13.116172518934244 2002.6555854756741 30.666347430239448 0.32422150335436495
1.1425334254510755 13.119367886365962 1800.850882954001 31.86333605197477 0.32842861302284737
1.1653470931010943 13.122395128082843 1620.720269861291 33.10103318949697 0.33268508602455327
1.1882378251440753 13.12505554522675 1459.729320788508 34.373404395236285 0.33694308846400606
1.2112030625287136 13.127434368428538 1315.8514154293355 35.72412267422576 0.34146328013527927
1.234190550223181 13.129224210145182 1187.0264957046838 37.094684780705606 0.34585578037790843
1.2572404450462165 13.130672786260469 1071.6355794535707 38.53297973247276 0.35041420456984035
1.2802900527955168 13.131431499079907 968.2388306794032 40.04518924809958 0.35516964036838145
1.303360452353187 13.131727378682681 875.5165930394816 41.58035083573519 0.3598233073045793
1.326431976162457 13.131486406009236 792.2759519689465 43.20987709378258 0.3647630299564604
1.3494676231001557 13.130547907663901 717.5034761104233 44.8855414273323 0.36971462879625105
1.3724760976770711 13.128862791504325 650.2509330122747 46.62879092336499 0.3747813442616052
1.3954172784509375 13.126565983304115 589.8106725598628 48.4699198476249 0.38010969205867773
1.4182995305606767 13.123452477416816 535.335551212323 50.33974349732384 0.38532929956066453
1.4410867197775203 13.119554468602837 486.30544277762596 52.324969389728416 0.3908710521012327
1.4637798924669303 13.114946660755523 442.127687497341 54.36774905131028 0.39641332072793967
1.4863184460720251 13.109173196451465 402.2217132233429 56.50180014214191 0.40211626228061864
1.5087417945333101 13.102738813945203 366.23233216049437 58.74170848305214 0.4080479388649194
1.5309988726961385 13.095287571346656 333.71207302438313 61.04142141659491 0.41397897476108253
1.5530776342559267 13.086900106648628 304.31715246283403 63.484429630604176 0.42027957393612336
1.5749568375188967 13.077498024289392 277.7197492522526 65.97716077773471 0.4265118065815429
1.5966339948907864 13.067111495980559 253.6429264715686 68.61672063946517 0.43309426966758824
1.61806823620781 13.055673720185977 231.8382493623904 71.34675115171481 0.4397599379414376
1.6392427666192477 13.043102134321918 212.07344113643708 74.20620981585735 0.4466617727419536
1.6601495273236058 13.029387664801854 194.13762849831429 77.19289404768033 0.4537637580600981
1.6807506720545244 13.014553370643622 177.87626631410936 80.29825563551607 0.4610072400983282
1.7010469544039803 12.99857774862594 163.10182383017897 83.56442692121158 0.46856502628554075
1.7210061562947776 12.98136335354794 149.66980047641545 86.9453061620003 0.4762316884057603
1.7406126204397832 12.962976209819937 137.46002756684095 90.515942968925 0.48428689511605855
1.7598323252332266 12.943286755195166 126.34821465577514 94.20640251975998 0.492434945050787
1.7786821152667127 12.922443297310053 116.23671426583257 98.11053544606918 0.5010173499739369
1.797103716676189 12.900243794006643 107.01598915196027 102.14926303798825 0.509702193750816
1.8150844131621138 12.876711765888954 98.6121675672091 106.42054200283346 0.518839148072377
1.832605813849885 12.851852745457377 90.95030303487982 110.85143676437727 0.5281143005902094
1.8496513898269513 12.825622003520976 83.95273493402253 115.52897260088645 0.5378441649194002
1.8662173797995087 12.79809823467536 77.56349946863847 120.40249825726924 0.5478175763073573
1.882256228386657 12.769121875821213 71.72216309058079 125.53097203445395 0.558217881036728
1.8977527418127778 12.738724741559992 66.3801463079532 130.9054578081486 0.5689822625598948
1.9127111194407975 12.70696721006235 61.49020213175883 136.53707057018084 0.5801105176988425
1.9270816510747957 12.673704556407943 57.01415351676626 142.4796036268913 0.5917572798549143
1.9408575138792261 12.639035623035188 52.914821186355546 148.67519958618806 0.6036721203954194
1.9540188357470853 12.602844048498044 49.157255223579035 155.23401072618958 0.6162098836145753
1.9665632443026237 12.565313355666044 45.71029491088294 162.09397490862608 0.6291245425948269
1.9784349884532235 12.52614295497227 42.545926879965045 169.32644586580324 0.6426117677571901
1.9896658560060334 12.485536562700785 39.63963362939095 176.96654120132075 0.6567411889836202
2.0001927349070128 12.44343073826352 36.97162093952233 184.96276360837678 0.6712770161892859
2.010029268780847 12.399833217785988 34.51933091172782 193.4267035339747 0.6865387473422385
2.0191460643096284 12.354713867671174 32.262427733714155 202.36111393133626 0.7024729696795955
2.027525540819191 12.308085435912844 30.186995339235157 211.75324630068607 0.7189920910795969
2.035170998635985 12.259928086546935 28.273373344011976 221.70015050704146 0.7363426059735458
2.042025112160832 12.210238951626906 26.51433590694937 232.23352198121728 0.754554680634987
2.0481331595324117 12.159055996127954 24.891179593994494 243.25299087648247 0.7732283419497883
2.0534459309835316 12.106461849358926 23.397326913721002 255.05362857201231 0.7932257768279508
2.053675075349584 12.067920068034898 22.631652200441636 271.27710598443656 3.029470163870975
