M[M_sun], R[km], Lambda[1], P_c[MeV/fm^3], rho_c[fm^-3]
0.23848912294887037 16.21570186450063 2784644.0411725277 3.4469561053153734 0.1694538074003404
0.24848347302060883 15.872537006164688 2285017.277729402 3.632758153372389 0.1719350080423576
0.25876954703261795 15.568801230267233 1883692.4301345812 3.817395367762638 0.174222733957176
0.26934202566090226 15.29926108844955 1559830.010636258 4.013645575826715 0.17662879810798615
0.2801965785856012 15.059295590596404 1296763.5795504586 4.217886430786568 0.1790615285995424
0.2913440789805082 14.844918474705754 1082019.3938975772 4.424940715825691 0.18139542387236113
0.30276900619874486 14.653381116253914 906182.0276694975 4.647018529552417 0.18389866286380144
0.3144773399707538 14.481797772212534 761526.0475771403 4.869647857310085 0.18626578720959616
0.32648008458469785 14.327707331688826 641845.0906877491 5.10338721203831 0.1887061324328542
0.33875847107012863 14.18940144006356 534083.8134146759 5.350740018437652 0.19126229697611222
0.35131983972773906 14.064958521863366 460113.8978385393 5.596849806936863 0.19364508153600174
0.3641678917673637 13.95300457299852 391167.2637348575 5.860029783643492 0.1961931361615115
0.3772941225730082 13.852308851469656 333430.3188119322 6.130700804696259 0.19871796645682166
0.39070921177578655 13.761600217096996 284883.1189165764 6.4073395112173275 0.20118504914883073
0.4044110260971 13.67993514082328 243957.06959440152 6.702916555368693 0.2038210252165019
0.4183908010715247 13.60645232790403 209394.17379762285 6.999804494508379 0.20632051914907987
0.43266340817086935 13.540335625510028 180087.11171052544 7.310021187321184 0.20887814216343317
0.44722016420497074 13.480951093731207 155197.16038825398 7.641216606152071 0.21160872709027786
0.46205902080751876 13.42761311100965 134000.60042886372 7.967522197299438 0.2141140131714618
0.4771778761965257 13.379878615054647 115924.25864268238 8.314870541617113 0.21677745150587732
0.4925857344945913 13.337292811801724 100460.80291316108 8.679807788295962 0.2195397773150988
0.5082722245099243 13.29917665266196 87211.32235097949 9.044591639343432 0.2221446145716883
0.524232443726075 13.26519136109354 75830.04763544931 9.433180485445654 0.22491943780170698
0.5404706075853828 13.235188439395666 66045.76003270243 9.83515829667176 0.22770838754511286
0.5569927695523113 13.20871876872295 57611.33122650577 10.24306137941539 0.23040159769008642
0.573798881567348 13.185326479021578 50324.1033492695 10.67735027972434 0.23326902213879208
0.5908735276853865 13.164933768429053 44021.703536757246 11.121053233369931 0.23608937553622605
0.6082157846373909 13.147209822371526 38564.931309535634 11.576774589859319 0.23888840838995595
0.6258476241677942 13.131962608211934 33547.200646695805 12.061741461424136 0.24186706670199437
0.6437319299685234 13.118930438064952 29710.594917178336 12.552021666078963 0.24474529854197774
0.6618890269893721 13.107917590504426 26126.752159922304 13.061104807102023 0.24766858420943252
0.6803075654878717 13.098774915298998 23003.983919474005 13.602636703876158 0.25077819893587605
0.698984609738693 13.091462655084271 20280.03360972422 14.144702862178725 0.25372770906445347
0.7179165954572297 13.085477134889564 17898.23302487129 14.713583009426692 0.25678691303351425
0.7370918841005898 13.08096908532807 15814.832427429084 15.318523869569296 0.26004003671755915
0.7565098226529382 13.07771898945966 13989.42838850418 15.91792289535539 0.2630424926159649
0.7761846273533335 13.075594904555446 12387.359429657608 16.553710123972134 0.2662223431015327
0.7960879572105508 13.07450352941957 10980.13358651584 17.224111022756283 0.26955174993273684
0.8162285420498938 13.074257284081684 9743.40893747567 17.893435246364593 0.2726907704606848
0.8365934875752159 13.074847625030102 8653.907703427923 18.604247164741935 0.2760243614538031
0.8571830770416289 13.076155064047104 7693.907734506722 19.346172783655195 0.27945148602477027
0.8779727248141856 13.077974060468758 6805.5171266344105 20.095350998089124 0.2827599638707383
0.8989837170046399 13.080335778523258 6099.118396013668 20.890862199276288 0.28627305479441906
0.920177960912231 13.08317318430782 5438.467332850927 21.711992376164684 0.2898116042226505
0.9415729729669403 13.086396922518592 4853.584203117549 22.55163128642557 0.2933105039460723
0.9631472015202759 13.089824775368475 4335.21304156177 23.4431515523689 0.2970256009643426
0.9848767826698505 13.09343892110568 3876.238059024156 24.35189483842041 0.3006637662674691
1.0068150420059214 13.097371175735265 3468.3082774896834 25.293965225324673 0.3043452475787822
1.028862962710474 13.10109352504165 3106.262359111374 26.294259893644863 0.30825426136206024
1.051082485404283 13.104935219319318 2784.229932924868 27.301107583456528 0.3120113677149288
1.0734516546721384 13.108821912361625 2497.5461325813853 28.3595376419832 0.3159274503821456
1.0959137802156236 13.112439920472513 2242.485363040966 29.476518068572194 0.32003955665878364
1.118500333462181 13.115919147189752 2015.0237371154712 30.599299611179323 0.3239858473734338
1.1411993163842578 13.119208024855702 1812.1200659687672 31.7907837433751 0.3281736101653115
1.1639756430168313 13.12218746691291 1630.927856853353 33.02700409645484 0.3324373469548997
1.1868327003775856 13.124876977564629 1469.0639873927016 34.293399396972745 0.33667535097023227
1.2097640748490295 13.127225048263506 1324.3048406341204 35.63761679733224 0.3411737873888401
1.2327164270755868 13.129108546293631 1194.8340905650277 37.0063767438061 0.3455759035061652
1.2557369255826456 13.13047360945335 1078.737119918407 38.437603913825306 0.3501119276004929
1.2787770757754093 13.131419299372665 974.7333838375387 39.947611000473565 0.35487384306057573
1.3018192370540966 13.131735331397826 881.4072235032983 41.475068893032436 0.3595041571254186
1.3248655583715692 13.131452378165399 797.6101533991117 43.09622157169941 0.36441849622822314
1.3478781658144152 13.130554307873632 722.385053827466 44.76914414845029 0.36937632272223303
1.3708701289221905 13.129075869762067 654.7440401222794 46.503245076397796 0.3744164480801422
1.3937883383126457 13.12674888607432 593.9049060728703 48.34103487640862 0.37974991002107106
1.4166443905793575 13.12371927608439 539.0954120540605 50.200832354584044 0.38494152949321947
1.4394191009789348 13.119868005130687 489.733271621522 52.175163911686795 0.39045287052718386
1.4620767527833427 13.115198705517923 445.26531283951846 54.213825121025494 0.3960019813829052
1.484614575875298 13.10962183169764 405.11922575742875 56.33590909966204 0.4016729425665592
1.50701671099383 13.103217806807667 368.8626732091969 58.57088654241852 0.40760738341690117
1.5292702362934583 13.095902022954446 336.13976221381864 60.857415378498175 0.413504417088625
1.5513486006507597 13.087608011498125 306.52011767140544 63.28609631761482 0.41976806574673703
1.5732265735330797 13.078308416670943 279.74390775048687 65.77268241065617 0.42600188395288663
1.59488444920367 13.067944064484115 255.49357106168304 68.39641055954503 0.43254486634107786
1.61631110253943 13.05666115090042 233.5565669760155 71.11910851708421 0.43921048014459063
1.6374728531641323 13.044100953431759 213.64420328784206 73.96101626419316 0.4460699525457189
1.6583945225452033 13.030596082550437 195.592943162555 76.93903042711494 0.4531716026786029
1.6790014005920892 13.015886404503503 179.21083309084173 80.02487626532277 0.4603695628096754
1.6992831817631044 12.999991882465306 164.332147095818 83.28081965932068 0.4679219033293801
1.7192527572848326 12.982929634119648 150.80807265075498 86.6399312655519 0.4755392040002774
1.738882349935235 12.964720936770316 138.50342176057077 90.19850220651522 0.48358602760950425
1.7581169004679378 12.945125282636567 127.3084934294839 93.86460315645718 0.4916802969530401
1.776982841686871 12.924411262649734 117.11747412103357 97.75455092050501 0.5002518440265445
1.7954115482847286 12.90230491488938 107.83299847512755 101.7659333396977 0.5088778849879887
1.8134161538430529 12.878924563697778 99.36886925162005 106.02059180212633 0.518001935881446
1.830975316524796 12.854290502951343 91.64601014590764 110.42069378514967 0.5272126301504155
1.8480539460023955 12.828230182355275 84.59698565014413 115.07875643271356 0.5369228214454376
1.8646498164924543 12.800835165059848 78.1518949732608 119.91749743287637 0.5468250478821025
1.8807138946240343 12.772025276147708 72.26838936492265 125.02313528095026 0.5572007514365426
1.8962519580439399 12.741781928705521 66.88450941590969 130.35819810136562 0.5678861740178242
1.9112409731528175 12.710229959475981 61.96074406214743 135.96305325804823 0.5789855019784289
1.9256698527425893 12.677263188590434 57.45184442683425 141.86076100168546 0.5905444110666335
1.9394758852378111 12.642644200120666 53.31886210662966 148.02501947275687 0.6024251096241059
1.9527018764723947 12.606743502724754 49.53084911971428 154.5496021253216 0.6149214069624681
1.96528032348714 12.569277450325178 46.05545186791833 161.355911869673 0.6277350553904459
1.977226610321899 12.53036460725382 42.86482402396845 168.54825295719453 0.6411725952183296
1.9885038124279915 12.489987407204952 39.93975353499847 176.12678492053186 0.6551881625228578
1.9991066562973807 12.448102613342217 37.2476951192481 184.07591650882515 0.6696667254448662
2.0089951671480004 12.404686626158941 34.77663555012248 192.4885757521374 0.684865627797488
2.0181845324035996 12.359788854765979 32.50282860513089 201.34806065979598 0.7006662230281234
2.0266584061269755 12.313394455433667 30.406413982005184 210.67991595714085 0.717107803121817
2.034335750605616 12.265379872701248 28.481156041209516 220.56118204039836 0.7343733132443739
2.0412899975431564 12.215960339939215 26.70760820824363 231.0025921310582 0.7524266602649834
2.047501887384744 12.165185664403966 25.072191224685525 242.01118257942784 0.7711911426305903
2.0528670354601704 12.112630134045201 23.564515915355372 253.68166076697435 0.7908934374102782
2.0574645871945463 12.058671630313707 22.1730029206061 266.06789510093694 0.8116185839930015
2.060201857939142 12.006653046820276 21.02431610899322 280.7089675980121 1.361651718831717
