M[M_sun], R[km], Lambda[1], P_c[MeV/fm^3], rho_c[fm^-3]
0.23848912294887037 16.21570186450063 2784644.0411725277 3.4469561053153734 0.1694538074003404
0.24847715688232944 15.872768668815635 2285301.948238086 3.6326963261683014 0.1719341824018435
0.25876286999736847 15.569054359301724 1884112.442548016 3.8172739441203682 0.1742212452806767
0.269329208992793 15.299644301295091 1560131.615869288 4.013449898474163 0.17662639906715077
0.2801841197382449 15.05951327243016 1297100.6359348206 4.217629934186483 0.17905863739542016
0.2913247824696347 14.845361406566084 1082405.875412773 4.424597016729612 0.18139154973039176
0.30274365086249605 14.653726615099533 906515.9548573612 4.646575940548595 0.18389367404464405
0.314452729676854 14.482001620196993 761732.9785959058 4.869140888834945 0.18626049422802662
0.3264467407163158 14.328113689148482 642103.9683121607 5.102766760417966 0.18869965463560978
0.3387168609079227 14.189658717856252 542937.8433534265 5.350053056062583 0.19125564594711203
0.3512777394035218 14.065321725093854 460371.46822392225 5.596033986985943 0.19363718293434695
0.36412353360503413 13.953397564926647 391408.13075689354 5.859069682242588 0.19618384065641212
0.377247150850044 13.85262612533682 333613.2144830202 6.12967083352485 0.19870878110426488
0.39065261672121976 13.761968688401645 285067.46474705136 6.406147916035201 0.2011744224224168
0.4043486269477304 13.680325686785862 244136.1451341277 6.7015448106617255 0.2038087919044431
0.41832187510934316 13.606823169251996 209550.99702569074 6.998360241999532 0.20630861181610669
0.43258980322629076 13.540697472689457 180232.74872085894 7.308377275946434 0.2088645887162363
0.44714051942994204 13.48120690701435 155315.22784552976 7.63935097888494 0.2115933456767525
0.46197089834820126 13.427970702922476 134119.89707078142 7.9655810291060325 0.21409912845453585
0.4770905160113388 13.380234492889985 116023.92230842439 8.312685548038344 0.21676069715609173
0.49248375000166117 13.337506695325898 100554.35039050815 8.67754098845347 0.21952359062079752
0.5081621769044058 13.29937618896528 87294.74089331759 9.0420573567315 0.22212651784468865
0.5241186724532634 13.265416248596503 75905.04457454866 9.430351040991836 0.22489923339214335
0.540348141110918 13.23540238907725 66116.2513775625 9.832242641076373 0.22768913671431273
0.5568654287645848 13.208878699989933 57672.06920807423 10.239823641918669 0.23038022028981212
0.5736660688548912 13.185525718304673 50377.05780758145 10.673757938788638 0.23324530344319613
0.5907310949209157 13.165111202288188 44070.77854143774 11.11737011098256 0.236066753860898
0.6080751238948398 13.147390003947445 38608.1725448169 11.572706208284576 0.2388634204592236
0.625691173491151 13.132062930281464 33865.74228098664 12.057249751714698 0.24183947869702796
0.6435631166257909 13.11902855734943 29746.722135364736 12.547431732226789 0.2447189419672586
0.6617135666941036 13.10803846736034 26160.029018914167 13.056056227162758 0.2476395939715162
0.6801226019185835 13.09885110526011 23033.334863435208 13.59708500348242 0.25074631965156424
0.6987855502658076 13.091395800562589 20305.926925672487 14.139042428066412 0.25369726957278416
0.7177143118478861 13.085565051958305 17921.629386680313 14.707378442191544 0.25675354741721723
0.736883872385281 13.081046106528088 15836.193794208706 15.311723258116158 0.2600034658200685
0.7562929419866055 13.077739845485558 14008.255524033979 15.91100291243578 0.2630078827495558
0.7759547099428686 13.075490011454994 12403.458775217376 16.546146647469495 0.26618451484178324
0.7958509509749763 13.074533427412526 10996.459826329245 17.216405800488744 0.2695156137075457
0.8159785832718891 13.074266334932352 9757.115423130685 17.885034903725245 0.27265137423527325
0.8363374476092842 13.074754697835619 8666.344020384697 18.595087717409946 0.2759814051522296
0.8569144429262592 13.07607346775793 7705.4736264621815 19.336848652549005 0.27941030933195754
0.8776959578035862 13.07799643789046 6858.204337036949 20.085207081642643 0.28271516688894155
0.8987013284024467 13.080461589471787 6109.052446249919 20.879823838332232 0.28622430781815145
0.9198862788945792 13.0831764236105 5446.99352189968 21.700758665398173 0.2897647916857211
0.9412712921717645 13.086311487992656 4861.187397529015 22.53943132460951 0.29325966489787864
0.9628377484592902 13.089743102759357 4342.260562437901 23.42989810372744 0.2969703718804837
0.9845610182116005 13.093414422924914 3882.526073678265 24.33841179100177 0.3006110763753111
1.0064716640883016 13.097174160344505 3474.0775490056367 25.279343965295652 0.3042881097085201
1.028522201486677 13.101007242682707 3111.3675532790794 26.27839838122666 0.3081922767562935
1.0507310932405114 13.104753786630079 2774.306021625113 27.284972358335285 0.3119516690367593
1.0730804064015238 13.108684847358221 2501.9732055306013 28.342061715636547 0.3158627912469402
1.095549895806616 13.112358386474243 2246.3998184229367 29.45869760691621 0.31997692228184105
1.1181234764047283 13.115867494017529 2018.5992160375438 30.580026147154822 0.3239181060638087
1.1408141448321678 13.119155240328888 1815.379559204203 31.769929510010044 0.32810031285468905
1.1635832735818372 13.12214987583765 1633.9137152246806 33.00572515301609 0.3323661367666602
1.1864298664839845 13.12481072543376 1471.6543221644238 34.270404445586 0.33659839814494186
1.2093554737257346 13.127191576903083 1326.7629385188086 35.61275526367099 0.34109058802807124
1.2323048003629453 13.129076061702538 1197.0314335805485 36.98099699759637 0.345495466841234
1.2553061890475006 13.130478629163585 1080.7867772038676 38.410194983704706 0.35002505979220144
1.278342810241711 13.131390233482449 976.5724125576025 39.91956887784791 0.35478883657009624
1.301381040625674 13.131734607041968 883.0922674902841 41.444815206039046 0.3594124465302649
1.3244196468624079 13.131520468387098 799.164553294643 43.063564242211534 0.3643194992655019
1.3474190311607568 13.130594264417923 723.8484320590975 44.73569872956191 0.36927911436421396
1.3704038065148272 13.129052690129045 656.024095488202 46.46717379234977 0.37431160770407595
1.3933177433244337 13.12678966937629 595.0793701000981 48.30400398466351 0.3796465383900677
1.416166381212346 13.123807176597161 540.2198377517433 50.16092397534408 0.3848301253639014
1.438933330792569 13.119976829900676 490.75857378271405 52.13212919569146 0.39033273923753453
1.4616054946905268 13.115455730899576 446.19464662148096 54.16960707023377 0.39588381506518117
1.4841303388913012 13.109845144190324 405.9481065336652 56.28825719732515 0.40154559977937443
1.506528395430295 13.103386662824825 369.62925421686214 58.52181812010149 0.4074808343290191
1.5287804216158198 13.096155094551781 336.84121280364724 60.80456429022739 0.4133681123798445
1.5508458324298298 13.087810554353556 307.16883088714434 63.229134999931965 0.4196211606200396
1.572715663266676 13.078511047899013 280.33703716104174 65.71395619814069 0.42585543411036897
1.5943757478662155 13.068202167219646 256.0427467448928 68.33314301521666 0.43238709144795107
1.6157955410762457 13.056919980651784 234.06292988716424 71.05373541003037 0.43905269000377134
1.6369732199111091 13.044454528596589 214.10895478091118 73.89060924272965 0.44590001211712266
1.6578743746980824 13.030910023135649 196.01605269041337 76.86613420313569 0.45300156692781723
1.6784946363451438 13.016262531450714 179.59531432996053 79.9463832415689 0.46018647211585256
1.6987873509118183 13.000402204322613 164.68829526341204 83.19939068933539 0.4677372506531937
1.7187670898204441 12.983396205006404 151.12602620255342 86.55226046525293 0.4753403970166998
1.7383918352090026 12.965219592136231 138.80718000738239 90.1073684897111 0.4833848163335022
1.7576244634084284 12.945640533526976 127.58813537887939 93.76648556143365 0.49146366619128407
1.7764847107730397 12.924957428915267 117.37788140596477 97.6523629004002 0.5000320998199151
1.7949337129904632 12.902950988649321 108.06938323002055 101.65590622485769 0.5086412836619874
1.8129391935145729 12.879609523694743 99.58757880212646 105.90579629461632 0.5177616354685908
1.8305050301385328 12.854972818372277 91.84406798045167 110.29707210678933 0.5269538539927748
1.8475853500378168 12.828959040486685 84.77985124259493 114.94954895780477 0.5366584052111706
1.8641760562682406 12.801598537478782 78.33001479625474 119.77832107521341 0.5465402308587978
1.880265876881584 12.77286534404026 72.42895451407819 124.87740979118517 0.556908882626105
1.8958130589442541 12.74269602897996 67.02946775728715 130.20117620960758 0.5675716800138312
1.910812769072742 12.711127750199005 62.094891953487576 135.79835902696286 0.5786627179872212
1.9252513835977396 12.678145288587842 57.574372433288886 141.68322445575532 0.5901964574406753
1.9390858775868722 12.643711399828947 53.43485153398485 147.83849915858946 0.6020673736121445
1.952304251054441 12.607802309181624 49.63900131109241 154.35327009654546 0.6145517896975505
1.964924828049586 12.570465520807804 46.156230930117374 161.14421138842087 0.6273365052743497
1.9768811799153396 12.53159385691803 42.95791939757788 168.3250515196077 0.640759811477877
1.9881602531461662 12.491220087283242 40.02561111767653 175.8859528915241 0.6547427731614388
1.9987709202485882 12.449376373765558 37.32790165791054 183.82159147492737 0.6692049353027245
2.008716676403691 12.406087781836588 34.849559290717494 192.21955852760325 0.6843858445686394
2.0178814020322466 12.36118067629423 32.57153991276611 201.0575916819033 0.7001481813141214
2.0263812493210365 12.31489871112817 30.473098341026553 210.3721811985687 0.7165675585426388
2.034102311290198 12.266994000287772 28.542124572954005 220.23464773153748 0.7338087307654927
2.0410956782746696 12.21767641394556 26.76227536194859 230.6496829422741 0.7518164752424086
2.0472902092302556 12.166796007536403 25.122829956450413 241.63612405367257 0.7705529913799463
2.0526911067482083 12.114373299658446 23.611905761941333 253.28249168848416 0.7902246298872795
2.057304741692936 12.06047305752316 22.217897840771066 265.63094922443946 0.8108772720287358
2.0611417065260595 12.005233695406186 20.93285998233796 278.6939387013497 0.8324634201425183
2.064120595544138 11.948346906441564 19.74642814309127 292.53924998104526 0.8550896914033034
2.066281480842369 11.890057224040008 18.65188083389149 307.24756835400785 0.8788767334048408
2.067616438387718 11.830399439654917 17.640701818169926 322.88114088482655 0.9038888418564853
2.068095550996445 11.76929867547677 16.707908141118768 339.50846067710063 0.9302081191460484
