M[M_sun], R[km], Lambda[1], P_c[MeV/fm^3], rho_c[fm^-3]
0.23848912294887037 16.21570186450063 2784644.0411725277 3.4469561053153734 0.1694538074003404
0.24848278779750096 15.87249198197185 2285123.4475239576 3.63274973813023 0.1719348956652096
0.25877051107045335 15.56876336449342 1883743.61760266 3.817378840750745 0.17422253133292798
0.2693409431798783 15.299235822416845 1559765.2836986796 4.013618941843261 0.1766284715703819
0.28019534359594345 15.059298402104876 1296785.720022028 4.217851518303662 0.1790611350695133
0.29134046860218005 14.844975954710767 1082047.9803177593 4.424893933481941 0.18139489654644317
0.3027662204224431 14.653422780508297 906262.2406133413 4.646958286245898 0.1838979838072522
0.314473869115252 14.481830030431066 761534.9042729647 4.869578850476825 0.1862650667468563
0.32647515194586524 14.327796786872534 641868.5661014934 5.103302757373377 0.18870525068772237
0.33875360342163785 14.189458097055306 534110.4051080024 5.350646509903625 0.19126139164563977
0.3513155482694357 14.064986337479858 460170.6956518848 5.596738757290886 0.19364400637607646
0.3641634583035369 13.953109218414786 391199.0545030094 5.859899092953694 0.19619187084102313
0.3772877476401125 13.852385916495669 333457.84914233856 6.130560602538917 0.19871671612450154
0.39070190057609916 13.761665166668987 281091.3940155847 6.407177306665706 0.20118360259767054
0.4044027940509097 13.679988420906565 243988.29691264214 6.702729826100831 0.20381935995226383
0.41838255476994607 13.606492433253715 209413.0994896283 6.999607894357797 0.20631889825284377
0.432653784099605 13.540420419348438 180107.69607438936 7.3097974059673065 0.2088762971681311
0.4472084419736687 13.480989299582788 155219.63725502833 7.640962640320039 0.21160663323500858
0.46204528467885403 13.42771373221662 134013.42854945295 7.967257947431025 0.21411198692535782
0.47716485399961484 13.379926326149862 115928.38649429024 8.314573096619306 0.2167751707222706
0.4925717065357759 13.337308954625415 100474.19777282268 8.679499206236557 0.2195375738018601
0.5082508000054727 13.299163850201223 87217.56301611388 9.044246640678065 0.2221421510158745
0.5242152417694105 13.265233791806587 75837.92778856464 9.4327953011713 0.22491668728973774
0.5404509988192115 13.235267562680136 66060.9762914911 9.83476137552076 0.227705766843981
0.556975717280813 13.208720936708954 57618.402396810605 10.24262060676566 0.23039868745620465
0.5737786168147581 13.185372797451016 50330.96226250079 10.676861227015069 0.23326579313226145
0.5908540783620884 13.16495572905982 44029.90132528996 11.120551821530398 0.23608629587319926
0.6081946791506878 13.147202220140159 38570.349295416745 11.576220723216354 0.23888500655041484
0.6258250645310213 13.132001393483236 33831.71158883033 12.061129955813803 0.2418633108448918
0.6437093664647283 13.118920092881353 29715.406174438183 12.551396788085968 0.24474171033263897
0.6618666785135395 13.107927138367575 26131.75931717609 13.060417480339447 0.24766463740327851
0.6802822023840838 13.098794303329006 23008.290114638356 13.601880871675712 0.2507738587539676
0.6989578018388555 13.091384601877529 20283.59665284127 14.143932226848545 0.25372356490390896
0.7178889060860538 13.085482560038157 17901.641111676545 14.712738283144724 0.25678237044223723
0.7370588181822282 13.081048971728901 15705.434572130376 15.317597982647152 0.26003505767766677
0.7564808250814128 13.07768687976448 13991.73749220287 15.916980757228805 0.2630377805704181
0.7761518365797858 13.075598977114655 12389.906314847376 16.55268036287819 0.2662171928151362
0.7960561828747561 13.074511797465513 10982.738031524868 17.22306196428591 0.2695468300210448
0.8161947391344182 13.074248196959289 9744.653714457363 17.892291533585883 0.272685406635854
0.8365615107285624 13.074820972179204 8655.298777233 18.603000083253217 0.27601851284672296
0.8571419586817389 13.076092859697763 7695.516971225858 19.34490328195189 0.27944587972418666
0.8779359171604928 13.077984438136507 6848.736057443018 20.0939698629886 0.282753864581151
0.8989441581397982 13.080421480881075 6100.839348104608 20.8893592621349 0.28626641760964733
0.9201370033919419 13.083230713146866 5439.8308190133575 21.710462843692405 0.28980523043425316
0.9415292690752471 13.086393106894262 4854.6586742572945 22.549970171578806 0.29330358183442773
0.9631045835667362 13.08980522584051 4336.296373558311 23.441346973116975 0.2970180810152689
0.9848325508344922 13.093397892158265 3876.941366913707 24.35005900094292 0.3006565920674752
1.0067483648376772 13.097178842300941 3469.0429512662577 25.29197438309414 0.3043374676415637
1.028824944544299 13.10106615269948 3106.7658092932575 26.29210014771713 0.30824582137245793
1.051035509463724 13.104979819372048 2785.0358386052744 27.298910573106394 0.3120032390019519
1.0733904330765631 13.10869637499905 2498.1851546849025 28.357158045538387 0.31591864611934384
1.0958630869839983 13.1124463255999 2243.1134221580573 29.474091563705734 0.32003102811314926
1.1184541769217178 13.115872948528777 2015.450642177184 30.59667522319132 0.3239766233191047
1.1411447352868436 13.119179950548034 1812.491201942042 31.78794406800989 0.32816362943076866
1.1639238043045987 13.12217798832915 1631.3030238996441 33.0241065952235 0.3324276504392479
1.1867757003980293 13.124894731412 1469.4872893758177 34.290268186289495 0.3366648723436589
1.2097081766693025 13.127245979588698 1324.5981114442086 35.63423136534811 0.34116245800824574
1.2326650172245823 13.129047275389928 1195.0831660398399 37.00292075333496 0.3455649503490597
1.2556813764908379 13.130434836020145 1078.9697448977408 38.433871551819955 0.35010009853216634
1.278711649368789 13.131432718689457 975.0388254964876 39.943792421513656 0.3548622674747924
1.3017583505411014 13.131749013729266 881.6490676047098 41.47094909756261 0.3594916684362043
1.324806607367174 13.131495108237617 797.8485065530224 43.09177439247885 0.3644050151125772
1.3478135945587508 13.130574881540793 722.5886877191862 44.76458965699358 0.3693630851952164
1.3707933566238995 13.128967803389054 654.9206358575158 46.4983329274918 0.3744021710297907
1.39372563725113 13.126740423938783 594.051535081805 48.33599205507397 0.37973583299938307
1.4165811190511894 13.123694662313348 539.2543771147562 50.195397596303216 0.3849263583806396
1.43935313099236 13.119853021573443 489.8700602916991 52.169303312998615 0.3904365106822948
1.4620077814494001 13.115212948238511 445.3806359208359 54.20780337810482 0.3959858891496548
1.4845706697840135 13.109832441655366 405.2370135378359 56.32941962063539 0.401655600376508
1.5069615869009492 13.103363009523413 368.9896253474823 58.55939461439822 0.40757087108568146
1.5292025595643195 13.09590837389872 336.2229813097374 60.817500773097215 0.4133555967964936
1.5512847831314107 13.087624285427207 306.59015404648693 63.21487480189233 0.4194970933463256
1.5731770291845568 13.078304427202987 279.81418677472385 65.76223245613522 0.4260228119270778
1.5923688047183855 13.067514514577345 257.89880760603427 68.60598265265205 0.7039465021587493
1.6010163205465773 13.04947391663769 246.23040546808863 72.04938504753966 1.0979860527562395
1.6025740886715456 13.021550461612442 239.7658936444782 76.19228662137255 1.453294395029292
1.5987787913025233 12.985479361818669 236.85966911428503 80.78528085359713 1.8213028375722156
1.5908187674109042 12.940782023575501 236.23456986917355 86.39973415573608 2.133920494617449
1.5799271291250174 12.888705125265641 237.01958625684048 92.54517738016311 2.476556324128338
1.5666588734137603 12.830578409094379 238.97722728019218 99.67751840306609 2.9081501122474105
1.5514290153545103 12.767743270965802 242.02018279014675 107.53368747324193 3.3835443423063962
1.533778419387306 12.69587771563696 245.9126385253941 115.96819638369458 3.4625603094675292
1.5143539849174086 12.612032039379024 249.55615788008294 125.25663388779495 3.5240134534810874
1.4942851372461519 12.518229435544749 252.21946585759827 134.4983059815259 3.5610637974593824
1.4741081083229717 12.415634894836376 253.56425904448838 144.5399724922354 3.598625066091533
1.454467130720637 12.305661398421991 253.15564913619627 154.53590307526738 3.635519270929122
1.435515513838424 12.189304984736893 251.01480537485108 165.36360303953347 3.6754417204207135
1.4176308259464958 12.067701131734568 246.96662400166113 176.19495744945084 3.7151356737931525
1.4007841037651845 11.941466186051137 241.20600796186864 187.82130063467554 3.757697678601662
1.385281830903634 11.811812221584168 233.709199686985 199.65781714094211 3.800815636534831
1.3712047077052405 11.67966694626548 224.68748536701167 212.16270751863703 3.8462547755542422
1.3584520153764637 11.545283043550892 214.40607696595984 225.13305391402153 3.893191619903021
1.347141628470658 11.40992425019636 203.15261553976708 238.61326822483574 3.9417879776397218
1.33728811928192 11.274052827170333 191.127101605985 252.86435015826564 3.9930498775833474
1.328713772570007 11.13803811509316 178.72029172940026 267.429510096884 4.045119996741838
1.3215535619298602 11.00312027774418 166.11813122682696 282.8637261830832 4.100173201265462
1.3156318557708997 10.869169547743844 153.5715792923394 298.91101435556345 4.157161164930791
1.3109145755423712 10.736989793783602 141.3044645284406 315.62756365669753 4.216271594248945
1.307327675048793 10.607023208717049 129.48315826338916 333.2680895605486 4.278469761007959
1.3047306793640399 10.479112405280542 118.21316948944605 351.56870701315137 4.3426276001036515
1.3030827029348038 10.353943510012947 107.60322650739938 370.7472056950272 4.409594167609335
1.3022819543452357 10.231615051346969 97.7169266805269 390.9544251909 4.479919349345349
1.302215628685614 10.112192943398544 88.56258986202465 412.045922575609 4.552960361547341
1.3027993169062213 9.995946303573458 80.1591945111861 434.11869683632284 4.6289961722925215
1.3039352596327745 9.882577610422713 72.47407857611866 457.37438174352525 4.708787819732156
1.3055246699097656 9.772375707811126 65.4999010371524 481.85986398900155 4.79245351715349
1.307493292469488 9.665107471642028 59.186531037678556 507.45014131406396 4.8793836743927645
1.309759030158958 9.560927671895236 53.5018997575046 534.3829881945534 4.9704370516866145
1.3122198781334913 9.459517839951006 48.38508858371756 562.7810587958471 5.065995833338614
1.3148336017414746 9.36109914375776 43.79807296760024 592.726225796879 5.166263306009906
1.3174954915825932 9.265113139555497 39.684845547767985 624.3123400699803 5.271480052932264
1.3201879602095896 9.172021130690098 36.01777667471237 657.5594741725175 5.381572628627508
1.3227870658669112 9.081322685066098 32.734156013892694 692.6512031933286 5.497120761174172
1.3252731842351944 8.992815437923948 29.79881880978419 729.7594225871228 5.618643115323972
1.3275876647027776 8.90649738890443 27.12519172838221 769.0242761794576 5.746502424800843
1.3296638574325297 8.822301877147842 24.840572796176176 810.602117483692 5.881105004208767
1.3314954209913656 8.740198619513594 22.75297773191606 854.6661864569016 6.022901012720195
1.332990488902509 8.659713560074469 20.88524701244579 901.4080718481478 6.172387694445216
1.3341359207828363 8.580927083254027 19.213188399437495 951.0375866231115 6.3301048011060095
1.3349121898876035 8.503836525932718 17.71987189503834 1003.7877385040154 6.496652525160331
1.3352399596039575 8.428091139960184 16.383415740637613 1059.915382932017 6.672689451638695
