M[M_sun], R[km], Lambda[1], P_c[MeV/fm^3], rho_c[fm^-3]
0.23848912294887037 16.21570186450063 2784644.0411725277 3.4469561053153734 0.1694538074003404
0.24849306244568822 15.872236638702812 2284621.5839170986 3.6329519644072503 0.17193759619501336
0.25878978293777644 15.568339367122002 1883139.0893964907 3.8177760140915145 0.17422740075215717
0.2693742936404676 15.298368186630688 1558759.3558787447 4.014259027544561 0.17663631914045347
0.2802435888814026 15.058172632465352 1269433.403279393 4.2186905834087245 0.17907059292778424
0.29140072623581714 14.843869422402605 1081071.2957842303 4.426018313434972 0.18140757044525543
0.3028407274571333 14.652300793508552 905216.8766841498 4.648406246346019 0.18391430506924522
0.31455916358896274 14.480688470025555 760623.5971337634 4.871237484783737 0.18628238364375932
0.3265789609303401 14.326485937457925 640956.7546039704 5.105332770276701 0.18872644494616267
0.33886909041157637 14.188103802636466 541850.6408480284 5.352894196501911 0.19128315328687526
0.3514474303940982 14.0638651362316 459381.0100198059 5.599408185431656 0.19366985123253808
0.364308731385352 13.951948906342123 390498.9200911652 5.863040778616744 0.19622228799807973
0.3774557152154361 13.851136785983917 332804.7588813867 6.133930993856478 0.19874677350218892
0.3908851229210844 13.76046839261499 284302.9250058026 6.41107677701217 0.2012183783379158
0.4046066289089553 13.678801346253628 240296.70308954793 6.707219061866611 0.2038593952604005
0.4186025046205533 13.605384376883173 208913.8952551746 7.004334503882901 0.2063578674172419
0.4328957823957788 13.539189093615786 179641.46964473955 7.31517771388907 0.2089206558363905
0.44747001889907523 13.48002007018111 154802.98268230996 7.647045570535641 0.21165662494154638
0.4623277068270989 13.426697808711646 133651.53487375323 7.973611552537832 0.21416070584306696
0.4774737034314537 13.379106972087063 115607.37376158615 8.32172513549993 0.2168300119640255
0.49289801680715356 13.336460221765767 100174.9142624252 8.686919096486394 0.2195905575249802
0.508604463923101 13.298373953290003 86952.81690404208 9.052542510156256 0.22220138990441232
0.5245885230266079 13.264482858913716 75597.28473696012 9.442057864979484 0.22498282911928916
0.5408543195735693 13.234531092283776 65836.13062358115 9.844306228526584 0.22776878743890924
0.5573978704167247 13.208068247841691 57419.931278722695 10.253220408370101 0.23046867342694988
0.5742274920791669 13.184735652849634 50150.39174116628 10.688622581825099 0.2333434483435924
0.5913258748581177 13.164377214206759 43867.760893525374 11.132610435751788 0.23616035967752946
0.6087048490794755 13.146777727988114 38424.88544262617 11.589541407515634 0.23896682196778976
0.6263491487915664 13.131524834272657 33699.837627208435 12.075837520759691 0.24195364445971082
0.6442549562486153 13.118524594945857 29598.752821808066 12.566425982368745 0.2448280118121025
0.6624430661250965 13.10765194559355 26027.41088400926 13.076949376032449 0.24775956777877295
0.6808871244034408 13.098489177237768 22913.029402800577 13.62006130490001 0.25087825545381887
0.6995873784663151 13.09117048808215 20197.763351578033 14.162468697704538 0.25382324643698645
0.7185489393063742 13.08528225121605 17823.6911883379 14.733057806649407 0.25689164050071206
0.7377532222663132 13.080859618193559 15748.335908558827 15.339240670033492 0.26014824927109187
0.757200854271941 13.077644872001413 13929.444025135203 15.939644436526528 0.2631511315601453
0.776901563157741 13.07555932618458 12333.376188628325 16.577452994717934 0.2663410916005141
0.7968349521077759 13.074473731574685 10931.482699682525 17.248298722790164 0.2696651862678524
0.8169984609550142 13.074277308141841 9699.37770585151 17.9198066048109 0.2728144477946181
0.8373981335840585 13.07490778923816 8613.830622564485 18.63300336806699 0.27615922331799286
0.8580064702139008 13.076133055905048 7657.656424568214 19.375445805183503 0.27958075986288383
0.8788372129741184 13.078081053703963 6814.838250298443 20.12719968888584 0.28290061223169427
0.8998735702345175 13.08053656076467 6070.2267183359945 20.92552135206947 0.2864261145563916
0.9210994643056084 13.083334643500866 5411.721853934168 21.747264607899787 0.2899585888375299
0.9425220068740823 13.086474327613663 4829.269346032869 22.589939825892408 0.2934701413050693
0.9641289828573676 13.089975596701803 4313.340758795996 23.48477079273997 0.29719903450445584
0.985892231601959 13.093603418288334 3856.2080649657014 24.39423466226673 0.3008292244671762
1.0078360983134822 13.097385239144215 3450.2792761528 25.339882269650495 0.304524685063397
1.0299399484201217 13.101249378995666 3089.627579378196 26.344075174016947 0.30844893261620115
1.0521788610258842 13.105078329584204 2769.2682993674234 27.35178194091009 0.3121988576405007
1.0745753496695276 13.109041355947566 2484.180489411416 28.414426263433676 0.3161305326523041
1.0970713439799897 13.112575635498885 2230.0322342255186 29.532488262041102 0.3202362776115263
1.1196901540864148 13.116110163086613 2003.849755542764 30.6598374074964 0.32419862228504903
1.1424117293380478 13.119401532074258 1801.9233495038964 31.856291204406663 0.3284038521806985
1.165216310581734 13.12235048481209 1621.6287237392326 33.09384499954936 0.33266103067797353
1.1881005521396706 13.125016491597941 1460.6663795732961 34.36563554339559 0.3369170899268337
1.2110413449131223 13.127210366627978 1310.6508115055724 35.71572210903193 0.34143516756331377
1.2340381145203194 13.129145686088963 1187.774697011447 37.08610927374066 0.3458286018090349
1.257088414418836 13.130550636583582 1072.2823356509675 38.523717383412894 0.3503848491751233
1.2801444713582621 13.131435260938096 968.8119890033978 40.035713073946326 0.35514091442924
1.3032086274903851 13.131753087670756 876.1270845239809 41.57012597625769 0.3597923118114267
1.3262801913950233 13.131484674795033 792.7962982893818 43.19883839131476 0.3647295673912772
1.3493104279401296 13.130489869912003 717.9694699349521 44.87423650106714 0.369681771282239
1.372320271511679 13.128950231949048 650.7148838776926 46.61659677503832 0.3747459022436645
1.3952647403307767 13.126603517147378 590.2112792923929 48.45740142660062 0.38007474692131044
1.4181378352234348 13.123492741884506 535.7264579761484 50.326250488578 0.38529163386439125
1.440923892647486 13.119592065136226 486.64014656642655 52.310417330016755 0.3908304300671427
1.4635897239947069 13.114833598535032 442.43463289365616 54.3527969794419 0.3963733634877765
1.486157788495241 13.109281354644851 402.52164950921826 56.48568465300814 0.4020731959768092
1.508570793919822 13.10277580315238 366.4894688269895 58.72511401203169 0.4080051411740143
1.5308309748563427 13.095331223616878 333.93583420825826 61.023545123471706 0.4139328712084792
1.5529077498118193 13.086961473957436 304.52319251887855 63.46516026878203 0.42022987761316216
1.5747799072300939 13.077568994832024 277.921524645334 65.95729439255206 0.42646226432678525
1.596463458613654 13.06719436947166 253.82538232423215 68.5953147891685 0.4330408883363117
1.6178966413154938 13.055691968005458 231.99245843034555 71.32463281409069 0.4397065512237843
1.6390680958173403 13.043158377895251 212.21932022659715 74.18238470315518 0.4466042664055145
1.6599787714157583 13.029516215493787 194.2875323918401 77.16822638232692 0.4537062189343446
1.6805741221408987 13.014684261354336 178.00980263802313 80.27168996336702 0.46094527373350974
1.7008749357585815 12.998724774947158 163.22149912336545 83.53686718666253 0.46850253036129674
1.7208430171713436 12.981532834864003 149.78004531194875 86.9156292296267 0.47616439141078687
1.740452725816931 12.963190092648281 137.56351956093042 90.485093190612 0.4842187828577592
1.7596881844882926 12.943569637851125 126.44200989603938 94.17318332156262 0.4923616014246138
1.778509392271717 12.922607581556745 116.32073768855356 98.07593722505788 0.5009429502681874
1.796937215251518 12.900434144556668 107.10160744283434 102.11200463272722 0.5096220736085922
1.8149242480422303 12.876905271167749 98.68274264664115 106.38166761888691 0.5187577726708958
1.8324448869359602 12.852091581672324 91.0198291176773 110.80956650893489 0.5280266539576242
1.8495050941701465 12.825963946810832 84.01900149970668 115.48520876196419 0.5377546045476566
1.8660677658881435 12.798364572120528 77.6212317974015 120.35534981878637 0.5477210895323932
1.8821011786906643 12.769379600700134 71.77301457411264 125.48160272075144 0.5581190008553287
1.8976255147632168 12.739067898035852 66.42779448066747 130.8522521624519 0.5688756987147975
1.9125769175870377 12.707398798834308 61.538010175159215 136.48126229778362 0.5800011391444871
1.9269413596517864 12.674060746927875 57.06154044036009 142.4194328081254 0.5916393511520843
1.9407327409084472 12.639389957114435 52.95282008912224 148.61198024657483 0.6035508690747092
1.9538969203550132 12.603251723728269 49.19254265564092 155.16746142904105 0.616084597030682
1.9664400438819944 12.565682957458938 45.74395582461315 162.02220298204378 0.6289894238199302
1.9783242688195228 12.526560300377415 42.57739104758248 169.25076928633672 0.6424718131857744
1.9895554421579393 12.486002712412896 39.669390643258474 176.88487137794473 0.6565901506411269
2.0000960165785986 12.44390449724287 36.999194130784865 184.8765111363881 0.6711204034457849
2.0099456674300455 12.40034655363858 34.54289942812604 193.3354603572895 0.6863760181861547
2.019044654579672 12.355191686568068 32.28518612241388 202.26257538988233 0.7022972294842728
2.0274535013070354 12.308652812153186 30.20981425006919 211.64884058081915 0.7188088013386037
2.0350920827920445 12.260540433394743 28.29601253828512 221.58935534091546 0.736151039550533
2.041953717472942 12.210779841689858 26.533211606470545 232.11393806746204 0.7543481932452645
2.0480781224529725 12.159649573760294 24.90745401007124 243.19234988621014 0.7732008646933676
2.053392705993861 12.107031596086772 23.41213498359363 254.93883911186822 0.7929998388830483
2.057902585678239 12.052887854270615 22.031538424217008 267.39630883887196 0.8137944690592155
2.0615770416613937 11.997204670917556 20.76044309996381 280.6047888601745 0.835621035374816
2.0644831032112427 11.94017351751092 19.585189781119 294.57914629751093 0.8584154550534385
2.0665177350067583 11.8815691275869 18.501814859862062 309.4281237364839 0.8823805761543885
2.067726586188815 11.821585957565413 17.501256144071387 325.21505932365795 0.907588389353602
2.06810471366573 11.760279763916484 16.577498827002433 342.0096891849545 0.9341235049010057
