M[M_sun], R[km], Lambda[1], P_c[MeV/fm^3], rho_c[fm^-3]
0.23848912294887037 16.21570186450063 2784644.0411725277 3.4469561053153734 0.1694538074003404
0.2484766814217866 15.872746022548004 2285183.517945438 3.632635725089661 0.17193337313500923
0.2587556013311204 15.56919694155724 1884069.4694311866 3.8171549310483965 0.17421978615821884
0.2693211700901707 15.299777055486738 1560394.1512044165 4.013258110351226 0.17662404770899578
0.2801665342587089 15.059991900465445 1271240.069780983 4.217378540368252 0.17905580370934662
0.29130829552692505 14.845602301820806 1061979.834708883 4.424260163168885 0.18138775275061486
0.30272317587771996 14.654010494898678 906771.6057261772 4.646142177213644 0.1838887847075469
0.3144267163762211 14.482335264745679 762013.172213962 4.86864403758897 0.1862553068749333
0.3264174886891493 14.328475062970197 642372.4949594652 5.102158705420965 0.188693306264754
0.3386828081575479 14.189977373623938 543167.711274789 5.349379828351905 0.1912491278943191
0.3512403983743231 14.065742983276056 460592.6610843771 5.595234497230792 0.19362944243830255
0.36407819196335023 13.953766112577508 391586.6744875862 5.858128822397763 0.1961747314441173
0.3771933391762544 13.853082185311074 333841.91997014603 6.128661515263352 0.19869977993575527
0.39059986633938965 13.762264300225674 285231.3545440561 6.404980243422933 0.2011640090390986
0.40428833464221453 13.680669992787983 244296.05632718457 6.700200639297724 0.20379680449332147
0.41825668573241215 13.607118022213296 207089.14408338006 6.99694503236421 0.20629694393098866
0.4325178657001578 13.540951976621397 180356.94730433854 7.306766463086967 0.20885130815417555
0.4470582703184025 13.481561162539737 155441.43618444444 7.637522961576874 0.21157827434356488
0.4618880001807403 13.42823989620456 134220.88583967224 7.963679005798676 0.2140845438973539
0.4769998972875185 13.380487731203962 116126.11827000711 8.310544671510689 0.21674428109219998
0.49238876247969304 13.337789535554927 100644.53171311457 8.67531996906438 0.21950773083414388
0.5080582716254889 13.299663057659737 87373.52777751052 9.039574320520698 0.22210878705640735
0.5240066693456858 13.265655593431836 75979.21031291505 9.42757888470573 0.2248794380641583
0.5402299929982338 13.235593416927196 66183.31534616301 9.829386028881226 0.2276702757219111
0.5567416404060843 13.209021189836884 57726.09812041943 10.23665155357512 0.23035927634290657
0.5735324735135628 13.185657458877472 50429.64117867576 10.670238532106131 0.23322206630137837
0.590586056960351 13.165301826840322 44120.23104050875 11.113761771900446 0.23604459150336438
0.6079262705188149 13.14757687407045 38649.79571941762 11.56872053966774 0.23883894055007793
0.6255327079250202 13.13224857264824 33904.75207119689 12.05284948305391 0.24181245232143375
0.6433974407233013 13.119105766323765 29780.822424265672 12.542935239947465 0.24469312195796197
0.6615422876920516 13.108088979726821 26189.883944884554 13.051110561979826 0.24761119469646606
0.6799439540044813 13.098917995345918 23061.87287994012 13.591646627522712 0.2507150911051518
0.6985998732362803 13.091538194730482 20332.139592162304 14.13349753226045 0.2536674513987106
0.7175169468651277 13.085585370423743 17944.10780200309 14.701300691014987 0.25672086376563924
0.7366770897859093 13.08103467995395 15856.09256040181 15.305061837873803 0.2599676434357867
0.7560791333807081 13.077733466436838 14027.058078714219 15.904224548546471 0.26297398118196424
0.775726390331675 13.075604719736603 12421.251204101238 16.538738172754087 0.2661474618138821
0.795616252335785 13.074523653017534 11011.333314279776 17.208858465195394 0.2694802179462965
0.8157375326445903 13.074224652980947 9770.862172952191 17.87680692833202 0.27261278638389747
0.8360840320603515 13.074787517715114 8679.132548526013 18.586116478134556 0.2759393315154878
0.8566503081737239 13.07606453283848 7716.700991048905 19.32771608224315 0.2793699785989603
0.8774269402197395 13.077989225079325 6868.318223310855 20.075271860922022 0.28267129153723525
0.8984226184951809 13.080316218985516 6117.857285370121 20.869012901710423 0.28617656518012713
0.9195971303079608 13.083130194536723 5455.442344092939 21.68975635947691 0.2897189434470623
0.9409725662316021 13.086308393987625 4868.987331757895 22.52748303259251 0.2932098745950202
0.9625316851431093 13.089703250899868 4349.0132433171975 23.41691845922167 0.29691628377901963
0.9842450638968707 13.093372260389703 3888.773789576331 24.3252072289304 0.3005594747655316
1.006143302083117 13.097070589162396 3479.7152284891936 25.26502514372233 0.30423215372608503
1.0281938602218228 13.10096334164281 3116.5045611802575 26.26286545556099 0.3081315762222962
1.050398525382038 13.104859327552012 2793.6297503933524 27.269171307241542 0.31189320676821963
1.072721466027097 13.108548914646896 2506.0880063037625 28.324948275165326 0.3157994732722985
1.0951987264916485 13.112475429072944 2250.283879205341 29.441246695526416 0.3199155867798165
1.1177559695284318 13.115737922003857 2022.0518828036563 30.561152967301073 0.32385177165093637
1.140440091853573 13.119055670313653 1818.403225276347 31.749509059584426 0.328028540180446
1.1631924530629238 13.12212285370311 1636.8572566052571 32.98488872826171 0.33229640747144085
1.1860347250923606 13.124825138857839 1474.4183012610931 34.247888438887514 0.3365230481126428
1.2089515787473275 13.127158310097764 1329.127461305707 35.58841237235483 0.341009124308883
1.231887438209255 13.128991462165178 1199.225902393066 36.95614658417406 0.34541670780395545
1.2548866713953273 13.130453424117793 1082.8096174631996 38.383358616587785 0.34994000662216906
1.2779144640749376 13.131384110179365 978.3835580902633 39.89211243161893 0.3547056054906904
1.3009354213466542 13.131689255018678 884.7983095672962 41.415194394399336 0.35932265442442973
1.3239718591089231 13.131490287157124 800.6894543282776 43.03159118639959 0.36422257660024004
1.3469698502824023 13.130698815262033 725.2556937242949 44.70295397425421 0.3691839424691385
1.3699446315587944 13.12909137041612 657.3123616811109 46.431859425282155 0.3742089672901949
1.3928575461983885 13.126824779013308 596.2418746255399 48.2675751204471 0.37954443368433594
1.4156965239855646 13.123819396545432 541.2469162633125 50.12185431312896 0.38472106251081845
1.4384601203081657 13.12005081018514 491.72672534289393 52.090000434141935 0.3902151369171934
1.46111209000597 13.115418879601362 447.0725383564293 54.126319787768296 0.3957681360906076
1.483655291895917 13.109924627340444 406.7548530228272 56.2416100610137 0.40142094208344253
1.5060370146634077 13.103527002758003 370.38529107518076 58.473784276089816 0.40735695345288514
1.5282885733471943 13.09623032672533 337.5104358404991 60.75282946264654 0.41323468654438983
1.5503526114839585 13.08806558253386 307.81213391231057 63.17337888340537 0.4194773637470793
1.572213167729574 13.078720879271721 280.91651967374406 65.65647251314866 0.42571208284942735
1.593881581055755 13.068493008221287 256.57955163636814 68.27121648060994 0.43223266072864613
1.6153143654104496 13.057188681284025 234.53250881171806 70.96256727670087 0.43877598065702794
1.6365006359344887 13.044780214489828 214.5379431912936 73.73878831748239 0.44536406682819935
1.6574178190701832 13.031241428360595 196.3988290862273 76.68780417266724 0.45236220216710565
1.6780406697036492 13.01661423210672 179.9456443733692 79.82302272191627 0.4598022041210182
1.698024900149912 13.000882099552681 165.2149030323233 83.15733669468287 0.5441999642279233
1.7139175672293765 12.982678209536244 153.75666670310707 86.8576267735918 0.7501529657980194
1.7249405967898939 12.959532654159412 145.15824416828846 90.81661116811944 0.9689799397513149
1.7319352409770967 12.930151582188032 138.41973100912406 95.45339713270606 1.1483107175041236
1.7357798354236236 12.894883666854367 132.92907491009873 100.43597895883924 1.341015379940949
1.7369511245502025 12.853569745904613 128.30590083458716 105.9908777579642 1.507477773052304
