M[M_sun], R[km], Lambda[1], P_c[MeV/fm^3], rho_c[fm^-3]
0.23848912294887037 16.21570186450063 2784644.0411725277 3.4469561053153734 0.1694538074003404
0.24847811264083708 15.872748843527761 2285339.760377431 3.6327018674077327 0.17193425639955762
0.2587606850134455 15.569210958357269 1884180.9337335671 3.8172848265601305 0.17422137870141774
0.26933233895111697 15.299505465491048 1559970.408155584 4.013467435617854 0.17662661407580305
0.2801844524471128 15.059516594877657 1296967.5986601468 4.217652921920113 0.17905889651086346
0.2913266297248399 14.845312097302436 1082362.5299132464 4.424627819390206 0.1813918969349132
0.30274826518546377 14.653716930730452 906538.8390491683 4.646615605380454 0.18389412114267709
0.3144540231419842 14.482037509483808 748525.3313192317 4.8691863230291785 0.18626096858168864
0.3264540536044816 14.327979859860113 642066.966117098 5.102822364282421 0.18870023516525647
0.3387211504758244 14.189595372559353 542906.0655924021 5.350114620127671 0.1912562419977796
0.3512819617916255 14.065272883162296 460338.68367256434 5.5961070981761365 0.19363789078191454
0.3641289814469831 13.953398050237155 391378.11944549123 5.859155722498319 0.19618467368054388
0.3772486694168624 13.852690905413466 333614.4969677904 6.129763134750041 0.19870960425283285
0.39065797432376786 13.761928586524608 285039.15364977834 6.406254700042016 0.20117537472941066
0.404353116325004 13.680322498608113 244113.67923017373 6.7016677372151605 0.20380988817175932
0.4183299881861598 13.606775963469131 209530.69370736094 6.998489665708542 0.2063096788671856
0.43259572549950287 13.540688624631061 180212.34194940413 7.308524589963665 0.20886580326635415
0.44714554177084836 13.481242994967353 155312.1952519616 7.639518159290142 0.21159472401796303
0.4619785546365285 13.42795332380543 134109.75381266975 7.96575497828883 0.21410046228246188
0.47710107551695335 13.380145487561627 116010.0335334333 8.312881344227963 0.2167621985050565
0.4924914327192411 13.337496067935625 100548.75982446673 8.677744114771494 0.21952504109893536
0.5081708380306258 13.29936704512156 87281.49916177054 9.042284449304956 0.22212813946032303
0.5241283658409404 13.265400535412331 75895.89135656811 9.430604579415693 0.22490104385148946
0.540361866822188 13.235354741375213 66107.5040607985 9.8325039042259 0.22769086172349892
0.5568782806647946 13.20887158690904 57667.073084149175 10.240113762351871 0.23038213583133907
0.5736771512986453 13.185511529346522 50373.00570860182 10.674079829789308 0.23324742875223461
0.590742830402147 13.165097991318568 44065.66447128291 11.117700136187326 0.23606878087011657
0.6080926513426277 13.147324286826892 38601.268824571474 11.57307075002714 0.23886565946843277
0.6257006052305925 13.132047689736122 33862.2771228092 12.057652220081538 0.24184195065092112
0.6435804978424621 13.119089707746879 29743.368779905475 12.547843001683187 0.24472130358171892
0.6617332934462442 13.108018562266173 26157.100553191405 13.056508586722046 0.24764219153586206
0.680139005254776 13.098843906925628 23031.10474246743 13.597582436850516 0.25074917604125446
0.6988047306751314 13.091362253074958 20303.32624372825 14.139549604233537 0.25369999695807083
0.7177299227967731 13.085597381726283 17920.21395879323 14.707934365610237 0.25675653694521744
0.7369016836278689 13.081041532327525 15834.302969816117 15.31233257844158 0.2600067424947195
0.7563101163148834 13.077737232231827 14006.487389495003 15.911622928838748 0.26301098372323267
0.775975856251887 13.075584199141396 12402.727284180011 16.546824310608574 0.26618790413204396
0.7958709192504838 13.074566429639429 10994.868191792206 17.217096164419278 0.2695188514008388
0.8160039328001515 13.074229976566514 9755.995147168758 17.88578753832402 0.27265490396775904
0.8363569179926631 13.074784087292006 8665.534916254344 18.595908353393053 0.27598525380002403
0.8569321270168339 13.076055668151959 7704.449075483658 19.337684044601403 0.2794139985424081
0.8777202724235738 13.077888212144025 6856.803412784776 20.086115909742873 0.2827191804034532
0.8987233108165886 13.08047933073417 6108.625981466251 20.880812789022787 0.28622867516544936
0.9199155657855598 13.08313916488032 5446.142020962934 21.70176511976554 0.2897689857301664
0.9412959246544932 13.086357450076555 4860.562917432637 22.540524332477023 0.2932642196235811
0.9628623545526512 13.08980211567088 4341.8528867491905 23.43108547770574 0.2969753198437492
0.9845936117442825 13.093386694904686 3881.8134429386896 24.339619737303106 0.30061579686307427
1.00649868021551 13.09717252302449 3473.6028285937577 25.280653865396385 0.3042932286176882
1.0285543015966179 13.10099414162853 3111.0782870819235 26.27981937318503 0.3081978297971395
1.0507714488636168 13.104907861032691 2788.5721702301794 27.286417874997557 0.31195701730016195
1.0731042790569874 13.108608383786342 2501.539780680725 28.34362731963049 0.3158685838211543
1.0955826603580183 13.112358839340168 2246.05861700173 29.46029408000976 0.3199825334775245
1.1181595582958355 13.115867580234248 2018.23569213164 30.58175276432561 0.3239241746827255
1.140839240154578 13.119142832128837 1815.122146259822 31.77179771260406 0.3281068791102517
1.16362455651787 13.122177734831302 1633.6071619803795 33.00763140692014 0.3323725160636272
1.186469894635574 13.124854641590604 1471.5454808440627 34.27246439530431 0.3366052917864249
1.2093927449527746 13.127227572244903 1326.5128294091949 35.61498239235745 0.3410980411355741
1.2323435552063622 13.129051138546936 1196.8380231285087 36.983270553493426 0.34550267247884686
1.2553511250999037 13.130448970787914 1080.572789992801 38.41265027872484 0.3500328414201661
1.2783806075040267 13.131302839231749 976.347519965073 39.922080899109886 0.3547964514755134
1.301415665881657 13.131757264002696 882.9502077367292 41.44752529739951 0.35942066186255295
1.324452100871211 13.131499573419218 799.0760262793137 43.066489602184106 0.3643283671599897
1.3474591128804208 13.13061981546091 723.6986890632951 44.738694689741905 0.3692878220551165
1.3704364401354807 13.129065276668564 655.9537330315407 46.47040491891174 0.37432099890078036
1.393358912836197 13.126785696104589 594.978051808823 48.30732107329056 0.3796557980337166
1.4162038250631683 13.123753862994361 540.1095891767083 50.1644987601191 0.3848401043656285
1.438977261285763 13.119965158279511 490.6685653083727 52.13598395687081 0.3903434997926133
1.461630581138081 13.115275187314515 446.0903667231624 54.17356783070109 0.3958943996221987
1.484170748664114 13.109785768549225 405.8689667968236 56.29252546724718 0.4015570061107416
1.506565472380402 13.103367507422151 369.56481987537956 58.52621327271121 0.4074921695733086
1.5288166526502929 13.096085202419426 336.7682483669628 60.809298182370455 0.41338032124462043
1.5508847550920135 13.087734976825182 307.10716716116485 63.23423695729462 0.419634318737219
1.5727586748239266 13.07850041731786 280.28435297999425 65.71921623568936 0.42586855144992897
1.594422738158521 13.068191914583572 255.99141097324198 68.33880971361799 0.43240122290736116
1.6158432695248637 13.056877090758494 234.01297144772695 71.05959069487405 0.4390668228217091
1.6370200254364027 13.044401928461133 214.06413793606188 73.89691528711715 0.44591523292697494
1.657928173254222 13.030862893344363 195.97312981063925 76.87266318712588 0.45301679625841956
1.678539067101663 13.016154289276889 179.55656174593287 79.95341337633312 0.46020287041712943
1.6988333314644477 13.000332792045977 164.6475864254947 83.20668376593609 0.4677537888227444
1.7188049163059673 12.983354289094718 151.1034921256504 86.56011243611592 0.47535820256469397
1.7384240211564226 12.965141880624952 138.78194606363118 90.11553058620333 0.4834028371704399
1.7576671428019504 12.945609596504958 127.5639675817322 93.77527297873691 0.4914830676544346
1.7765279812669839 12.924891109968755 117.35049203254546 97.66151483616368 0.5000517800609199
1.7949695207662286 12.902861379300713 108.05096069714256 101.66576003619052 0.5086624732099538
1.812983588338435 12.879563030408109 99.56315423437768 105.91607711393108 0.5177831562160434
1.830539402467939 12.854907540698584 91.83035834192738 110.30814315695321 0.5269770289234217
1.8476295969084922 12.82890234264235 84.76399782676238 114.96112019549973 0.5366820851344821
1.864225882961133 12.801509439807845 78.31281945510115 119.79078482680677 0.5465657372643946
1.8803036866040121 12.772750354487192 72.41487389696965 124.8904599706813 0.5569350204031794
1.8958534816292474 12.74262763695472 67.02166461619912 130.2152377236818 0.5675998433598073
1.910864760185006 12.711176439806964 62.08938653077354 135.8131075169254 0.5786916235318965
1.9252832995127975 12.678036135535098 57.56499598507171 141.69912264324086 0.5902276162759043
1.9391154336324044 12.643564788166088 53.42099662344214 147.85520171392477 0.6020994082222184
1.9523405390777047 12.607701105749108 49.626910869653656 154.37085113518916 0.6145848879926092
1.9649451942759786 12.570311011785078 46.148330502419725 161.16316821345444 0.6273721936429979
1.97689969404471 12.531486815516626 42.953796103541315 168.34503802886815 0.640796774080539
1.9881894594736451 12.49111329532324 40.01825457706579 175.9075176351189 0.6547826545153369
1.998798337066326 12.449274899927833 37.32253465651287 183.84436419845213 0.6692462848272769
2.008726980174187 12.40599299167504 34.84433582384835 192.24364656538418 0.68442880477895
2.0179117235895325 12.361040244331722 32.56578318848781 201.0835999122433 0.7001945661236844
2.0264005860585703 12.31470921754527 30.466021775266526 210.39973507168708 0.71661593081835
2.0341426501365505 12.26687058488733 28.53584281985056 220.26388451768779 0.7338592815858853
2.041106583632377 12.217535350537737 26.761804118624728 230.68128046608018 0.7518711078118901
2.0473129743748935 12.166678641216835 25.119265924516014 241.6697042625549 0.7706101271356313
2.052714096283478 12.114212389009978 23.606825856536044 253.3182300937898 0.7902845095613734
2.0573233401475535 12.060347859454149 22.21476253937553 265.6690372408123 0.8109402111870531
2.0611453402576734 12.005010499830249 20.929372867091885 278.7351609078892 0.8325315384440382
2.064115868081281 11.948156031206002 19.74303024357435 292.583252949387 0.8551614320459173
2.0662755246658957 11.889847248959173 18.648478770709588 307.2946020085647 0.8789523098065356
2.067601124017575 11.830142841283251 17.637766526084132 322.9314785944545 0.9039686333113051
2.0680759154429165 11.769035549638996 16.705119020072594 339.56240251631914 0.9302925588956391
