M[M_sun], R[km], Lambda[1], P_c[MeV/fm^3], rho_c[fm^-3]
0.23848912294887037 16.21570186450063 2784644.0411725277 3.4469561053153734 0.1694538074003404
0.24847868749434945 15.872609375669205 2285244.9867660305 3.6326762804618062 0.17193391471146902
0.25876049544811897 15.56907603611185 1884162.478111235 3.8172345765355926 0.17422076262674546
0.2693296766714307 15.29951663296434 1560110.9247677221 4.013386457591784 0.1766256212701013
0.2801804001951052 15.05949651940005 1296956.685877025 4.217546776039275 0.1790577000450696
0.29131948817267017 14.845447060676493 1082498.1463343145 4.424485588625557 0.18139029372390406
0.302738267607457 14.653782444750144 906613.6156948473 4.646432454417067 0.18389205668326453
0.31444392375067787 14.482135837778129 761835.6054278621 4.868976532775455 0.1862587782759776
0.32644024630511215 14.32825176837004 642193.6438789105 5.102565617070424 0.18869755460753393
0.3387066411462742 14.189726097456717 543002.370075574 5.349830352711595 0.19125348977888562
0.3512670573642118 14.065451852416311 460436.2920605648 5.5957695141129795 0.19363462236216472
0.3641091528297902 13.953642340180481 391496.6257356937 5.858758441298036 0.1961808272853406
0.37722685218471497 13.85281793943644 333697.22617016593 6.129336944993798 0.19870580346376626
0.39063566451693593 13.762051233401417 285121.51017682516 6.405761639781529 0.20117097758466523
0.40432814194764194 13.680458056264525 241040.54503597284 6.701100143352538 0.20380482633130984
0.4182990940842888 13.606944018306736 209608.0499966251 6.997892073094152 0.20630475193495024
0.4325651193049877 13.540830229582287 180273.13038233703 7.307844394614083 0.20886019530482064
0.4471129998891309 13.48133047722876 155357.24832420336 7.6387462378303175 0.21158835980824556
0.46194431202244024 13.428060810956564 134146.7299505226 7.964951804211743 0.21409430361016324
0.47705730228468646 13.380193894330038 116051.72855296858 8.311977299974018 0.21675526636859652
0.49245184395766306 13.33759216622862 100583.965523285 8.676806226127209 0.21951834385267252
0.5081267534249344 13.299467015465762 87317.23123143884 9.041235906451146 0.22212065205789858
0.5240829962316872 13.265471492553173 75927.72042468726 9.429433934560041 0.2248926845468616
0.5403141141585578 13.235499969895232 66137.42205591055 9.83129759321694 0.22768289696622013
0.5568228496979887 13.208950691177145 57692.611557701115 10.23877421651139 0.23037329138127272
0.5736206992971143 13.185601831350565 50394.09093890109 10.672593599263537 0.23323761580573063
0.5906835846334304 13.1651613570646 44086.48862284693 11.116176348941613 0.23605942179465936
0.6080256725464116 13.147417628566998 38619.61019262843 11.571387600973221 0.23885532159544842
0.6256371378831047 13.132150970077076 33878.76242246569 12.055793965982344 0.24183053728571416
0.6435096543558467 13.11906587713617 29758.240386396777 12.545944111755288 0.244710399669837
0.6616579567266346 13.108083254440551 26169.930496230943 13.054419987319461 0.2476301982636308
0.6800642546846962 13.098873425618695 23041.60718634492 13.595285736782289 0.2507359878017492
0.6987238910863537 13.091437176833592 20315.072473357504 14.137207920287297 0.2536874043428121
0.7176497591067308 13.085569945775733 17928.86344362293 14.705367622478995 0.25674273405402387
0.7368163294845687 13.081070383814257 15843.10481701056 15.309519310809113 0.25999161389592956
0.7562198963634051 13.077757428962665 14014.812853581338 15.908760275723862 0.2629966663408008
0.7758835509508798 13.075590798773142 12409.954715018937 16.543695513800465 0.2661722556483977
0.795775519638971 13.074494934656041 10927.449749625648 17.213908726207542 0.26950390283984954
0.8158965343826969 13.074270502587272 9761.946136508554 17.882312610277566 0.2726386071267271
0.8362526866210565 13.074838876454162 8670.977893538831 18.59211947998252 0.27596748460686776
0.8568226718845586 13.07607537466525 7709.53695231021 19.333827040315786 0.27939696546138026
0.8776053048982431 13.077947795732564 6861.539438901166 20.081919871537757 0.2827006501002823
0.8986108251097346 13.080377632784915 6111.823065650363 20.876246849274878 0.2862085113243086
0.919789038445871 13.083161826928173 5449.840008588092 21.69711836328621 0.2897496220075451
0.9411736839549621 13.08632709088605 4863.642213977163 22.53547798717621 0.2932431907551455
0.9627330915843475 13.089734957490583 4344.546806109841 23.42560347810255 0.2969524755392976
0.9844573588669032 13.093391162416168 3884.6019427031038 24.3340427528285 0.3005940027759209
1.0063622496686717 13.097172449172932 3476.0828721879057 25.274606199669233 0.30426959517303154
1.0284123443020945 13.10091880218237 3113.090191323977 26.273258842632043 0.30817219214738545
1.0506248230100061 13.104923527079784 2790.600372543534 27.279744111417713 0.3119323250593572
1.0729679930124822 13.108721362119754 2503.381024275182 28.336399166034926 0.3158418403941479
1.0954312965232234 13.112359390826333 2247.681369016763 29.45292340284618 0.3199566274274626
1.1180048130863283 13.115833272595781 2019.7162341629485 30.57378127310368 0.32389615692450874
1.1406809530233424 13.119153002178379 1816.4697161247573 31.76317259231592 0.3280765640125999
1.1634576172583586 13.12218829568027 1634.864204974224 32.99883060447884 0.33234306409387565
1.1862949155533682 13.124819968174632 1472.6717938880552 34.262954060421876 0.33657346535955607
1.2092199412730638 13.12720200856021 1327.5663232614422 35.604700285643325 0.34106363196687084
1.2321624960643058 13.128992654847792 1197.7404657703617 36.972774095432925 0.3454694057915837
1.2551738398968384 13.130493601748029 1081.4693928041438 38.401314837884115 0.3499969157237774
1.2782031928907305 13.13134399716655 977.1207898150137 39.91048356050459 0.35476129546871255
1.3012286094022094 13.131750642044958 883.6485882958947 41.43501359125146 0.3593827340550273
1.3242614408413569 13.131455080319391 799.6772601620655 43.05298414047853 0.3642874268960438
1.347272904480624 13.130588157422318 724.2328440229229 44.7248632807 0.3692476213757188
1.3702540502654827 13.129052319776191 656.4408129256831 46.4554879063501 0.374277642939161
1.393170710124287 13.126821699075386 595.4696365739363 48.292007196354476 0.37961304938896984
1.4160064489993038 13.123758825173875 540.5571605114053 50.14799528315595 0.38479403495572473
1.4387799474696759 13.119979364643768 491.0446298319074 52.1181880370938 0.3902938225322001
1.4614316627437507 13.115359411370955 446.4779120202578 54.15528254707265 0.3958455348577818
1.4839774093504794 13.109940549659145 406.23852491881524 56.27282065133192 0.40150434785248623
1.5063634710728135 13.103380715691861 369.8723500905892 58.50592268866774 0.40743983948438284
1.5286137781323395 13.09611056146509 337.0540337846652 60.78744391264002 0.4133239583584684
1.5506810500808812 13.087839282060747 307.3682080486482 63.210683641743515 0.4195735739555684
1.5725458850030658 13.07857893613879 280.5308825390865 65.69493313786477 0.42580799491648463
1.5942205823975355 13.068291576961506 256.2046329415786 68.31264942132285 0.43233598507705107
1.6156346296338944 13.056978433888736 234.21004816430377 71.03255979883488 0.4390015787315211
1.636814119735651 13.044550890405166 214.25218965036655 73.8678036489463 0.4458449665790304
1.6577180965381593 13.031036062144397 196.15003316920257 76.84252236776051 0.45294649060237424
1.678330370509028 13.016373234656449 179.7243136462065 79.9209592247273 0.46012716874517484
1.698628597334588 13.000552110400916 164.7991927102443 83.1730157816351 0.4676774415055168
1.7186012020788102 12.9835113021774 151.23539009745647 86.52386459642871 0.4752760050297696
1.7382311396685144 12.965383038744674 138.90610278969243 90.07785111543281 0.48331964584829606
1.7574691033229841 12.945831803068932 127.67541415740939 93.73470705481826 0.49139350342288446
1.776328985842404 12.925131673332924 117.45689031028402 97.61926620975463 0.4999609289916662
1.794776597052694 12.903118993801591 108.14361712948106 101.62027161514847 0.5085646553152293
1.8127802762870662 12.87979242672393 99.65979835982803 105.86861754963549 0.5176838095330457
1.8303449345588627 12.855189597781155 91.91468638204543 110.25703599553056 0.526870046757864
1.8474334858679566 12.829211651050016 84.84444911149369 114.90770411198764 0.5365727719568851
1.8640322745076043 12.80183961776957 78.38318683407934 119.73324906603825 0.5464479933861178
1.880125381014195 12.773146174598049 72.47896026683692 124.83021722996087 0.5568143621909482
1.8956693546962387 12.742975993500416 67.08116527510828 130.1503269043775 0.5674698356058762
1.910677936836236 12.711419636609385 62.13836953702935 135.7450256278892 0.5785581899336021
1.9251134593349706 12.678438703090112 57.61596593548569 141.62573408810897 0.5900837821502137
1.9389525010355568 12.644094420049699 53.47465136915432 147.7781002629643 0.6019515317525365
1.9521773740901094 12.608164512099718 49.67672493631002 154.2896947026536 0.6144321018231225
1.9647896724067755 12.570852918189194 46.19072688496561 161.0756616560076 0.6272074526446623
1.976765007609917 12.532050097171885 42.99306429498579 168.25277863521282 0.6406261516239067
1.9880684030666718 12.491737629089899 40.054560898804425 175.80797378822032 0.6545985603539995
1.9986693222929581 12.449826331580532 37.355406272484224 183.73924462170874 0.6690554141782408
2.008599494422952 12.406491325479008 34.87504597849621 192.13245587083208 0.6842304998914376
2.0177918781374284 12.361659102453949 32.593622728245904 200.96354659606746 0.699980455046713
2.026286115380802 12.315355386942356 30.49419778255687 210.27254762378996 0.7163926465537295
2.0340302377842794 12.26750980071775 28.56043376555849 220.12892940324312 0.733625942267525
2.0410033050548564 12.21811900291709 26.77968932681092 230.53542962125888 0.7516189296202527
2.0472227677463453 12.167309337779656 25.140234621400964 241.51470227997376 0.7703463957384119
2.0526294092926607 12.114885810429447 23.62750991841712 253.1532669711001 0.7900081139600671
2.0572746806638946 12.061101229249745 22.23314436009962 265.493229589536 0.810649694991913
2.061087975298827 12.005734272948416 20.945098083029535 278.54488815083596 0.8322171191510402
2.064077395121093 11.948937675645727 19.759237646510474 292.38014594740315 0.8548302946842615
2.066256884239727 11.89074856415864 18.66410482217037 307.07750738498066 0.8786034695849463
2.0676097458332996 11.831077062741668 17.64680738348152 322.6991347924403 0.9036003398367298
2.0681086804049538 11.77003329105674 16.717824212328782 339.3134247518776 0.9299028128212063
