M[M_sun], R[km], Lambda[1], P_c[MeV/fm^3], rho_c[fm^-3]
0.23848912294887037 16.21570186450063 2784644.0411725277 3.4469561053153734 0.1694538074003404
0.2484782963845244 15.872609740857143 2285258.370471555 3.6326739233529266 0.17193388323463585
0.25876082541464956 15.569067391826419 1884055.995035336 3.8172299474486335 0.174220705873276
0.26932854937278133 15.299530126068717 1560070.3457789351 4.0133789978481005 0.17662552981225255
0.280178642652289 15.059635583220937 1297099.2184352868 4.217536997859873 0.17905758982640554
0.29131748286293035 14.845508003800095 1082554.7511195226 4.424472486370003 0.1813901460365848
0.3027374771582288 14.653797708973148 906664.8266996983 4.64641558269844 0.18389186650693304
0.31444076159810946 14.482251418721813 761898.6279209376 4.8689572071359075 0.18625857650750682
0.32643892966058563 14.32823879847572 642197.438007087 5.102541965939681 0.18869730767896684
0.33870479205327314 14.189741361213805 534387.5931636888 5.349804166546212 0.19125323624979626
0.35126279036241015 14.065577134879282 460464.6707092994 5.595738416691859 0.19363432128330332
0.3641053514914125 13.953522672509582 391469.48369340773 5.85872184492891 0.19618047296679098
0.37722491359836513 13.852791946789905 333720.0489199515 6.129297685752389 0.19870545334719653
0.3906334888055584 13.762116920208248 285134.7625742216 6.405716220898047 0.20117057253599097
0.40432541149205087 13.680470887807488 244189.9760233119 6.701047859012449 0.20380436005602925
0.4182981277456572 13.60693564607024 209603.39279347775 6.997837025503292 0.20630429808772494
0.4325637091054431 13.540776321023934 180270.4182615147 7.3077817383851364 0.20885967872716102
0.44710983906291707 13.48133989699284 155356.4229611891 7.63867513266707 0.21158777357221709
0.46193969829642434 13.428086153561312 134155.3498359002 7.964877820336221 0.2140937363079336
0.47705288508415883 13.380229519938837 116059.33670771173 8.311894024996244 0.21675462782296437
0.49244943491233895 13.337597377202545 100590.14207186767 8.676719833716568 0.21951772694441501
0.5081227851701081 13.299483995070966 87321.39588616033 9.041139321836624 0.22211996236946638
0.5240786993915861 13.265490072880672 75931.90624203751 9.429326103392187 0.22489191454938873
0.5403083588495818 13.235490369398251 66137.03798770042 9.831186476832253 0.22768216331210675
0.5568176575030183 13.208965452058905 57695.189456013686 10.238650828267312 0.23037247670130392
0.5736161692730197 13.185595181136927 50398.276699851514 10.672456700444068 0.2332367119211928
0.5906783751604536 13.165156623378415 44088.90290785065 11.116035990771705 0.2360585597171568
0.6080192099911007 13.147408178181857 38622.927075121836 11.571232564716722 0.2388543693653866
0.6256311508643486 13.132180155855858 33880.44650869199 12.055622801733902 0.24182948599779897
0.6435004880673751 13.119092222265959 29758.730016933263 12.545769204538495 0.2447093953078403
0.6616528888092807 13.108078116966302 26170.762954850135 13.054227607124819 0.2476290935673241
0.6800557008738287 13.098883164147335 23043.340509563546 13.595074189868605 0.2507347730452371
0.6987169474229254 13.091401697662508 20314.629609593187 14.136992229900045 0.2536862444484267
0.7176415583724027 13.085569853545037 17929.98882940974 14.70513120361355 0.2567414626903895
0.7368079267010605 13.081079409446582 15843.874712531351 15.309260186650318 0.2599902204325456
0.7562118470595831 13.077733997390643 14015.403430549832 15.908496602635436 0.26299534759616344
0.7758752904050507 13.075588681507426 12410.803690991199 16.54340732865973 0.26617081430824735
0.7957652916088497 13.074493663061793 11001.627343050523 17.213615139588615 0.26950252596689167
0.8158893771212594 13.074237444864709 9761.681952954517 17.881992545820772 0.2726371060770643
0.836242586503432 13.074843815679076 8671.691142344078 18.591770501377063 0.2759658479546031
0.8568131852634627 13.076074256061318 7709.807598211061 19.333471786159787 0.2793953966083595
0.8775943403966916 13.077895091779466 6861.25622247892 20.081533392841905 0.28269894335524015
0.898599717936708 13.080360544814198 6112.266373079566 20.875826303469594 0.2862066541340524
0.9197782668704726 13.083131593425149 5450.241583166614 21.696690373463916 0.2897478385105531
0.9411626588600038 13.086297331266113 4864.094047202157 22.535013196403607 0.2932412539031418
0.9627191683994027 13.089756098472481 4345.035515916354 23.425098565208692 0.296950371492471
0.9844478250353149 13.093369593904763 3884.70169913859 24.333529090917537 0.30059199545592463
1.0063519322526497 13.09715448627932 3476.062467237671 25.27404919012983 0.30426741845647404
1.0283961625145341 13.100934445671939 3113.2747499611874 26.272654600971272 0.30816983085420335
1.0506102817630838 13.10493606506846 2790.7418483404253 27.27912943996868 0.3119300508380346
1.072954931317988 13.10871308490639 2503.6156204212025 28.33573343862194 0.3158393772709948
1.095416554648372 13.112367205717884 2247.789795002586 29.452244547999644 0.31995424142584444
1.1179895667346453 13.11583109337704 2019.8599641326948 30.57304708736908 0.32389357644893324
1.140672665464338 13.119079468895785 1816.4295419338018 31.76237821234378 0.3280737719696343
1.163443933148185 13.122165134271203 1634.9647983106752 32.99802004317517 0.3323403515427013
1.186285686893214 13.124816896701274 1472.7280409616972 34.2620781571521 0.33657053414086563
1.2092043899117089 13.127208113785711 1327.6440705568925 35.603753309352804 0.34106046290163505
1.23214663358687 13.128989645882928 1197.8367892305503 36.97180737643642 0.3454663419448706
1.2551556833869075 13.130461767573113 1081.5034076628453 38.400270857023294 0.3499936070091038
1.2781878729832454 13.13136751559047 977.2131061303501 39.90941545815519 0.35475805763848806
1.301210553058715 13.131741661539454 883.7543738791663 41.43386128559973 0.3593792409721134
1.32424389767887 13.131459587746248 799.7444099524789 43.05174032164055 0.3642836564013626
1.3472546057161179 13.13066297058894 724.3643716935303 44.72358944184463 0.3692439189917264
1.3702408618761657 13.12915532192672 656.5198191389652 46.45411409710862 0.3742736499934891
1.3931527656300298 13.126870295503835 595.5387988790525 48.29059683630394 0.3796091123728232
1.4159895970984637 13.123763611919742 540.6051859049759 50.14647537699646 0.3847897921419205
1.438763462779914 13.119967990842698 491.10062856859776 52.11654911559043 0.39028924748739546
1.4614162259629708 13.115373733535629 446.50012752500766 54.15359855656839 0.3958410346377719
1.4839443179972878 13.109821569742804 406.2596553314715 56.27100594367806 0.40149949830988174
1.506344543009793 13.103440098138602 369.9146031733159 58.50405403442137 0.4074350201631315
1.5285921003629106 13.096149178889414 337.07942079513685 60.78543126841811 0.4133187676822965
1.5506602777821463 13.087894182495823 307.40780222189414 63.208514544723585 0.4195679797824436
1.572533658607645 13.078619592020504 280.5561629332273 65.69269683281864 0.4258024180793654
1.5941993073808356 13.068304456814348 256.23108359445274 68.3102402609556 0.43232997717800103
1.6156080238216135 13.056945966249927 234.2293559604377 71.03007046322942 0.43899557025749514
1.6368009041840557 13.044575778072094 214.26772161380953 73.86512271719351 0.44583849565210243
1.6576968738953408 13.031033810683995 196.16970521442622 76.83974665878377 0.4529400160590569
1.678313458949477 13.016393737031013 179.73725028762732 79.91797050509608 0.46012019733899434
1.6986118917287083 13.000567727032696 164.8120373744294 83.16991528220302 0.4676704106476077
1.7185838937877407 12.98358381962822 151.25165111663273 86.52052654797292 0.4752684354930223
1.738207661736346 12.965288527465525 138.90705050411853 90.07438123289432 0.4833119848034311
1.7574538522728542 12.945871872643018 127.6878171881689 93.7309713956994 0.49138525557824064
1.7763105505276786 12.925195935109107 117.4700557284772 97.61537559904413 0.4999525626571095
1.7947626725066756 12.90315261173985 108.15151199883984 101.61608269724978 0.5085556475035569
1.8127733284345082 12.879871933926013 99.66604111034702 105.86424712236129 0.5176746609565803
1.8303329543817817 12.855234909994072 91.9176040608532 110.25232971708436 0.5268601951471332
1.847421491557041 12.829214160325467 84.8445773223279 114.90278522431957 0.5365627057145498
1.8640081291149708 12.801835430896048 78.38869316964825 119.72795086629122 0.5464371509017609
1.880096077813155 12.773113736675187 72.48547898352757 124.82466977199553 0.5568032513690878
1.8956459648258606 12.742965679210183 67.08778115675344 130.14434964800714 0.5674578639548677
1.9106601234665914 12.711431406178011 62.124896205472965 135.73875638573102 0.5785459028547388
1.925089245918502 12.678507812700365 57.624417270268914 141.61897625970028 0.5900705374918472
1.9389326482910736 12.644102371903918 53.47966602790354 147.7710005653456 0.6019379149112632
1.952172247563543 12.608193239225935 49.67804559179901 154.28222164110545 0.6144180329389612
1.964785139460975 12.570920048774461 46.19502446697103 161.06760394962518 0.6271922831004307
1.9767471830161119 12.532036944539483 42.99362721383066 168.2442833189272 0.6406104405762064
1.9880445652655059 12.49168072680928 40.056522084196054 175.79880781759456 0.6545816090131807
1.9986645186898988 12.449973066616915 37.36219050020178 183.72956528572632 0.6690378389444125
2.008586000366045 12.406584064449076 34.87945078096447 192.1222175635733 0.6842122402126268
2.017786655210878 12.361706939879666 32.59659807890761 200.9524923590629 0.6999607401844707
2.0262734852623874 12.315385101281194 30.496758858663036 210.26083655826736 0.7163720871613022
2.0340276974149685 12.267570911512832 28.56326715462163 220.11650318773184 0.7336044571636137
2.041002759399713 12.218216681709821 26.783050305719293 230.52200032792896 0.7515957101804814
2.047218849073007 12.167419869473536 25.142771533050063 241.5004304842675 0.7703221126901582
2.052661494566413 12.115051080873236 23.62769982001862 253.13807810954054 0.7899826650327222
2.0572679589932235 12.061173514799476 22.233223821748197 265.4770423443813 0.8106229461170034
2.0610846240030956 12.005812076129132 20.947329009745168 278.5273692784411 0.8321881698071729
2.0640954309596284 11.949104090865676 19.761019165993343 292.3614455424423 0.8547998063076908
2.0662564245951387 11.890824793976101 18.66555320485841 307.0575192815425 0.8785713515420515
2.0675943901323066 11.831138136573502 17.653034041552292 322.6456040162905 0.9034685860844385
2.068091476851771 11.770030578618309 16.718568962337464 339.163206182994 0.9294886470732953
