M[M_sun], R[km], Lambda[1], P_c[MeV/fm^3], rho_c[fm^-3]
0.23848912294887037 16.21570186450063 2784644.0411725277 3.4469561053153734 0.1694538074003404
0.24847792155174903 15.872654008632914 2285304.471703525 3.6326641236129777 0.1719337523689037
0.2587580852812626 15.569175729060802 1884152.3182215001 3.8172107019432735 0.1742204699197911
0.26932877934502786 15.299557948646289 1560082.7103762815 4.0133479839135875 0.1766251495756314
0.2801757295640017 15.059747440211257 1297215.9159113623 4.217496345089144 0.179057131592424
0.29131547223915116 14.845549260212362 1061833.8551468302 4.4244180138835105 0.18138953202814398
0.30273414228670203 14.653834556116555 906702.3286602121 4.6463454388786305 0.18389107585278436
0.3144388620244948 14.482266184843962 761920.9560773658 4.868876861315654 0.18625773766058312
0.3264335868109804 14.328256061517383 642231.1044780988 5.102443637243374 0.18869628108263428
0.33869970636300356 14.189824879309931 534438.7589843743 5.349695298684741 0.19125218221346166
0.3512599938165175 14.065473168356306 460465.075931564 5.595609130803787 0.1936330695638175
0.36409585548707957 13.953642543352277 391538.38748372527 5.85856969782857 0.19617899990973084
0.37721616891770465 13.852884162817157 333737.1912615628 6.129134468106135 0.1987039977611899
0.39062581110483113 13.762097291771044 285142.6956212235 6.405527395417886 0.20116888857758985
0.4043173170630885 13.68049752935432 244224.3371359848 6.700830491476814 0.20380242155764733
0.4182899865317145 13.606832121140947 209611.38206981056 6.99760817018963 0.20630241125948282
0.432552398739279 13.54077542982462 180289.9764622011 7.307521251508666 0.2088575311082687
0.44709687493693434 13.481416850175862 155384.47656906908 7.6383795209699334 0.21158533636204296
0.4619259529593338 13.42813196686054 134172.25360002575 7.964570240911268 0.21409137781437892
0.4770459834616573 13.380361674856564 116075.16869640602 8.311547819773283 0.2167519731499898
0.4924346820204137 13.337583382620256 100589.1945129693 8.67636066834652 0.219515162227434
0.5081069726756786 13.299525053566157 87338.499219935 9.040737784710933 0.2221170950855614
0.5240587318915495 13.265542322982034 75942.9793635242 9.428877811457975 0.22488871340019115
0.5402870743303549 13.235575917936579 66149.53781398709 9.830724527256983 0.22767911325601448
0.5567990991565142 13.208984654931038 57704.495294667024 10.23813786163099 0.23036908980130874
0.5735954428757573 13.18563902498762 50406.58766476768 10.671887567305822 0.23323295417773213
0.5906540246286223 13.165207753313553 44098.13330426743 11.115452476078387 0.2360549757797925
0.607996274534662 13.14746392256726 38630.01985535819 11.570588030151498 0.23885041064500245
0.6256059817483111 13.132200418516836 33886.63567607034 12.054911219976123 0.24182511547469362
0.6434793214312948 13.119108501156779 29524.782581877862 12.545042062139299 0.2447052198701122
0.6616233884532055 13.108073813183811 26175.8997597774 13.053427826437083 0.24762450102195543
0.6800273079028081 13.098893149898773 23047.63878368095 13.59419472999541 0.25072972296159607
0.6986886088885073 13.091556042066044 20320.424561740896 14.136095544353731 0.25368142244154956
0.7176111463851341 13.085560693710532 17933.799627964978 14.70414834670686 0.25673617728930015
0.7367748286272067 13.081024363877278 15846.78471099642 15.3081829408143 0.2599844274465306
0.756177358371259 13.077749789977803 14018.67797395984 15.907400445480285 0.262989865233975
0.7758378795652217 13.075639506200003 12413.505266900196 16.542209271997923 0.26616482230198124
0.7957283328644971 13.074487761489612 10930.720978034771 17.21239462733463 0.2694968019651527
0.8158515237332511 13.074228423976669 9764.119407966185 17.880661962439337 0.2726308658598405
0.8362031479240547 13.074830866408542 8673.64684622816 18.59031971931443 0.275959044025333
0.8567728869066643 13.076055934207485 7711.644925852096 19.331994914730373 0.27938887453348943
0.8775500191639707 13.077922125465095 6863.427120299175 20.079926718677388 0.28269184805297887
0.8985489482588089 13.080366350696085 6114.008520281895 20.874078010329434 0.2861989334221963
0.9197319841541292 13.083145567225404 5451.550208721646 21.694911133343165 0.28974042415339274
0.9411105500599442 13.086322457580007 4865.4371133004115 22.53308097309648 0.29323320204238085
0.9626740230539057 13.089713876022623 4345.997418462642 23.422999553099643 0.2969416245980643
0.9843899356914666 13.09343607647298 3886.1049216906945 24.331393706601244 0.30058365066814424
1.0062923815118379 13.097143709889563 3477.2236544708776 25.271733609106576 0.30425836948478313
1.0283466182343575 13.100971272486067 3114.1795409008137 26.270142676116233 0.30816001459786224
1.050551466503161 13.104848359113015 2791.458695860958 27.276574155559135 0.31192059654778137
1.0728963630252142 13.108627275739755 2504.138699163392 28.33296591541025 0.3158291377189402
1.0953571856898845 13.112336818094912 2248.380015311632 29.44942245086928 0.31994432247431315
1.1179281705041826 13.11584566149798 2020.5330160010722 30.56999498145893 0.32388284907521336
1.1406116546968657 13.119107145158566 1816.9954327813296 31.759075881862298 0.32806216512037534
1.1633719133568072 13.122138884671825 1635.493083529148 32.994650443423645 0.33232907514482524
1.186223193118664 13.124906054724391 1473.2470112377025 34.25843693495193 0.3365583487558609
1.20914248490948 13.127182604069962 1328.0296596318913 35.59981664228026 0.34104728880753216
1.2320838198070092 13.129008953595614 1198.1588454379523 36.967788635200215 0.34545360524767943
1.2550856935353532 13.130430836383978 1081.8574189186004 38.39593094558088 0.34997985241913904
1.2781199892433404 13.131356221013375 977.5096679026703 39.90497526993994 0.35474459771527594
1.3011437119776368 13.13177083520178 884.0212373063865 41.42907107361865 0.35936471999185093
1.3241773825744663 13.131515902375627 800.0326483603695 43.04656970112535 0.36426798225609675
1.347186968927147 13.130652913159217 724.5610080597145 44.71829402455807 0.3692285279804441
1.370159513761265 13.12908027875351 656.7231980992887 46.448403117453935 0.37425705115952723
1.393076273499176 13.126788396339578 595.7120007504684 48.28473391191395 0.379592746035744
1.4159197053465404 13.123794534012601 540.7550949845288 50.140157087236275 0.38477215465368075
1.4386883756100446 13.119992032742086 491.25216298959003 52.109736100553654 0.3902702289749262
1.4613377257802525 13.115359608358121 446.63914958832504 54.14659818762679 0.3958223271686337
1.4838811351006063 13.109896509159862 406.38574631873917 56.26346220952297 0.4014793387761385
1.5062904307578002 13.10363592154209 370.04557418676677 58.49628604354965 0.4074149862571473
1.5285119066008084 13.096124609383075 337.17261912462254 60.777064742529326 0.41329719013466054
1.55057979610986 13.087892289972372 307.50092873662794 63.199497681539455 0.4195447249933628
1.5724531885508921 13.078646576724545 280.64338454634657 65.68340058788311 0.425779235354846
1.594121581526596 13.06833703710574 256.32059730920406 68.30022550073673 0.43230500263947585
1.61553684474981 13.056987590180215 234.30246187519867 71.01972241964899 0.43897059333154886
1.6367176042907219 13.044632028667511 214.33918399299048 73.85397826148576 0.44581159643750595
1.6576195920225565 13.031126655108334 196.22954898281102 76.82820822318547 0.452913101817787
1.6782308895966582 13.016472407762521 179.8039366108042 79.90554664779972 0.46009121778713663
1.698532155956439 13.000636581215337 164.8675790867384 83.15702677047838 0.4676411839708802
1.7185079319287562 12.983615234097137 151.2983835615789 86.50665062124514 0.47523696970135976
1.7381206252330705 12.965392928298552 138.9649899182822 90.05995729298245 0.48328013863873576
1.7573719542179105 12.945984064378253 127.73467494607326 93.71544271419069 0.49135097028921076
1.7762363139721686 12.925252703918568 117.50668774493721 97.59920281364778 0.49991778484369986
1.7946768361472476 12.903209362847022 108.19194657714107 101.59866995913829 0.5085182033068925
1.812691324956278 12.879917858173139 99.69533749779148 105.84607989069349 0.5176366316524298
1.830235362892186 12.855237399068958 91.95127490264974 110.23276648495207 0.526819243607651
1.8473460265429098 12.829344781205045 84.87840476203849 114.8823382307092 0.5365208620282123
1.8639323234970333 12.801986862845272 78.42115711469934 119.7059272327205 0.5463920807054912
1.880035895164407 12.773313988519195 72.51256551506059 124.80161004524534 0.5567570657976655
1.8955836219959221 12.743181393630747 67.1127695573736 130.11950344321565 0.5674081003050898
1.9105923468963968 12.711607122685841 62.1684146584587 135.71269649217055 0.5784948281061064
1.9250120732217122 12.678606081923128 57.64352650540337 141.59088554811396 0.5900154825458304
1.938876139243783 12.64423801493243 53.49573627162003 147.74148882840757 0.6018813129742282
1.9521257804503052 12.608491762260323 49.69905780998582 154.25115797260676 0.6143595520672442
1.964725001616043 12.571066308423024 46.20741096086981 161.03411021721118 0.62712922735836
1.9766847080737504 12.532209830260205 43.00944612192444 168.20897062564575 0.64054513407202
1.9879893599525462 12.491896779918996 40.07090864382652 175.76070758622464 0.6545111472984758
1.9986080778399835 12.450079488874417 37.37124470094792 183.68933123004658 0.6689647840429482
2.008543881409079 12.406779470729909 34.89053317020922 192.07966013001123 0.6841363404522257
2.0177519502445977 12.361959440039655 32.605926165962295 200.9065435962406 0.6998787921016791
2.0262504757021182 12.315681608671206 30.506472918657174 210.21215769873928 0.7162866288591505
2.0339711771311855 12.26774720129235 28.572662636097352 220.06485183213059 0.7335151512328383
2.0409621745551374 12.21844701038263 26.790683640089554 230.4661798323386 0.7514991957471813
2.0471836083284525 12.167629461836173 25.152161915346603 241.44110819371957 0.7702211775258981
2.0526102786108473 12.1152702005873 23.637066886511462 253.07494412423625 0.7898768840827345
2.057248788695531 12.061495971840062 22.242206767906044 265.4097586946519 0.8105117621624223
2.061070353923751 12.00613945564429 20.95380687746563 278.45455101859915 0.8320678400966488
2.064077728002712 11.949410398948013 19.76680788356702 292.2760008023034 0.8546467832226942
2.0659998583943326 11.892594272983501 18.709850552164575 307.58284803709347 1.1989151195901382
