M[M_sun], R[km], Lambda[1], P_c[MeV/fm^3], rho_c[fm^-3]
0.23848912294887037 16.21570186450063 2784644.0411725277 3.4469561053153734 0.1694538074003404
0.24847784932197092 15.872709990316048 2285195.5274304645 3.6326487785872073 0.17193354745142195
0.25875550315979023 15.569316388795679 1884287.5184759535 3.817180566299543 0.17422010045117878
0.26932510514817554 15.299664322174637 1560104.4886849101 4.013299420868528 0.17662455418364217
0.2801726316339926 15.059746192065525 1297161.8666897793 4.2174326893567535 0.1790564140713503
0.29131296907920945 14.845477796844877 1082586.3427771935 4.424332719100718 0.18138857059384997
0.30272773840869543 14.653959962427022 906773.444537877 4.6462356059619 0.18388983782708926
0.314430949290039 14.4823970190619 761988.8525846138 4.8687510542599055 0.18625642417767432
0.3264250163914371 14.328329907387 642320.2534837252 5.102289673012635 0.18869467362600603
0.3386882767354093 14.189991454877553 543134.9565768295 5.349524832581189 0.1912505317955648
0.3512483480339897 14.06564295596168 460537.62254236627 5.595406695003508 0.19363110962186553
0.36408490860019593 13.95378545056887 391599.2068902503 5.8583314671609505 0.19617669340920538
0.37720684529467957 13.852945023617226 333773.59567514516 6.128878903845788 0.198701718621834
0.3906111053880141 13.762188558741913 285209.0097902855 6.405231736210976 0.20116625186878914
0.4043019690776328 13.6805865449377 244257.2736097633 6.700490143455176 0.20379938631097488
0.41827153159494995 13.60702784257599 209666.09754084516 6.997249835552685 0.20629945692164245
0.43253483739498433 13.54086842221076 180309.27856822667 7.307113391253555 0.20885416844984547
0.44707680580322 13.481481363673591 155416.10092042648 7.637916666097569 0.21158152029314242
0.46190410724330866 13.428208119077647 134208.1358191111 7.964088648161747 0.21408768500106448
0.4770173190549648 13.380426209494603 116102.27169971859 8.31100575152129 0.2167478166155314
0.49240754085089145 13.337699227387864 100622.57567596823 8.675798308446813 0.2195111465452316
0.5080787545510783 13.299595504538155 87360.0054195225 9.040109084941436 0.22211260568566585
0.5240325942311698 13.26557157806381 75962.3314006948 9.428175909967635 0.22488370128370835
0.5402575631146364 13.23556883030038 66167.19111900062 9.83000124217312 0.22767433771297993
0.5567678303966973 13.20897437974134 57716.64041845637 10.237334702299 0.23036378688266837
0.5735595535775011 13.185638961979823 50419.878654715896 10.670996472207358 0.23322707065671733
0.5906179404479722 13.165249258184256 44110.59023967038 11.114538864003531 0.23604936438990115
0.6079590717091342 13.147501599175833 38641.064671868015 11.56957888451219 0.2388442124895761
0.6255664037968043 13.132222254026665 33896.35873107838 12.053797105088487 0.24181827259992175
0.6434387758483753 13.119125282172934 29774.021251681294 12.543903584191787 0.2446986824384071
0.6615805134861296 13.108115006552785 26183.80263956421 13.05217562668718 0.24761731057056016
0.6799808792880855 13.098912000894224 23055.198815776796 13.592817786213061 0.2507218161980451
0.6986420723882523 13.0915305650151 20326.86625602565 14.134691630560283 0.25367387276932085
0.7175596928915349 13.085590476040922 17939.9500835503 14.702609525885 0.2567279021424372
0.7367186698875169 13.081072956779632 15852.550556148164 15.30649634892719 0.25997535764752255
0.7561265997389846 13.077752820111247 14022.414565706844 15.905684244250693 0.2629812817597125
0.7757753529205557 13.075603855284044 12418.13172841872 16.540333542648312 0.26615544095769705
0.7956689430117041 13.07450443952382 11008.109440405484 17.210483739514984 0.2694878402155538
0.8157903012212327 13.07422137015037 9768.05929682463 17.878578754709896 0.27262109595820533
0.8361366682309217 13.07479812983339 8621.551201567248 18.58804833810048 0.27594839162100354
0.8567062795787005 13.07604990617954 7714.569619591429 19.329682685720478 0.2793786634004017
0.8774808146207193 13.0778894583953 6866.033359653447 20.07741128228836 0.2826807395271225
0.8984800107840825 13.080341828839599 6116.1601671792505 20.871340869851956 0.286186845819465
0.9196603739055144 13.083080509356598 5453.519890618331 21.69212553974439 0.28972881617220797
0.9410355817342803 13.086319977838963 4867.343625000531 22.530055886476752 0.2932205960582992
0.9625960859277083 13.089729112973615 4347.626667457583 23.419713363031995 0.2969279305572352
0.9843138825702641 13.093368066196282 3887.4203653269597 24.3280505693809 0.3005705861483706
1.0062147108436086 13.097114579642579 3478.4665936266183 25.268108380726837 0.3042442025916138
1.0282706989539185 13.100959462059475 3115.46713689916 26.266210081346717 0.3081446465591783
1.0504782679076305 13.104986198318251 2792.634208013574 27.27257367404861 0.3119057951764695
1.072802843044802 13.108620284608065 2505.2591528643406 28.328633187113432 0.3158131070685933
1.0952800711236095 13.112508067508749 2249.5153850902793 29.44500427947453 0.31992879372888117
1.1178317923332808 13.115705539786367 2021.232644809493 30.56521674810003 0.32386605480382474
1.1405159643028333 13.119088852080663 1817.849737108378 31.753905943433185 0.328043994105584
1.163274644607616 13.122107973435641 1636.1530333761366 32.989375186975735 0.33231142144854336
1.18612337032795 13.124876933208565 1473.8912071958157 34.25273648008333 0.3365392721289874
1.2090372273147103 13.12717055814575 1328.6627845344533 35.59365370123119 0.34102666446622143
1.2319783482505549 13.129055974732086 1198.786368096696 36.961497198952166 0.34543366564130046
1.2549841227134797 13.130436005078545 1082.3241836039315 38.38913675686367 0.3499583194267754
1.2780036401875121 13.131371498705583 978.011573803714 39.89802409069322 0.3547235260096727
1.301030676684773 13.131733342603514 884.4551354362529 41.42157197953064 0.3593419873450144
1.324074512276902 13.131505892137868 800.3351793169024 43.03847513415376 0.36424344450125584
1.3470612071728074 13.13060256983732 724.9040983740399 44.71000408279444 0.3692044334510975
1.370041560999039 13.129106459974816 657.0291952535772 46.439462680079764 0.37423106597931416
1.3929595050306018 13.126889134372925 595.9900018545143 48.275555602673634 0.3795671248111039
1.415792484028484 13.12378550460598 541.0378234955108 50.13026598333602 0.38474454366473587
1.43856222251733 13.12002911367856 491.510770080984 52.099070597969956 0.39024045625421677
1.461218865960602 13.115472229621664 446.90373984471626 54.135639384934436 0.39579304136029
1.4837542805240094 13.109885660901178 406.57623967788396 56.251652879162535 0.4014477800561476
1.506139624895072 13.103483493144097 370.2257228727689 58.48412564785405 0.4073836241935044
1.5283818215642033 13.09618165436601 337.35259525750155 60.763967470792046 0.4132634118366466
1.5504569815926896 13.087953604643532 307.6592203855259 63.185382458192564 0.4195083213644004
1.5723276401636634 13.07869977500262 280.7955901312063 65.66884801252793 0.4257429445355048
1.5939989731082929 13.068404777262009 256.45268299724614 68.28454826808623 0.4322659071801497
1.615413172208135 13.05713996881287 234.42627263297476 71.0035234646556 0.43893149414375243
1.6365954737062214 13.044713994160205 214.44926042610206 73.83653273387479 0.44576948841507197
1.6574893280763674 13.03119074619923 196.34230473218872 76.81014596847595 0.452870970293371
1.6781019212691883 13.016542409423367 179.8917079224234 79.88609851443287 0.4600458535998318
1.6984009814003458 13.00072440236758 164.9560556759879 83.13685128922128 0.4675954329733158
1.7183752382876432 12.983705240451155 151.37686866521355 86.48492963687524 0.47518771403849147
1.737997125277804 12.965552508992364 139.04025628684138 90.03737848896843 0.48323028760527
1.7572567704676647 12.946107971042812 127.80071056403143 93.69113478772195 0.4912973015804907
1.7761139889262152 12.925397181170537 117.5706746943214 97.57388667064797 0.4998633452356841
1.794563866231465 12.903411121149725 108.2495343614556 101.57141308753413 0.5084595903734026
1.8125762836461727 12.880096558973483 99.75306541774887 105.81764202864011 0.5175771029292212
1.8301338056075311 12.855469643871455 92.00210668852439 110.20214368227671 0.5267551411677098
1.8472307581413707 12.829522847015292 84.92155865101539 114.85033212072477 0.5364553632242027
1.8638206424715782 12.802188622762687 78.46188569847155 119.67145348878263 0.5463215320196697
1.8799239281634466 12.773563514200097 72.55465719462488 124.7655145849831 0.5566847713825572
1.8954696726898574 12.743357949051097 67.14701238212146 130.08061196639161 0.5673302058399892
1.9104932184758743 12.711834253704309 62.19897851809317 135.67190535596282 0.5784148816157877
1.9249274038240738 12.678913115882843 57.67604643635985 141.54691602600803 0.5899293067414727
1.9388054749886612 12.64464381375629 53.52581864899184 147.69529516483294 0.6017927159918628
1.9520306758747932 12.608700086136837 49.72289518079016 154.2025352964035 0.614268014376205
1.9646204460884018 12.571287649240078 46.23409018858528 160.98168438054395 0.6270305297873078
1.976601280626961 12.532542260929896 43.032703343041405 168.1536978883598 0.6404429139094233
1.9878970523065373 12.492196829177862 40.092888250838755 175.70107229805262 0.6544008591319623
1.9985429065515663 12.45050109923611 37.39227565386314 183.62635630612456 0.6688504374580935
2.0084678867312817 12.407094549440238 34.907621365448996 192.00252089444024 0.6839860038416438
2.017669415060999 12.362287350056373 32.62546546916238 200.7736200432745 0.6995694149465886
2.026160026078241 12.315950974403542 30.523155913208956 210.1501254490885 0.71622843749178
2.031764649645329 12.272075930609665 28.88946744320163 220.8493042281253 1.2424348981382891
