M[M_sun], R[km], Lambda[1], P_c[MeV/fm^3], rho_c[fm^-3]
0.23848912294887037 16.21570186450063 2784644.0411725277 3.4469561053153734 0.1694538074003404
0.24847561232621448 15.872843607334934 2285435.7824984803 3.6325955867750688 0.17193283712793625
0.2587510502852388 15.569370053523 1884476.209225455 3.8170761057251292 0.17421881974505493
0.2693153705283566 15.299942273527403 1560596.1576669237 4.013131086768615 0.17662249037618352
0.2801598531641823 15.060033076071669 1271254.6019593542 4.2172120417913685 0.17905392695397568
0.29129336345187645 14.845989049747832 1062202.9002883497 4.424037068774787 0.18138523805283074
0.30270924674627375 14.654187043544441 906994.5205589699 4.645854906278865 0.18388554661818995
0.31440909913993925 14.482602190906597 762242.9715069269 4.868314989294572 0.18625187146101085
0.32639884033783206 14.32870983010865 642591.1444240445 5.101756018530614 0.18868910203038158
0.3386593322064567 14.190248530077598 543325.6777307397 5.348933985556498 0.191244811335699
0.35121308761718634 14.066037403138207 460770.5086895042 5.59470504830298 0.19362431642223413
0.3640447461991675 13.954086129773067 391771.50249243196 5.857505766146352 0.19616869914111604
0.3771580719739409 13.853372940313127 333986.8847345402 6.127993130513937 0.19869381923536153
0.3905585864788992 13.762591891879671 285381.3108548331 6.404207009879507 0.2011571132900696
0.4042485810823556 13.680860144750817 244397.69823277884 6.699310546734611 0.20378886658765252
0.4182125035552446 13.60728184641343 209794.72657658954 6.996007905762378 0.20628921766538225
0.43247198899363093 13.54113132079357 180440.18653507959 7.305699833660408 0.2088425141852101
0.4470090830453942 13.481742801234992 155525.20729067666 7.636312532052967 0.21156829479546407
0.46182822420120845 13.428547949700306 132814.57473802636 7.962419579456879 0.21407488672047945
0.4769378560018216 13.380654480783448 116189.66940187001 8.309127118417866 0.21673341141249586
0.4923219987151232 13.337983004925151 100706.62930447841 8.673849356785414 0.21949722953140458
0.5079899346712833 13.299784389942932 87424.37338032626 9.037930252796784 0.22209704714838427
0.523934120447221 13.265778851738489 76026.7895514549 9.42574342470869 0.22486633146810275
0.5401574057999107 13.235760387323856 66220.66056784007 9.827494655444633 0.22765778778950052
0.5566557617321011 13.209152572960855 57766.83628776624 10.234551347673962 0.23034540957876865
0.5734434823841598 13.185749881305663 50464.28727805297 10.667908422220348 0.23320668157925006
0.5904929958841482 13.16539646184499 44152.188395177014 11.111372785364162 0.23602991838851697
0.6078263532382314 13.147650752491634 38679.67565647225 11.56608179156147 0.23882273340389748
0.6254288543126615 13.132353285632782 33930.28105962707 12.049936311423984 0.2417945596706185
0.6432867091375561 13.119243441726722 29806.102847398142 12.539958364533877 0.24467602797757038
0.6614286755403265 13.108120314419592 26211.568553748995 13.047836388498014 0.24759239355448973
0.6798147308973 13.098954797826627 23081.40943788055 13.588046348915503 0.2506944173840968
0.6984725965178346 13.091533414640095 20349.20132393328 14.129826732984094 0.2536477113466624
0.7173856753099909 13.085665659376216 17959.90697467107 14.697277227172217 0.256699227228283
0.7365389577102713 13.081105744360702 15871.397320999222 15.300652090669042 0.25994392962503654
0.7559342999287575 13.077766594825144 14039.493895748083 15.89973737823374 0.2629515388772819
0.7755806860564824 13.07562846272618 12433.171158613412 16.53383399525874 0.2661229338735776
0.7954645445134195 13.074475545122361 11021.27587549605 17.203862355640798 0.26945678701417336
0.8155762974214683 13.074224607863018 9780.615894805072 17.871360384309018 0.2725872429881984
0.8359188963661175 13.07478365501199 8687.488949074932 18.580178071493684 0.2759114813650054
0.8564820344196195 13.076070995753676 7724.216907556633 19.321670867435717 0.2793432820681761
0.8772507199136195 13.077957233396111 6875.212042752223 20.06869549899937 0.28264224938503574
0.8982334930752937 13.080301159785927 6124.487486237898 20.86185706026128 0.28614496396369077
0.9194111408644612 13.083112826130266 5461.35408400711 21.682473825104037 0.28968859604749364
0.9407725193932757 13.086279080001002 4874.018838357502 22.519574537298023 0.29317691872356116
0.9623267908741335 13.089700814867962 4353.832225410824 23.40832753755989 0.29688048413579327
0.9840396334778783 13.093300616334725 3892.941083788736 24.316467405798992 0.3005253207405567
1.0059353099136343 13.097107637962855 3483.4993152798475 25.25554805725651 0.30419511857754983
1.0279669452516809 13.100867799767816 3119.9663191921873 26.2525850684002 0.3080914018852916
1.0501763776835038 13.104868707790045 2796.760450976 27.258713417463387 0.3118545136485695
1.0724866091404757 13.108544402018037 2509.1188449968454 28.31362208006459 0.31575756751200557
1.0949430259136166 13.11227929740321 2252.8302267832646 29.429697107272553 0.31987499292326055
1.1175154723867882 13.11580885276739 2014.6176835377385 30.548662402857204 0.3238078705031039
1.1401772380469763 13.119037388066797 1820.6276588889498 31.73599485118671 0.32798104118523463
1.16293694740163 13.122100631275423 1638.770524656847 32.971099175324426 0.33225026060032253
1.1857696684014127 13.12475583581574 1476.1561366659635 34.23298774075837 0.33647318278348626
1.2086818055186137 13.127165057282442 1330.8210670438457 35.572303120418745 0.340955214542824
1.231608994279293 13.128952198451342 1200.6819949311807 36.939701406908256 0.3453645876920153
1.2546106823711192 13.130438471957396 1084.1069046655 38.36559969575292 0.3498837228298518
1.2776290539835873 13.131357081183564 979.6342135044528 39.87394311250965 0.3546505272759454
1.3006488436882275 13.131708928513065 885.8671138371968 41.39559335451477 0.3592632361117514
1.3236826549602334 13.131571520819472 801.7234046646184 43.01043419898683 0.3641584416104218
1.3466779362046248 13.130670673030728 726.1464987944967 44.68128627622349 0.3691209657919843
1.3696456892634674 13.129150456651278 658.1891276330572 46.408492052929226 0.37414105054783836
1.3925561864611382 13.126880043006532 597.0170049018334 48.242360236483 0.37947114719102054
1.4153976019214058 13.123920721950194 541.9814350669159 50.09600277542124 0.384648898015424
1.4381446231736588 13.120066586847777 492.37504404134444 52.06212559249894 0.39013732437450793
1.460797199258483 13.115513926888307 447.6767344803683 54.09767834819943 0.39569159600375237
1.4833317833380526 13.11002892799987 407.3043224302553 56.21074647670547 0.40133846363755515
1.5057217835351904 13.1035827446473 370.868003141354 58.44200316087 0.40727498890311914
1.5279657314741881 13.096381496802278 337.9756189290885 60.71860067718955 0.41314640937193653
1.5500263542048864 13.088129693150307 308.2119007361121 63.13649069209755 0.4193822278787715
1.5718945733926202 13.078868469964785 281.30224261727113 65.61844135564075 0.42561724177609356
1.593550445089036 13.068582829862894 256.9244206954513 68.2302472417802 0.43213049274747245
1.614971070357181 13.057275343576924 234.85270392696302 70.94741538995943 0.43879606688005945
1.6361606145872436 13.04499932274552 214.84608444513964 73.77610825276872 0.44562364270247934
1.657056664402161 13.031458472915908 196.69554236940195 76.74758547001399 0.4527250433750092
1.6776720498854698 13.016896230189754 180.22977271548518 79.81873938643999 0.45988873352864956
1.6979650990635773 13.001092062947306 165.2703999432298 83.06697312042967 0.4674369735100964
1.7179422477477566 12.98411630712924 151.66536033729838 86.40970029998186 0.4750171199810252
1.7375680566657106 12.965934958446217 139.29672597600032 89.95917837818295 0.48305763203248714
1.7568202827855994 12.946483389171982 128.0381564409461 93.60694793531039 0.49111142806857483
1.775701536997129 12.925971389755526 117.79631237880072 97.48620834983717 0.4996748025569492
1.7941412955589935 12.903919771677412 108.45478623989379 101.47701560698225 0.5082565988735143
1.812157726607777 12.880629420951822 99.9406700686345 105.71915494183503 0.5173709407880929
1.8297400878324752 12.856150669526508 92.17506094525878 110.09609219483406 0.526533144534138
1.8468313623253287 12.830119779900022 85.0835299761904 114.73949064952913 0.5362285320409848
1.8634407343884825 12.802864060701475 78.611102964711 119.55206922952439 0.5460772184744502
1.8795367165048968 12.774228833634805 72.69091197135161 124.64051506742044 0.5564344139429968
1.895103411839794 12.744148767802502 67.27473674276742 129.945933195021 0.5670604621400057
1.9101225771506471 12.712662949960729 62.31888378257259 135.53064925368702 0.578138033980175
1.9245733288668998 12.679751829670748 57.784712382632335 141.3946574278579 0.5896308953297148
1.9384409094479058 12.645420327649338 53.6275752019062 147.53533613541643 0.6014859231070442
1.9516752005545868 12.609573690153885 49.816341738402905 154.0336745565872 0.613949389521105
1.964307507886839 12.572281706766075 46.32128120526828 160.8001512536124 0.6266887731300438
1.976289712988659 12.533557465981888 43.11519026308104 167.9623089301588 0.64008896345596
1.987610934116871 12.493290074102465 40.16882312992182 175.49458317375937 0.6540189827694708
1.9982570979698335 12.451582505443055 37.463028376785964 183.4083061425926 0.66845451333506
2.008202160972816 12.408352880789792 34.97351553612222 191.78241111794767 0.6836062067738825
2.0174461149162477 12.363607064197472 32.68657832342996 200.58561788316155 0.6993064318183988
2.0259406036888197 12.317335896070524 30.57896185482259 209.872169206279 0.7156897611511058
2.0337082039819254 12.269510659002275 28.639774122873707 219.704108595003 0.7328914210289046
2.0407173447847273 12.220258805990486 26.854855228906505 230.07633188185582 0.750825143078602
2.046980043242405 12.169571144566646 25.201746459427465 241.0268114541042 0.769516263587491
2.052440764454613 12.117291707129198 23.689467139402748 252.63403572470003 0.7891381423553481
2.057063898656414 12.063450759058528 22.292474106787864 264.93987995319105 0.8097353034408854
2.0609452284255743 12.008314251376547 21.000951850504098 277.94603952426615 0.8312275420581612
2.0639622307511782 11.951537684556673 19.81020082958977 291.7409230297692 0.8537881317436059
2.066169202549168 11.893356105907268 18.711076259192264 306.3942838052701 0.87750562634495
2.067565286944656 11.833838406972996 17.696068833345798 321.96794427399385 0.9024413130226702
2.068111272932841 11.7728863231132 16.759081188448675 338.5299138561196 0.9286763165652777
