M[M_sun], R[km], Lambda[1], P_c[MeV/fm^3], rho_c[fm^-3]
0.23848912294887037 16.21570186450063 2784644.0411725277 3.4469561053153734 0.1694538074003404
0.24850628316798393 15.87185914552442 2284011.048141024 3.6331714102442763 0.17194052667482998
0.25881364431013426 15.567672992294655 1882352.2803964259 3.818207038642858 0.17423268519354115
0.2694089276962619 15.297620522554022 1557920.4983424726 4.014953724504115 0.176644836254736
0.28029008141606687 15.057397566940674 1294749.2250297752 4.219601295391333 0.17908085838252094
0.29146323044810385 14.842791346324773 1079997.7057802933 4.427238802008631 0.1814213276708644
0.30291914282873056 14.6510836476364 887706.8448730513 4.6499781050372375 0.1839320229038135
0.3146548360982985 14.479296148078856 759522.5930392077 4.873038141577164 0.18630118332004694
0.3266889577620285 14.325151717788238 639971.319679613 5.107536788777231 0.18874945590221665
0.3389950730759707 14.186904505334814 540970.4131395308 5.355334661273341 0.19130678136689508
0.35158834506972836 14.062440103033364 458524.492886473 5.602306803712972 0.19369791506099387
0.3644733328356863 13.950581919873184 389702.6734438201 5.866452492188013 0.196255319510032
0.3776306636910353 13.849894027851887 332104.00733472017 6.137591208812266 0.19877941554668085
0.3910879029030061 13.759186208369277 283633.6905108021 6.415311926808108 0.2012561476901913
0.40482597476086485 13.677588740199733 242832.79813337827 6.712095171965261 0.2039028807399995
0.41884555432217674 13.604160974001111 208370.10517077942 7.009468594933926 0.20640019611757981
0.4331585642815952 13.53813936587295 179157.63428646055 7.321022366925692 0.20896884286005396
0.4477544351142895 13.478953807239778 154365.73716695126 7.653163814619939 0.2117035391304291
0.4626332480345672 13.4257852769726 133262.83533456328 7.980514270660691 0.21421363531390175
0.47780474845661347 13.378040677550915 115239.3028455133 8.329495983738159 0.21688959818468037
0.4932508807901519 13.335486869434392 99847.00676707366 8.694981117072993 0.21964812655257573
0.5089837417415616 13.297516611149343 86654.60882469517 9.06155711758372 0.22226576113469887
0.5249933107101457 13.263678191911298 75333.43330656363 9.45212383556001 0.22505470789110596
0.5412820041237837 13.233848316954832 65601.72324917802 9.854679094786517 0.2278372750523291
0.557854329611213 13.207406933710937 57210.03918285527 10.26474078421619 0.23054473755692387
0.5747126067807388 13.184110614555328 49956.81697580719 10.701406580098356 0.23342785563370474
0.5918294034750353 13.163881015057376 43699.674848830866 11.145717614586015 0.23624086374795383
0.6092434691781506 13.146340830785112 38268.78054902995 11.60402174337526 0.23905575994540915
0.6269135918579616 13.131101989211164 33561.92288476217 12.09182699662941 0.2420518515497143
0.6448561126217084 13.118224900955939 29473.163372883602 12.582765132366678 0.24492183539249324
0.6630678502857288 13.107342585153711 25913.562944911362 13.09492390917277 0.24786278214765325
0.6815459241257139 13.09829383563326 22812.143545081417 13.639830158525388 0.25099177327008154
0.7002671738673617 13.090906112057267 20106.559148581822 14.182624625322248 0.2539316367439193
0.7192611673946103 13.08511291677839 17742.26501604357 14.755154710308306 0.25701046858023685
0.7384945733510544 13.08069937159684 15673.911532463857 15.361788960340315 0.26026102314992056
0.7579756787623549 13.077532482402354 13764.811428267425 15.964292806282517 0.26327440885639986
0.7777102862122492 13.075441789624605 12271.909050025353 16.604397678552427 0.2664758537695514
0.7976785446951136 13.074434620619902 10876.405208446717 17.275747981537567 0.2697939187769204
0.8178793335232464 13.074223425136498 9649.168057179504 17.949736883484697 0.27295481587909853
0.8383071755063382 13.074933260326102 8568.87259360818 18.66564359061687 0.2763123005935597
0.8589453184284233 13.076220252295462 7617.448704268219 19.408672268546525 0.27972749266399644
0.8798089431122341 13.078119108878427 6777.464782551096 20.16335327668407 0.28306027163179187
0.9008862889719765 13.08064312662043 6036.441362932958 20.964869303758324 0.2865998807230241
0.9221361858076325 13.083502623631615 5381.713412567733 21.787308033943667 0.2901254557259001
0.9435984161951463 13.086642082418047 4801.693981083423 22.63343471621812 0.29365139095640286
0.9652368400610699 13.090196225249464 4288.713920561727 23.532029549437762 0.29739596874454216
0.987035542486418 13.09383266793778 3833.686799758449 24.442310880490837 0.30101709970598106
1.0090172399573076 13.097605151406341 3429.8736492407443 25.392025831561185 0.30472845492109346
1.0311477344334254 13.101463677492653 3071.1704734374425 26.40065166826801 0.308670025762892
1.0534291397882944 13.105367997399833 2752.431780021721 27.40933309130322 0.3124117909946863
1.0758377377239448 13.109102426965599 2468.895296852948 28.476770287011373 0.31636119914573024
1.0983730918858035 13.112786811112718 2216.3304072056626 29.596059757497162 0.3204597152017561
1.1210340034284312 13.116291622216135 1991.1974454148622 30.728604252276547 0.324440320202884
1.1437797441151463 13.11949632794118 1790.4498785571657 31.93071148747891 0.32866542049200836
1.1666170446730726 13.12254895817194 1611.2672053977908 33.16977893850317 0.3329151443327341
1.1895386860724873 13.125168952133915 1451.1350396627643 34.44770781243907 0.3371917455620935
1.2125216383867157 13.127503943620471 1307.9691901597628 35.80447283499367 0.3417321727186833
1.235540345422622 13.129298192523946 1179.8547237758103 37.17670752283236 0.3461157371076041
1.2586174319738956 13.13066570935608 1065.115883423473 38.62157735202414 0.3506949992231306
1.2816953373200262 13.131443723309589 962.3102893442386 40.13583150653145 0.35544441201749255
1.3047875251103096 13.131798693396156 870.1508191570337 41.67816046904949 0.3601198060316595
1.3278748950301422 13.131416302838423 787.3311858626791 43.315478470337574 0.36508314846284373
1.35092843220549 13.130413010090413 713.0052033744367 44.993688896854565 0.37002895698485194
1.3739522977367193 13.128745859454273 646.1666348366947 46.74545243114056 0.37512041831096143
1.3969317143496423 13.12639107995125 586.0344515113445 48.589683097629354 0.380444010836968
1.419824848369782 13.123252297963447 531.9173847652523 50.46883883686629 0.3856896688408669
1.4426274219536717 13.119258023231989 483.1627961914393 52.46420639394858 0.39125973181009116
1.4653104027114394 13.11440170944482 439.2491623092026 54.51081287654891 0.39679563801975326
1.4878896442693035 13.108754922569549 399.5928902207553 56.656005937412246 0.40252835486888394
1.5103155003488873 13.10222016520857 363.83711141660405 58.900497229529975 0.40845746030628294
1.5325926929564555 13.094710797947329 331.50343446262207 61.2124870904518 0.41442015880516386
1.5546853437112615 13.086263854504283 302.27838344699 63.668838822355546 0.4207551713552216
1.5765808045132554 13.076787675330522 275.84588481929734 66.1672834381376 0.42698592933665347
1.5982491970203716 13.066249084933078 251.92193252265045 68.82159035003656 0.43360516821807643
1.6196931912034798 13.054707437019337 230.25254948923143 71.55844031450222 0.4402708890696842
1.6408681650430763 13.042082583592444 210.62561187566186 74.43425022383998 0.4472121906386958
1.6617730373005788 13.028308411513507 192.81942495926376 77.42899991666557 0.4543144921929007
1.6823738254747564 13.01334948931295 176.65707904040545 80.5525465024749 0.4616003920631485
1.7026597726247732 12.997217115657628 161.97874372630815 83.8282349182294 0.46916325137247866
1.7226116711650588 12.979923015242612 148.63011991436932 87.22940124850393 0.47687591757903586
1.7422163159188078 12.961428012304747 136.50255364926844 90.81126846827775 0.4849389350266925
1.7614303151150235 12.941657865685196 125.46906075467331 94.52443425831771 0.4931371173550494
1.7802505430476683 12.920615416508756 115.42196088147246 98.44177370167297 0.5017296417632124
1.7986421241357646 12.898245791936267 106.26811739445537 102.50599669777816 0.510469310629763
1.8166108583808305 12.874571928801435 97.92372678610433 106.79275363952729 0.5196182953744547
1.8341156191601617 12.849598313735214 90.31197070272314 111.25236430752908 0.52895355864337
1.8511423518076584 12.823298310564795 83.36930932708403 115.94803969461424 0.5387017634670613
1.8676816728218617 12.795608824641869 77.01782001723205 120.85401112277586 0.5487415734035366
1.8836989367940966 12.766456033211831 71.21369619886221 126.00376296966606 0.5591648185153287
1.8991430052311749 12.735856065532207 65.91281353239715 131.4150295240247 0.57000286705939
1.9140653024460632 12.70392850060664 61.061148112668306 137.0325960651693 0.5810298533717918
1.9283866062152253 12.670510666343509 56.616078199997894 142.95732724868444 0.5925651734594441
1.9421471643103552 12.63566360432573 52.542816150754646 149.27639734841054 0.6048682626627937
1.9456999017938603 12.610594986960493 50.8858187839975 157.87301489795274 3.1562261201709747
