M[M_sun], R[km], Lambda[1], P_c[MeV/fm^3], rho_c[fm^-3]
0.23848912294887037 16.21570186450063 2784644.0411725277 3.4469561053153734 0.1694538074003404
0.24846884806301997 15.872984137922664 2285643.8162000435 3.632485755170186 0.1719313704366301
0.2587390553170034 15.569729381123423 1884949.0104261695 3.816860419445364 0.1742161753910403
0.2692981676428768 15.300225854961207 1560924.1108108475 4.012783527765391 0.17661822923798554
0.280135108441754 15.060577836958783 1298114.1887481133 4.216756482706629 0.17904879193735837
0.2912623239753287 14.846519360741304 1083478.5442029263 4.42342667469304 0.18137835775155287
0.30267325953552177 14.654943402030513 907538.1843186388 4.645068946280845 0.1838766873553949
0.31436000263682906 14.483290815368205 762862.8023284937 4.867414745613405 0.1862424725073359
0.32634431653951484 14.329361612336092 643059.3427744771 5.100654339506633 0.18867760000006725
0.3385956754647575 14.190892537633223 543803.3283096913 5.3477142600427925 0.1912330022031201
0.3511411537129381 14.066657182877078 454198.9103531059 5.593256637923739 0.1936102932096302
0.3639671628703396 13.954732357833345 392157.45313079166 5.855801326428308 0.19615219710489804
0.37706730607038097 13.853921663813782 334331.15896068735 6.126164714229738 0.1986775132952953
0.3904583013642112 13.763166223817466 285700.61912201246 6.402091835768767 0.20113825002431474
0.40413609898608477 13.681584203079298 244716.00081372727 6.696875781308968 0.2037671531849395
0.41808863021649945 13.607925866356906 210075.23863319692 6.993444509838602 0.20626808340484296
0.43233959943171063 13.541762359625615 180690.31065013743 7.302782288654914 0.2088184600952003
0.446866497137304 13.482275072371728 155743.67404086445 7.633001756675022 0.21154099866505535
0.46167551088324643 13.428952971733402 134504.70750171007 7.958974814391277 0.21404847254727588
0.4767718869817477 13.381116152391513 116372.18109642928 8.305249969879783 0.21670368175863833
0.4921479174342374 13.338381014033578 100854.21343542633 8.669827111947276 0.2194685076096983
0.5077963417050207 13.30017872682327 87574.35286963891 9.033433734708336 0.22206493855090087
0.5237293644108729 13.266215102943658 76162.25684603132 9.420723611933735 0.2248304861440848
0.5399396145428973 13.23614727303133 66341.96603343553 9.822321946103912 0.22762363459511983
0.5564280560999734 13.209503577568581 57875.590712362246 10.228807688291708 0.23030748664468953
0.5731991656942991 13.186149348924879 50566.31212332436 10.661536230406849 0.2331646087135036
0.5902401317997281 13.165646678303919 44237.5802785894 11.104839595713454 0.23598979164832457
0.6075631235938558 13.147893841163505 38427.14413025318 11.558865813684834 0.23877841298998473
0.6251462183532734 13.132518166198443 34001.76895028866 12.041970158418343 0.2417456316937679
0.6429901245284766 13.119389861424175 29868.843409936562 12.53181801364667 0.24462928399970302
0.6611189775749197 13.108362044197325 26271.630111622904 13.038883369177332 0.24754098302651978
0.6794868836091031 13.099120969889922 23132.85063659201 13.578201956295446 0.25063788836254414
0.6981374970819914 13.091748750658292 20395.214914846758 14.119789500164945 0.25359373522774303
0.7170270426329829 13.08570081361002 18001.7641692599 14.686276066889182 0.2566400675030492
0.736165303256401 13.081170318997126 15794.768120463505 15.288595161259439 0.2598790924067174
0.7555400798457083 13.07781005988485 14074.09052730875 15.887468727908361 0.26289017798178343
0.7751788657397828 13.075651162454477 12463.609097253531 16.520425652810516 0.2660558728784434
0.7950418399100057 13.074481600538926 11048.838012673259 17.190202621284065 0.26939272510659595
0.8151398609713317 13.07419271937373 9805.280530147802 17.856469652892706 0.27251740790686824
0.8354666676688056 13.07477639759577 8710.488138596662 18.56394318483279 0.2758353424166453
0.8560114761463211 13.076017027749536 7745.111454072946 19.305143911024928 0.27927029667152026
0.8767683061311793 13.07787616107504 6893.7604178372785 20.050717092854025 0.2825628541793401
0.8977299760749533 13.080206677925446 6141.235602814069 20.84229520126484 0.2860585760043658
0.9188795476505797 13.082999554661637 5476.621940980306 21.662565528637888 0.2896056352268981
0.9402404855603167 13.086156662938626 4887.780301850248 22.49795584817174 0.2930868304433727
0.9617727504098373 13.08961705995575 4366.36860041241 23.38484425614363 0.2967826258233112
0.9834695577649607 13.093258957780906 3904.3652478403837 24.29257696466439 0.30043196018727036
1.005348889607294 13.096965908823014 3475.0420139190915 25.229643278365977 0.304093886269768
1.027364249376624 13.100798940264886 3129.443651208534 26.224485631436618 0.3079815931560524
1.0495313944949791 13.10459779415862 2805.28513549275 27.230128627850704 0.3117487528585707
1.071857881559103 13.108458851509978 2516.883281724179 28.28266513771911 0.3156430300001761
1.0942923552788246 13.112124214661803 2259.8707246152208 29.39812940148249 0.3197640404899378
1.1168441455237406 13.11567996391215 2030.871421878475 30.51452412417421 0.32368788316178365
1.139492105837355 13.118993022675552 1826.5406670648865 31.699060304446807 0.3278512256749876
1.162237835108139 13.122049702899577 1644.0442701866832 32.93341188928996 0.3321241397362639
1.1850556034917263 13.12467401531874 1480.9438096765068 34.192265296874965 0.3363369047345852
1.2079489077269332 13.127085171350817 1335.1720576075393 35.52827960807521 0.3408078894366706
1.2308806879158456 13.128937723945347 1204.6750371381931 36.89475960865712 0.3452221525259006
1.2538461445088205 13.130358625844522 1087.799925089568 38.3170696760967 0.34972991542382287
1.2768606898770842 13.131317384140964 982.8110124908839 39.8242913404329 0.35450001360240235
1.2998685678636321 13.13170872226827 888.9413171882697 41.34203131451116 0.35910086890779863
1.3228830381589438 13.131551443333395 804.4878722336414 42.95262282827645 0.36398319304598536
1.3458649245646406 13.13073107230524 728.7100830993642 44.62207911852293 0.36894888151932925
1.3688202045927136 13.129167424919688 660.4529784160354 46.34464327114324 0.3739554754991403
1.391725977843087 13.126969110058692 599.1138955134301 48.1734663731778 0.3792709087263195
1.4145550232955006 13.123997712798033 543.8947249986795 50.02536912119167 0.3844517243666851
1.437288526236138 13.120263874353867 494.14589259594726 51.98596709727656 0.38992472814754997
1.459937851792071 13.11569817919197 449.2826981693052 54.01942516987708 0.3954824757515705
1.4824538387507626 13.110250980979725 408.8055505947441 56.126425825890045 0.40111312894648327
1.5048492861699616 13.10393667123223 372.2500947726798 58.355175651845315 0.40705105787882107
1.5270722374307666 13.096661023483284 339.2293858074469 60.62509027871412 0.4129052429541924
1.5491387035710305 13.088486051034382 309.36296048905785 63.03571970912687 0.4191223361729097
1.5710040617678365 13.07930780814536 282.3496017564675 65.51454798770287 0.42535815530139326
1.592649119974992 13.069041633705842 257.9008946895393 68.11833293349461 0.43185140386838666
1.614078495965408 13.057823926175594 235.745236078158 70.8317769270501 0.43851695196310186
1.6352500422471685 13.045500208528795 215.66269342813555 73.65158020502867 0.4453230711207634
1.6561543238083385 13.03206246046491 197.44683774183756 76.61865574214929 0.4524243053960118
1.6767729365482746 13.017540925338219 180.91576625767587 79.67992762985884 0.4595649449980548
1.6970740865445058 13.001858872356435 165.90314062845863 82.92297092137875 0.467110426441697
1.717058510446857 12.984943136876588 152.24954880649315 86.25467900776927 0.4746655854291562
1.736685432934787 12.96688761745711 139.83618397880244 89.79733164940632 0.48269909354297996
1.7559381257950437 12.947453228076268 128.5450991454072 93.4334791407655 0.49072843175589365
1.7748022798349143 12.926852980541153 118.25253835793684 97.30024795764272 0.4992657493912646
1.7932692703833986 12.904971479919439 108.87959005639378 101.28252033186456 0.5078383579693448
1.8113047110163973 12.881787706484419 100.33007616845012 105.51413970101974 0.5169379945028566
1.8288894101086015 12.857271779842055 92.53331472728892 109.88115328705187 0.5260852045923168
1.8459861064901586 12.83145795983657 85.42175939531275 114.52595246199188 0.5515586820610965
1.8615897983454597 12.804423203601205 79.21146622302292 119.46421012283825 0.6652208859522855
1.8749919550160807 12.775214721830226 73.90392275166293 124.75350208965398 0.7840378317799254
1.8861959663859535 12.742985700226036 69.31974096579887 130.50171707160337 0.9007720243424178
1.895342549816255 12.707506930362324 65.32486235313999 136.67729803623587 1.0204998962605967
1.9026146930590822 12.668536442696324 61.784426747837216 143.33520158526613 1.1406736823379047
1.9080451404022598 12.62584044758326 58.63813295878048 150.49222976639498 1.2623202793484292
1.9118475595970144 12.579792960431659 55.80927135389439 158.18536264081567 1.3888761025426932
1.914082978843284 12.530205214015579 53.25642566527596 166.44105234031477 1.5136877827729756
1.914889035149852 12.477323620390559 50.930675992322065 175.30504226689322 1.6440985633543792
