M[M_sun], R[km], Lambda[1], P_c[MeV/fm^3], rho_c[fm^-3]
0.23848912294887037 16.21570186450063 2784644.0411725277 3.4469561053153734 0.1694538074003404
0.24847943180739354 15.872597580984621 2285214.13923302 3.632663750552215 0.1719337473870501
0.25875912411750446 15.569154116518707 1884071.3264870495 3.817209969298314 0.17422046093742727
0.26932837173856417 15.299567019690349 1560117.4114314513 4.013346803266076 0.17662513510067274
0.2801755356229646 15.059711002222917 1297255.333894596 4.217494797510013 0.17905711414826622
0.2913129149775913 14.845640023231994 1082635.639872503 4.424415940216279 0.18138950865397352
0.30273401386539117 14.65383684527938 906709.4930786578 4.646342768637989 0.18389104575409787
0.3144358386014909 14.48237922871768 761973.1152035554 4.868873802708397 0.18625770572733158
0.32643281037762295 14.328275551508824 642276.9255009507 5.102439894070938 0.18869624200221075
0.33869917116507475 14.189782583708578 543075.3071578374 5.349691154312501 0.19125214208849856
0.3512595375805124 14.065530957057637 460488.14817316335 5.595604209169745 0.19363302191356485
0.364097796460791 13.953558083069055 391515.2567808753 5.858563905929552 0.19617894383375092
0.3772158360805003 13.852854734739331 333742.0702761673 6.129128254781922 0.19870394235034441
0.3906254743151775 13.762103106742002 285152.496755288 6.405520207276447 0.20116882447325843
0.4043159285483082 13.680517124021927 244226.9789341452 6.7008222168239575 0.2038023477637336
0.41829113520956374 13.606798428144886 209599.74359015067 6.997599458231228 0.2063023394325766
0.43255000838266616 13.540800200662721 180293.02925882614 7.307511335435307 0.20885744935387565
0.4470964236271714 13.481386261470668 155380.42199133674 7.63836826780817 0.21158524358384573
0.4619254168383718 13.428132731944501 134176.45721982137 7.964558532175687 0.2140912880327643
0.4770426784673326 13.380413410411123 114822.14446034354 8.311534640683934 0.2167518720938243
0.4924306003493189 13.337661399577476 100600.74337381756 8.676346995905678 0.21951506459569073
0.5081051383679208 13.299547009025238 87337.2205403289 9.04072249932619 0.22211698593615814
0.5240583745212314 13.265543788552039 75943.17556530694 9.428860746287114 0.22488859154174617
0.5402847496033997 13.235610811415112 65521.96894807135 9.830706942184381 0.22767899714927753
0.5567994686198172 13.208958361592074 57700.08246248895 10.238118334530384 0.23036896087218886
0.5735935978805742 13.18566546852182 50407.9590904953 10.67186590216366 0.23323281113203542
0.5906544099623425 13.165196971496002 44096.444124255715 11.115430263477826 0.23605483935037605
0.6079950902940937 13.147447614406707 38630.03222298846 11.570563494767901 0.23885025994909193
0.6256049708134376 13.132194961317937 33886.660717893785 12.054884132381046 0.2418249491031434
0.6434777325279825 13.119121991318682 29765.1759237213 12.545014382201837 0.24470506092482816
0.6616221929672418 13.108088030230045 26176.324749012245 13.053397381466707 0.24762432619914482
0.6800240346444382 13.098904859812787 23048.81021635427 13.594161251984048 0.250729530722288
0.698689375252936 13.091534188875825 20320.92390322916 14.136061410617373 0.2536812388843236
0.7176102009754793 13.085560276303772 17933.97809617317 14.704110932810606 0.25673597609272036
0.7367738427374331 13.08099907655493 15732.295325626159 15.30814193396281 0.2599842069285121
0.7561744562468653 13.077753200982865 14018.884955084133 15.907358718735383 0.26298965654024214
0.7758351276030395 13.07564360801959 12413.942499868834 16.542163666415984 0.26616459420848493
0.7957272541873814 13.074488841012881 11004.213159439703 17.21234816694132 0.2694965840735492
0.8158491667386181 13.074230202539654 9764.848679737008 17.88061131216582 0.2726306283183879
0.8362018477942535 13.074820326730872 8673.326200355055 18.59026449366741 0.2759587850261312
0.8567701828620969 13.076067033821724 7711.734162592043 19.331938695946373 0.2793886262633211
0.8775488408329266 13.0779061524008 6863.1073610930325 20.07986555895492 0.28269157796292155
0.8985507145319767 13.080376846976852 6113.793727270783 20.874011459900558 0.2861986395260107
0.9197310875929852 13.083126648984534 5451.403887518413 21.694843404865576 0.2897401419187933
0.9411080360374912 13.086338861133902 4865.511816541473 22.533007421352185 0.2932328955413664
0.9626716579449527 13.089731093027945 4346.213445603564 23.422919652601657 0.2969412916408527
0.9843944400181084 13.093373257480142 3885.7008608538717 24.331312421535674 0.3005833330173042
1.0062888014549234 13.097105753946748 3477.078751721308 25.271645464940175 0.30425802502952176
1.0283430704880274 13.100978937772856 3114.3142665462196 26.27004705824087 0.3081596409363757
1.0505519942144754 13.104850960340215 2791.4290605286 27.276476887134844 0.31192023666458707
1.0728937636448568 13.108619333615616 2504.1672853533323 28.332860568268014 0.315828747945318
1.0953536368454055 13.112354535577035 2248.477644965634 29.449315026301882 0.3199439449043614
1.1179228188071846 13.11586551069255 2020.5314284125886 30.569878801797955 0.323882440733341
1.1406095859736938 13.119101086026557 1817.0528251450153 31.758950177642465 0.3280617233021082
1.1633675427675108 13.122146230868754 1635.5570535836648 32.99452217852804 0.3323286459051223
1.1862207619208014 13.12489946880466 1473.2595131329178 34.258298331039036 0.3365578849165375
1.2091393506277297 13.127179775163603 1328.0188911787936 35.5996667926135 0.3410467873341856
1.2320737356261395 13.129002838801025 1198.1314223232862 36.96763566130994 0.34545312042369997
1.2550816344920785 13.130422843628375 1081.8302415251064 38.39576574677091 0.3499793288504156
1.2781149290195688 13.131387100234399 977.5143703473732 39.90480625403459 0.3547440853628716
1.3011417341853728 13.131766427349401 884.02564116425 41.4288887345636 0.3593641672518407
1.3241787184823561 13.131508251883657 800.0164243599403 43.04637288241937 0.36426738562267924
1.347181934936663 13.130687788252246 724.5602368717363 44.71809245542324 0.3692279421242858
1.3701541994898514 13.129069981835457 656.7095734517397 46.44818573064579 0.37425641932965703
1.3930713714736762 13.12680878244433 595.6908320234933 48.28451074132281 0.37959212305566137
1.415916022542234 13.12380421104111 540.7849922605681 50.139916583998534 0.3847714832895635
1.4386848878523437 13.119988325153324 491.2573716605916 52.10947676657546 0.39026950504484953
1.4613351707597786 13.115376674130037 446.6668344900576 54.1463317220671 0.39582161507813163
1.4838886552276664 13.110000651658824 406.3959201340791 56.263175061914716 0.4014785714158659
1.50628783582074 13.103634053487118 370.0577413890538 58.49599035971866 0.4074142236787446
1.5285082976075746 13.09616691081839 337.19359028051673 60.77674627681361 0.4132963688010219
1.5505736304371458 13.087898020139452 307.49055539397017 63.199154462296896 0.4195438398195578
1.572451404964327 13.078617954222395 280.63953495246074 65.68304673420316 0.4257783529240969
1.5941167820527975 13.068339997457064 256.32063229503007 68.29984429860752 0.4323040520079027
1.6155317715970572 13.05709816430684 234.3281088344215 71.01932853144804 0.4389696426091877
1.6367117964805193 13.044602210514956 214.3371358082428 73.85355406001766 0.445810572548442
1.6576180637794022 13.031124382444274 196.2380786055224 76.82776902539302 0.4529120773569534
1.6782259085253204 13.016470097819067 179.80267422929285 79.90507374897872 0.4600901147161998
1.6985265783131105 13.000636662955053 164.87057254970176 83.15653618531339 0.4676400714937897
1.718493907402509 12.983608392535038 151.30284759112678 86.50612245314124 0.4752357719991921
1.7381146428694165 12.965392322636097 138.96382769097386 90.05940826575224 0.4832789264587279
1.757373780572679 12.945963374503824 127.74313523700143 93.71485163854314 0.4913496652718206
1.7762354168294625 12.925255402739639 117.50758529713393 97.59858722151797 0.4999164610798767
1.7946731321500362 12.903210350099021 108.19155356203783 101.59800717245291 0.5085167780563181
1.8126864753085732 12.879949358194809 99.70347771092872 105.84538838595958 0.5176351841317327
1.8302432449690356 12.855292007035972 91.95246976958465 110.23202184651663 0.52681768486265
1.8473416411487673 12.82933195467616 84.8779607156013 114.88155995416867 0.5365192693266119
1.8639351113710354 12.801991835201262 78.4201172743193 119.70508894741847 0.546390365199148
1.8800327855970822 12.773291945861137 72.51557997901247 124.80073232400082 0.5567553078385333
1.8955828800808647 12.74317936830543 67.1133225800645 130.11855772691635 0.5674062061608894
1.9105933568754743 12.711618663845439 62.16861240361239 135.71170458058765 0.5784928840599941
1.925017372360373 12.678616562913586 57.64381327327678 141.58981634212762 0.5900133870105259
1.9388724014593675 12.644238915405852 53.49726762552283 147.7403655359101 0.6018791585591442
1.952109922700536 12.60839920750855 49.69600097798412 154.24997561128342 0.6143573261382341
1.964718189516584 12.57102861133718 46.21211563337383 161.0328353666435 0.6271268273078794
1.9766839299106127 12.532229374280451 43.010104414678764 168.20762654325134 0.6405426483561383
1.9879883038547688 12.491896767669289 40.06953666595573 175.75925740968796 0.654508465374463
1.9986048872847932 12.450094727138564 37.373169281757164 183.68779983824754 0.6689620034215297
2.008536805796999 12.406789131649663 34.89013575291827 192.07804030866856 0.6841334515549987
2.017748331331153 12.361977313871499 32.60650091994446 200.90479470158078 0.699875673006505
2.026247249525208 12.315687054512765 30.50593644757576 210.21030489537196 0.7162833761652394
2.033973262313232 12.267797651987236 28.572446820529 220.0628858946359 0.7335117520988608
2.0409717996817474 12.218505474970824 26.792107607609257 230.46405521983814 0.7514955222618549
2.0471779743851437 12.167623725552549 25.15127026326325 241.40695691508384 0.7701005698676234
2.052612849741135 12.115283547964204 23.63678256797238 253.08573687122114 0.7898921763385367
2.055162712004812 12.067322988227708 22.508437333479577 266.5473692001613 1.4964862611807332
