M[M_sun], R[km], Lambda[1], P_c[MeV/fm^3], rho_c[fm^-3]
0.23848912294887037 16.21570186450063 2784644.0411725277 3.4469561053153734 0.1694538074003404
0.24847416094301114 15.872963088715569 2285569.1063365494 3.632603321714335 0.17193294042031904
0.25875180299611694 15.569384567051856 1884378.2736793356 3.8170912958402248 0.1742190059786989
0.2693144609252024 15.299963817177877 1560510.0215411265 4.0131555648257855 0.17662279048172952
0.28016242824029663 15.05994173936441 1297451.301934997 4.2172441267107486 0.17905428861199044
0.29129558874869804 14.845976171599458 1082947.3096550407 4.424080059658925 0.18138572264179373
0.3027109835393732 14.654179963797532 906980.6000634138 4.645910263798046 0.18388617060263107
0.3144138550462106 14.482609705429027 762157.7728372641 4.868378397108192 0.18625253346743792
0.3264027888594912 14.32855823109123 642524.2771496818 5.101833616051999 0.1886899121838145
0.3386615819921362 14.190277863809278 543344.3250493553 5.3490198988855795 0.19124564313095296
0.35121809344044075 14.065994403807114 460747.54276706174 5.5948070717756995 0.19362530419259885
0.3640504517864096 13.95405003774875 391770.33882572554 5.857625826727601 0.19616986154307084
0.3771667135043894 13.853211075926467 333932.9548676302 6.1281219253509525 0.1986949678364276
0.3905692459102756 13.762530021948884 285355.2657941425 6.404356007651442 0.20115844206227548
0.40425444518689885 13.680854562487724 244388.91725662295 6.699482061434275 0.20379039616734254
0.4182199670973105 13.60727911970004 209778.96330851968 6.996188483189927 0.2062907064601353
0.4324805634187864 13.541106816223477 180428.9555704874 7.3059053639606155 0.20884420870725917
0.4470167394859324 13.481730635363064 155511.58552600865 7.636545769791942 0.21157021775519783
0.46184224613275093 13.42832243920013 134281.71810625258 7.962662257988343 0.2140767475593584
0.47695187697582886 13.380591450091037 116172.1576705979 8.309400264485351 0.21673550587391746
0.492334826974164 13.337986232163342 100693.25914145143 8.674132726350168 0.2194992530080402
0.5079999948956205 13.29975552234858 87416.72819504523 9.038247043015424 0.2220993092741929
0.5239478266202849 13.265767690416094 76016.31183381454 9.426097091228154 0.22486885691906133
0.5401729906982037 13.235728080402618 66216.08465480537 9.827859095345447 0.22766019403078586
0.5566725935945623 13.209135955836187 57759.9655157483 10.234956023708673 0.23034808148209132
0.5734587868165101 13.185742501337561 50457.66627562057 10.668357393860699 0.23320964594757124
0.5905108688368987 13.1653814315205 44146.85249890515 11.11183310131039 0.23603274564126306
0.6078465504348562 13.147571628298449 38673.675978660176 11.566590228576933 0.23882585621543587
0.625449067380823 13.132298304674338 33925.52805537934 12.050497620576536 0.24179800722192746
0.6433054692056865 13.11913984211965 29800.175872932894 12.540531948084654 0.24467932164109596
0.6614494546772121 13.108195661933637 26207.915277653763 13.048467250766677 0.24759601612707072
0.6798470166017813 13.098988494008742 23076.70106075092 13.58874003938921 0.2506984007323086
0.698493901490048 13.091561837368909 20346.521645453748 14.13053401135217 0.2536515147994658
0.7174113971930685 13.085637344449639 17957.670815893776 14.698052450093314 0.25670339605900877
0.7365663287408246 13.0811016442206 15868.294935392314 15.301501734434135 0.2599484986605197
0.7559600347671694 13.077729176092836 14037.133354037933 15.900601939941664 0.26295586292917067
0.7756066970603127 13.075586649762354 12430.64040597698 16.534778896263916 0.2661276597374907
0.7954924345551629 13.074503250145577 11019.61998471029 17.2048249701064 0.26946130151770015
0.8156074801556829 13.074233408249006 9778.334784173332 17.87240977726414 0.272592164468569
0.8359507947496678 13.074785118236447 8686.086658197526 18.581322223348675 0.27591684724903176
0.8565148871916918 13.07607051522269 7723.074043865891 19.322835599055626 0.27934842568912865
0.8772915739389318 13.077917833385545 6873.467833947698 20.069962556863345 0.2826478448932763
0.8982778907835897 13.080316879989809 6122.956580506059 20.86323575455808 0.28615105247434075
0.9194431877621092 13.08316717019986 5460.137422827137 21.683876930437894 0.2896944429952763
0.9408121866933096 13.08627194905934 4873.035407798917 22.52109823257484 0.29318326818750035
0.9623685164058561 13.089699355593895 4353.113324071582 23.409982699376112 0.29688738144027765
0.9840784056388923 13.09330744806565 3892.0102740678158 24.31815125767234 0.3005319010017441
1.0059759560998764 13.097085939933827 3482.7555887725084 25.257373938475006 0.30420225386985494
1.0280086085952906 13.10080647997779 3119.0869823825105 26.25456569905134 0.30809914191706433
1.0502094214443898 13.104833526863445 2796.085573732366 27.260728248763222 0.311861968317744
1.0725514367677556 13.108718007713836 2508.6755236779136 28.31580418187314 0.3157656410649075
1.0949929961122034 13.112265226091816 2252.2371415688044 29.431922250714642 0.31988281373485306
1.1175629482673797 13.115805803773519 2024.0136066234666 30.55106881443302 0.3238163284259472
1.1402302030201363 13.119023200434272 1820.1585658798392 31.738598453778685 0.3279901921841988
1.1629855334683743 13.122094931319339 1638.4005662988031 32.97375582820832 0.33225915111467036
1.1858217695121835 13.124767983621998 1475.8577641788015 34.235858438507925 0.3364827896010293
1.2087390353917333 13.127077634936528 1330.360538532508 35.57540662474921 0.3409656004498222
1.2316668164922775 13.129008376385766 1200.456503301412 36.942869632494876 0.34537462882866937
1.2546691872480604 13.13045669240041 1083.8710831794037 38.36902098836457 0.3498945660181627
1.277691554727177 13.131380152563885 979.3503281668438 39.87744347303293 0.35466113821889966
1.300708585166484 13.131695161749999 885.6498889869191 41.399369505259514 0.3592746830812486
1.3237299217867469 13.131510683408736 801.53994628225 43.01451006619266 0.36417079713612344
1.3467263891281476 13.13064969039774 726.0106324499812 44.685460535345364 0.3691330981822688
1.3697027894470553 13.129138273011531 658.0060920715781 46.412993710599245 0.3741541345146419
1.3926151886525215 13.126898027267513 596.8752290777945 48.247217765635156 0.3794852654902856
1.4154612883839495 13.123872191501503 541.8025662849878 50.10098295721624 0.3846628001790118
1.4381981493636622 13.120033098228365 492.23856883702763 52.06749550291639 0.39015231446445814
1.4608555147443272 13.115451773054845 447.54157413129974 54.10319594210434 0.3957063409719897
1.4834018047269 13.110026428514876 407.20211867134975 56.21669209498947 0.4013543524387717
1.5057849719654246 13.103649876861022 370.78345401789477 58.44812553590267 0.40729077871129865
1.5280204642110335 13.096300563409061 337.87799589267667 60.72519451114238 0.413163415088301
1.5500865234736418 13.088082699318901 308.14125508065746 63.14359676227986 0.41940055466935355
1.5719607852946085 13.078859323439133 281.2234188143592 65.62576760516899 0.4256355117792778
1.5936187122066512 13.068593623361409 256.86218294237614 68.23813939688262 0.4321501739906919
1.6150310273455446 13.05725143607533 234.7909614724804 70.9555701796148 0.4388157499801302
1.6362208612040545 13.044952245874098 214.7901967957604 73.78489026410638 0.445644839718624
1.6571088690590559 13.031413448195984 196.64733523943644 76.75667791909473 0.4527462521746085
1.677732936961869 13.016820071898437 180.17678263670533 79.82852911600551 0.45991156878575606
1.6980307097536143 13.001019550356084 165.21840762432862 83.07712894391612 0.46746000339719906
1.7180049816141032 12.984062505655483 151.62667797482425 86.42063367656287 0.47504191308900384
1.7376345461201403 12.965899683994426 139.25766983017007 89.97054348656481 0.4830827246989514
1.756882370509672 12.946419971346115 128.00335289759855 93.61918293045635 0.4911384413307519
1.7757489433824198 12.92578047546981 117.75854796832692 97.49895073246273 0.4997022036628494
1.7942023297255159 12.903867214473008 108.42561377735561 101.49073427655433 0.5082860993781531
1.8122174508640576 12.880544846445703 99.91296280800631 105.73346790410538 0.5174009019844615
1.8297906745561174 12.855968099053385 92.14868485779036 110.11150423102711 0.5265654064121545
1.846881330914819 12.830044046608055 85.0616099960513 114.75559873476467 0.5362614963818036
1.863498262528601 12.802792590396784 78.58624557801818 119.5694185137244 0.5461127228630208
1.879588709641476 12.77411721814194 72.66630224352203 124.65868029857455 0.5564707964895013
1.8951562408018379 12.744011115182936 67.25598572287265 129.96550470854447 0.5670996612834072
1.9101698019234155 12.712568797412153 62.30724399230253 135.55117648135672 0.5781782652647318
1.9246199364976477 12.679662351666474 57.76838533478193 141.41678314663253 0.5896742594947334
1.938485285550672 12.64526488181413 53.61321750029237 147.5585807231623 0.6015305049862728
1.9517291871455371 12.609417410188028 49.801566469965806 154.058633183471 0.6139971023618509
1.9643456474341843 12.572123424387389 46.3096594831463 160.8265302623183 0.6267384345994937
1.9763347210478923 12.533395071147572 43.10224695696283 167.990119917093 0.6401403964724158
1.9876533516217254 12.493153945349553 40.15486204088991 175.52458783402324 0.654074472716259
1.9982950436993547 12.451369041653065 37.45084197662927 183.43999047550497 0.6685120440955007
2.008243373331847 12.408158653728238 34.96337408664677 191.81592424961417 0.6836659763241321
2.017472769251694 12.363423704858695 32.67498255453059 200.62179950292716 0.6993709605279868
2.025975320687008 12.317121802405003 30.571449949343624 209.9104995200243 0.7157570520360068
2.0337298823781067 12.269317228782102 28.632541763881985 219.74477826494004 0.7329617394684843
2.040758457417834 12.220063397119631 26.846078685539148 230.12028160356556 0.7509011327744952
2.04699964783808 12.169365796286145 25.20190504108907 241.07351675837782 0.7695957313139582
2.0524501896574656 12.117069136672818 23.68535148773479 252.68374031650225 0.7892214223655398
2.057089165240162 12.063231737811192 22.285636003503143 264.99284959245847 0.8098228339775042
2.060951321396162 12.008029177317699 20.996655270577538 278.00336263365773 0.8313222665568569
2.0639760108611336 11.951294642275863 19.805499217647775 291.8021095968337 0.8538878878238425
2.0661781188579433 11.893126462972129 18.706721543017974 306.45968071298273 0.8776107098859475
2.067572004805113 11.833566732663426 17.691438812907975 322.0379309042907 0.9025522504310381
2.0681097439798113 11.772587538803908 16.754619893404406 338.6049066067143 0.9287937090971801
