M[M_sun], R[km], Lambda[1], P_c[MeV/fm^3], rho_c[fm^-3]
0.23848912294887037 16.21570186450063 2784644.0411725277 3.4469561053153734 0.1694538074003404
0.24850806034857328 15.871788245684614 2283919.5317421313 3.633202643598416 0.17194094376505667
0.25881683998420196 15.567605972021783 1882242.2168163557 3.818268388337423 0.174233437352238
0.2694147785138068 15.297459772847526 1557811.00189624 4.015052608682996 0.17664604859321065
0.2802982954153499 15.05715219304838 1294643.810539897 4.219730932453432 0.1790823196385696
0.29147277777732217 14.8426165065997 1079814.1281926446 4.427412543199189 0.18142328606425512
0.30293047056708794 14.650906458930569 903980.7064731068 4.650201876213936 0.18393454523022365
0.3146670779048335 14.479126947520959 759370.6532720086 4.8732944928608894 0.1863038597440982
0.32669724556846513 14.325059408580298 639901.8913167334 5.107850580347427 0.18875273202899606
0.3390105233106566 14.18668653350778 540837.036833009 5.355682125963973 0.1913101454488562
0.35160811204674847 14.062249408306993 458403.2428014009 5.602719519012132 0.19370191088598102
0.36449353656246875 13.950374536107663 389605.83357556263 5.866938288401986 0.1962600228894667
0.3776583029447534 13.849638073960953 331954.3355628628 6.138112401031345 0.19878406357413542
0.3911156707188377 13.759018194365957 283556.54551317624 6.415915016687308 0.20126152608651698
0.4048563018631766 13.677451518040597 242757.58360404673 6.712789571340916 0.20390907344058923
0.4188774810448555 13.604037262536067 208297.83153482853 7.010199745747594 0.2064062241882521
0.43319321555014323 13.538027444228447 179092.46987539082 7.32185475258184 0.2089757055749249
0.4477925486529372 13.478740160600855 154300.0769552981 7.6540351774346345 0.21171022066831985
0.46267811393634106 13.425582435764735 133198.99282101856 7.981497409199953 0.21422117393879045
0.4778481460574561 13.377931633780006 115198.43635157349 8.330602826638577 0.21689808536436433
0.4932991588225282 13.335378727401025 99801.43430206763 8.69612944554853 0.21965632650108577
0.5090361031995271 13.2974208000324 86614.18114547108 9.06284119714591 0.22227493045037558
0.525049862045725 13.263585870616193 75299.84047055308 9.453557753437371 0.22506494716759562
0.5413424152968057 13.233738592474722 65570.46820149811 9.856156740877893 0.22784703131947276
0.5579226286589597 13.207340008010572 57176.96063250585 10.266381984987765 0.230555573705889
0.5747781093921144 13.184088428547318 49933.52408992651 10.70322789824099 0.23343988102087754
0.5919020981820003 13.163779458559503 43673.97102320217 11.147584982135239 0.23625233308781654
0.6093197805658043 13.14624411915843 38247.22962496446 11.606084857090364 0.23906843155490765
0.6269952396134115 13.131068872179336 33543.60109658661 12.094105256962102 0.24206584458609443
0.6449436948644827 13.118144961328431 29454.848237968246 12.585093217009984 0.24493520385025974
0.6631574337890024 13.107273642142072 25897.295379037645 13.097485155950926 0.247877489482063
0.6816376983928769 13.098220932361462 22797.060575859025 13.64264724670881 0.2510079497113088
0.7003649545991908 13.090901821918836 20094.137710940988 14.185496866108629 0.25394708247612896
0.71936583579402 13.085079780429654 17729.78199482555 14.758303724011075 0.25702740268360597
0.7386017919560004 13.08067481217267 15662.701139450362 15.365002291255516 0.26027709442567304
0.7580936257616927 13.077549145090527 13852.352530809936 15.9678056194116 0.26329197797391507
0.7778300876723533 13.075474527596775 12263.10438439593 16.60823798254743 0.26649506081236946
0.7977991924621806 13.074431231088196 10868.569006954996 17.27966017948151 0.2698122663418557
0.8180122294365628 13.074507312728205 9643.027211594943 17.954002939683786 0.27297482298105297
0.8384376242323783 13.0748997220021 8562.472199055603 18.67029618508787 0.27633412049643724
0.8590814676414128 13.076221003935862 7611.756132115778 19.413408393759653 0.2797484080684242
0.8799503367040249 13.078178312001402 6772.579358678616 20.16850694785677 0.2830830309787293
0.9010321744827278 13.080635955500577 6031.505809072968 20.970478677211652 0.28662465251622704
0.9222872796975349 13.083558029554595 5377.453340835488 21.793016505982305 0.2901492437745399
0.9437492530807537 13.086708082353951 4798.139729327613 22.63963560305244 0.29367723097044274
0.965395464461472 13.09023450600266 4285.232133772305 23.538767463455482 0.29742404663041067
0.9871936885108892 13.093876290485092 3830.6623211442 24.449165278094135 0.30104388574769053
1.0091799455785166 13.097622678435256 3426.963641727689 25.39946059766586 0.3047575089629664
1.0313208479669103 13.10153967367765 3068.6742025829953 26.40871901972145 0.3087015518611756
1.0535986989190385 13.105378210488645 2750.0824892184355 27.41753933270393 0.31244215324626207
1.076024545766174 13.109190258426072 2466.70712570716 28.485660526749516 0.3163940921210057
1.098564407000164 13.11281792710998 2214.2929570300103 29.60512494726277 0.320491577031365
1.1212232710980006 13.116323282603453 1989.3785482727862 30.73841093246064 0.3244747881821689
1.14397543298378 13.119543000877066 1788.720832347615 31.941325104095682 0.32870272464701467
1.1668160965620902 13.12253292594982 1609.748169786837 33.180608323812265 0.3329513849745028
1.1897431338261357 13.12521656854497 1449.8022964942195 34.45941341025651 0.33723091845742237
1.2127222746406956 13.127507081497331 1306.8052416154226 35.817131826097985 0.34177453615378783
1.2357547261144608 13.129320450468574 1178.7839936444989 37.18962990828029 0.3461566923472585
1.2588190930890175 13.130650631599478 1064.141484211271 38.63553647502011 0.3507392402210461
1.2819145656888906 13.131466327681803 961.2765248220611 40.15011266452011 0.3554877037160849
1.305015307197904 13.131734571339702 869.2333884230881 41.69357187239993 0.3601665239399175
1.3281045479530247 13.131435475736101 783.3458611608669 43.33211867593249 0.3651335913446956
1.351158049669395 13.130365510875158 712.2953178818979 45.010730184692676 0.37007848710480057
1.3742074937923447 13.128814592276811 645.5205241241481 46.7638365327441 0.3751738512889278
1.3971713620327169 13.126383332889246 585.4529624979514 48.6085558921278 0.38049669419016197
1.4200679370944396 13.123164708990746 531.3540678771976 50.489183581834276 0.38574646113969036
1.4428764189161705 13.11921406288227 482.6785089411537 52.48615091636365 0.39132098988319536
1.46556386992101 13.114385088864998 438.7748928570102 54.53336043241512 0.39685589308759733
1.4881465155143563 13.108761219280938 399.1539126867212 56.68031120638375 0.40259330716968034
1.5105798489818463 13.102162939807641 363.43208853504876 58.925524790073325 0.40852200721464305
1.5328413258357136 13.094576147848429 331.1345194924848 61.239451575928626 0.41448970110714073
1.5549400907280755 13.086161405228625 301.956746361923 63.69677025832141 0.42082503029984686
1.5768346524713353 13.076704629950054 275.5639317519822 66.19725395054435 0.42706066899096
1.5985099351428074 13.066134030390842 251.65156130656524 68.85388790882948 0.43368571099780506
1.619943786302853 13.054529205321906 230.00618344604536 71.59181302531312 0.4403514403081933
1.6411267461922272 13.04189394531751 210.39471149286592 74.47020336277632 0.4472989702199537
1.6620141431274016 13.02810916678841 192.61693733808028 77.46622483614398 0.4544013220283288
1.6826277240685477 13.013150677856036 176.4628980344462 80.59264152207975 0.4616939166161242
1.7029174842495323 12.997028463875063 161.79801455982303 83.86983083869823 0.46925757650067806
1.7228667370750048 12.97971539823279 148.4795587058113 87.27419936807331 0.4769775041847377
1.7424518056440346 12.961154694480333 136.35887794415572 90.85783794864992 0.48504175432230595
1.76167507922417 12.941353866368873 125.33427463132267 94.5745881739986 0.49324785061299764
1.780497859263591 12.920310863847956 115.29495474745772 98.49401097862878 0.5018419723374752
1.7988931350276567 12.897940848621122 106.15000795883422 102.56225916688324 0.5105902969413074
1.8168727198236763 12.874430073201669 97.82192673774492 106.85145816158615 0.5197411810273274
1.834364829602065 12.849292992287133 90.21010854316721 111.31560300881408 0.5290859356532098
1.851377828188959 12.82287102123662 83.27132637745537 116.01414081917999 0.5388370359073813
1.8679039594376947 12.795161952437144 76.93505113996324 120.92523599937833 0.5488873313302406
1.8839202372912864 12.766012525657542 71.13709246294518 126.0783460622382 0.5593141985485877
1.8993934859464687 12.735586050659066 65.84090226115383 131.49542169674993 0.57016388190902
1.9142736556453859 12.70346244059893 60.991149345063 137.15591064083674 0.5813233814804645
1.928606165701739 12.670024908123068 56.55393159610524 143.1468826406224 0.5930650790527477
1.942327441674002 12.635119534922776 52.48713802464103 149.3763080879763 0.6050168090986396
1.9554413637282315 12.598757960771769 48.760606067802264 155.97207469534533 0.6175993725701681
1.9679289421809654 12.560977870608568 45.3425878835696 162.8900392347134 0.6306232237867905
1.9797349372419766 12.521603371763252 42.20449461217238 170.16585181427203 0.6441641463212049
1.9909144644538763 12.480867172782073 39.32339295771916 177.86376911798533 0.6583870319650111
2.001376136883355 12.438496846527116 36.67650870624722 185.9196165487824 0.6730144198911022
2.0111281165651125 12.394673066352047 34.24682947291475 194.43896874077623 0.6883440885065877
2.0201848447982464 12.349356726697986 32.00941756236184 203.45443089764254 0.7044228639481052
2.0284898010008234 12.30243761464389 29.949961028033787 212.91172056635725 0.7210258536777846
2.036028242538478 12.25404591865067 28.0560223763205 222.92958840985975 0.7384683216486465
2.042819045171039 12.204125370422938 26.31137678343369 233.5402354562033 0.7567780707241721
2.0488391060417186 12.152783438894103 24.701679558332444 244.73247443440812 0.7758213421364575
2.0540499258070724 12.099850955465966 23.219652737191787 256.57825614708105 0.7957466810248035
2.058443379892709 12.045386257187182 21.853571554309276 269.1438566553602 0.8166822326962688
2.062060257046188 11.989526266753774 20.59097580955868 282.4772426841787 0.8386850056135409
2.0648355100568607 11.932139796868677 19.4286178556095 296.59922662529857 0.8617089115248681
2.0667342773281963 11.873239810134239 18.356641472993918 311.5878218882957 0.8858509042970494
2.067860512148717 11.813073840115143 17.365363586892574 327.52701838898633 0.9112531285455397
2.0680788443738134 11.75134802468454 16.45094035063734 344.4824354458696 0.93799560220075
