M[M_sun], R[km], Lambda[1], P_c[MeV/fm^3], rho_c[fm^-3]
0.23848912294887037 16.21570186450063 2784644.0411725277 3.4469561053153734 0.1694538074003404
0.24849891238434474 15.871857863585683 2284229.028304321 3.6330178206160935 0.17193847563885895
0.25879648068057853 15.568183262134042 1883014.180828191 3.817905362078587 0.1742289865826016
0.2693848692938466 15.298157233968693 1558537.1015670581 4.014467495922214 0.17663887500164208
0.28025666454107845 15.058018023816746 1295379.8772085975 4.218963868284169 0.17907367336767377
0.291418304067586 14.84358876634156 1080817.3231633585 4.426384544710522 0.181411698567707
0.3028662383816498 14.651817642549224 904812.5854613571 4.648877898688392 0.18391962148745927
0.3145901476429244 14.480206331030807 760241.1115469468 4.8717777797439155 0.1862880245689974
0.32661204585590253 14.326121408193856 640674.9239410537 5.10599407563775 0.18873334927504998
0.33890404536281726 14.187862734389963 541616.3658428555 5.353626433952032 0.1912902426598781
0.3514910704211571 14.063398050932863 459114.0526284004 5.600277861067611 0.19367827125390374
0.3643581151298355 13.951578678073833 390265.0665035489 5.864064366991011 0.19623219817105073
0.37751072309665856 13.8507581536114 332573.22740916215 6.135029122920412 0.19875656669144032
0.39095088364944597 13.760065103922555 284089.15645159705 6.412347357348567 0.2012297094592768
0.40467135092054335 13.678478870964817 243250.09579340013 6.708681889093713 0.20387244085253317
0.4186769179669508 13.605033532731277 206157.57094367078 7.005874708609197 0.20637056584110514
0.43297399304768464 13.53897011888879 179503.02721114477 7.31693102853332 0.20893511127347505
0.44755702512718454 13.479584192398143 154662.1634656312 7.648880942191278 0.21167069841938352
0.4624217830999598 13.426399451666002 133528.40171835507 7.9756821880482995 0.21417658330465672
0.4775747226403327 13.378746792923167 115490.93190179256 8.324056111839619 0.2168478856975305
0.49300281744613395 13.336111042381654 100072.90195972308 8.689337398155368 0.21960782605884463
0.508713336324786 13.298143709295914 86868.91471931952 9.055246464572773 0.22222069821859355
0.5247097255077047 13.264244261784025 75518.49174653924 9.445077078279136 0.22500438862436578
0.5409793151490275 13.234381062178459 65768.93982418154 9.847417479617679 0.22778932970337495
0.5575378655899722 13.20791950777501 57357.451679010104 10.256675730808128 0.2304914874478238
0.5743699928665814 13.184586068241767 50095.312565607055 10.692456774179028 0.233368763880989
0.5914747575020314 13.164290780129546 43817.14998591597 11.136541548651424 0.236184504506384
0.6088660668451016 13.146686442625166 38378.8129042001 11.593884211695878 0.23899349539751766
0.6265189091925666 13.131399613021719 33658.35114857516 12.080632765383546 0.2419830967709811
0.6444375763297094 13.118378995414432 29559.862413464394 12.571326093004267 0.24485614950128423
0.6626321788635557 13.107585139213366 25993.236389190286 13.082339751622571 0.24779052069478022
0.6810872916137388 13.098457404886853 22882.765810960886 13.625989568091427 0.25091229705807533
0.6997847707756508 13.091096780991688 20171.44465801527 14.168513043940228 0.2538557504505015
0.7187604242878599 13.085242743991172 17799.605523924412 14.739683976978386 0.2569272733254259
0.7379726790515395 13.08081717443405 15613.881922445315 15.34600220945871 0.2601820666921672
0.7574356110547281 13.077601676609572 13909.06240409417 15.947035464294032 0.263188097328216
0.7771421670182238 13.075463312936524 12314.319533754364 16.585532299497114 0.26638149974347264
0.7970962142073897 13.074626840201146 10915.567391136316 17.25652935014307 0.2697037865564829
0.8172668778222508 13.074262437241202 9683.464239676086 17.92878083854415 0.27285653547487476
0.8376640400158605 13.074862748877207 8600.800051724114 18.64278978281551 0.27620511999363534
0.8582938534251054 13.076237459209862 7645.789075496416 19.385408033303293 0.27962475448311674
0.8791332897363828 13.078123616105207 6803.7021755128 20.138039149624145 0.28294848083628527
0.900171419848628 13.08050977609475 6060.010669658933 20.93731808907901 0.2864782106295272
0.9214134603415781 13.08337258395431 5402.7310359887115 21.75926991264804 0.29000861672088535
0.9428397382480836 13.086485800722528 4820.966064534524 22.602979408761428 0.2935244791785723
0.9644619008327877 13.090049868932752 4305.807108885036 23.498938214510773 0.29725807224974093
0.9862315457845009 13.093698356232535 3849.4962442415463 24.408647231011884 0.30088554680064605
1.008198772325288 13.097504142238554 3444.17772499622 25.355513560805047 0.3045857699961761
1.0303078195110422 13.101358503766017 3084.082558764418 26.36103466529421 0.30851520797211357
1.0525496230756877 13.105163230322479 2764.275221791066 27.3690337108822 0.31226268742010904
1.0749472618266531 13.108959406035813 2479.4583227422386 28.43311401635572 0.3161996754215572
1.0974581930218967 13.112640897344656 2225.976034132799 29.551544064583396 0.32030325389656406
1.1200905738023188 13.116184762316617 2000.060067914523 30.68044970838126 0.3242710692647176
1.142815357606315 13.119474659190201 1798.5358756523187 31.878597158740185 0.32848225192020913
1.1656240501770436 13.12243389382909 1618.5816999706708 33.11660477627798 0.33273719648901573
1.188532517988922 13.125082352376301 1457.8072410325128 34.39023415261039 0.3369994094084216
1.2114898752426666 13.127305435841336 1313.976447413012 35.7423212502625 0.3415241818444734
1.234494441420395 13.12917081697435 1185.3554147865905 37.113262293799046 0.3459146585551606
1.2575338611782616 13.13057093353187 1070.2147775025066 38.55304554918553 0.3504777996650063
1.2806155823331093 13.131545756142048 966.9615507946473 40.06571824660945 0.3552318716815983
1.3036876978712935 13.131759995768709 874.3038166942397 41.60250217829674 0.3598904565684101
1.326757772818803 13.131457472553368 791.1512936736716 43.23379201251977 0.36483552529995095
1.3497988477398077 13.130466883456613 716.4388182759236 44.91003306008763 0.3697858131761895
1.3728014016420311 13.128838834830642 649.3599743007122 46.65520951845977 0.3748581293142579
1.3957660417631053 13.126506610935055 588.9090367858124 48.49704093958094 0.38018540051121474
1.4186486315030953 13.123402490157801 534.5790675914756 50.36897658825956 0.3854109036524616
1.4414412323233783 13.1194677064322 485.5952631951938 52.35649757187196 0.3909590629337339
1.4640963394551594 13.114677356252002 441.4767482023449 54.40014385218938 0.3964998911276915
1.486677491990913 13.109103867681753 401.64532022906985 56.53671626792426 0.40220957055493234
1.5091003548360957 13.102590775673178 365.6929820452399 58.777662357821946 0.408140665099901
1.5313512648550565 13.0951542911097 333.21694396921487 61.0801532878425 0.41407886554107703
1.5534473635311086 13.086744586653381 303.8280010782799 63.52618066946011 0.42038725124947185
1.5753314052431586 13.077314003546805 277.28262562601134 66.02020538455062 0.4266191500593428
1.596991771394138 13.06683027712056 253.2506400045261 68.66310178201458 0.43320993370807714
1.618440538355706 13.055515707320382 231.47746544385794 71.39467610552289 0.4398756137223655
1.639618948728957 13.042846015401116 211.73748172931082 74.2578340222018 0.4467863773562344
1.6605161544854359 13.02908767431552 193.83441800538188 77.24634396504396 0.45388843388460914
1.6811150620237956 13.014256051954677 177.59910152379894 80.3558193959948 0.46114151176147816
1.7013996500707067 12.998261031764965 162.8550144411527 83.62414478577737 0.4687004457008938
1.7213708021751641 12.981032634171658 149.43324227395124 87.00961309181251 0.4763775142302709
1.7409764404141261 12.962631133360947 137.24321419614645 90.58279153097835 0.48443448796030264
1.760201815159607 12.942934431909322 126.15344823919018 94.2783870020547 0.4925938773323047
1.7790278015316305 12.92200761676926 116.0552729958406 98.18550848717233 0.5011785713325552
1.7974424124800905 12.899755066990995 106.84868107283603 102.2300024429899 0.5098758150469095
1.8154295186056355 12.876198540085182 98.45734812477441 106.50478363638393 0.5190154903331576
1.8329599440799593 12.851371773422894 90.8023785595765 110.94217263655909 0.5283042371828428
1.8499989809468724 12.825091918454191 83.81621814721319 115.62381252025146 0.5380382497767539
1.866555007965715 12.797499392871199 77.43536961636451 120.50467533305992 0.5480266762656071
1.8825741914148888 12.768486181272054 71.60863519367902 125.6379627305415 0.558432169197607
1.898060591761741 12.73807958414461 66.27703548297842 131.02076523864136 0.5692132080357123
1.913039498343979 12.706441608908625 61.39588104775469 136.65801930723796 0.5803475649580059
1.927393169652549 12.673036772201325 56.924809202441736 142.61001024037492 0.5920128635927461
1.9411528804116867 12.638286255143813 52.83098291063988 148.8122143139243 0.6039349073336633
1.954308130099779 12.602154944416725 49.07791340188662 155.3782437704552 0.6164814186446187
1.9668335036414495 12.56444027197095 45.63664573574626 162.24953105866103 0.6294173946530236
1.9787160133129886 12.52534886148107 42.4797132195426 169.49046651673137 0.6429151038760502
1.9899082083176882 12.484616982038103 39.579231253713075 177.14355628671055 0.6570685567185852
2.0004550152439355 12.442591609372522 36.913480704322915 185.14971346426626 0.6716164699945266
2.0102333225857567 12.398803902135247 34.46727323915659 193.62447302485222 0.6868914626193562
2.0193480542514775 12.353657695948167 32.21279747946426 202.57470205622735 0.7028538969617851
2.0277248577355627 12.307049384399603 30.140505877834034 211.97955490742592 0.7193893877599585
2.0353434765352647 12.25880066904227 28.231340518641755 221.94031223650703 0.7367578490303233
2.0421800699523884 12.209004321943095 26.473811649367846 232.48880597597108 0.7549890938267049
2.048309007454279 12.157979766805127 24.853511916571644 243.59560039021486 0.7738869837808761
2.05355827248618 12.105121751369262 23.361581296908756 255.36806751377404 0.7937190107822473
2.0580481406717053 12.050908553453853 21.984885982890237 267.85382545920845 0.8145504997938767
2.061712280081506 11.995189245514243 20.71569882758564 281.10008532506293 0.8364394960242878
2.0645697976338897 11.938068026822224 19.544429853788568 295.1079398215266 0.8592775784203973
2.0665945305773197 11.87946469469 18.46293394360067 309.9934336329502 0.8832889488551688
2.067752441276071 11.819347211945235 17.465798711501105 325.8201891561149 0.9085475944911293
2.068100243791654 11.757887684992795 16.543492471263846 342.6582664062414 0.9351387779979031
