M[M_sun], R[km], Lambda[1], P_c[MeV/fm^3], rho_c[fm^-3]
0.23848912294887037 16.21570186450063 2784644.0411725277 3.4469561053153734 0.1694538074003404
0.24846416867223592 15.873186930708707 2285850.4364300403 3.632404682076106 0.1719302877864915
0.2587303664851245 15.569944320674141 1885187.7056360955 3.8167012141981194 0.17421422350501792
0.2692845914660833 15.300586105078567 1561419.1822221207 4.012526992311001 0.17661508406547177
0.2801163354159122 15.06095812788798 1298476.4512035681 4.2164202415779775 0.1790450018608548
0.29123898404420756 14.846937501974873 1083874.7896683547 4.422976168787837 0.18137327969387185
0.30264401723401113 14.655240541383035 907902.7704871933 4.644488884576797 0.18387014895765652
0.31432585982339084 14.48374149898068 763181.7453580984 4.866750355371277 0.18623553597088638
0.32630185346104507 14.329846915832864 643430.3256469826 5.099841318271411 0.18866911168841732
0.33854956919111684 14.191365458786724 544157.662452659 5.346814141499673 0.19122428743976305
0.351087326544093 14.06714796487411 461501.37451401184 5.5921877973411265 0.1935999449140473
0.3639078621929801 13.955198138486288 392427.2700434395 5.854543599984339 0.1961400200550963
0.37700168618550506 13.854465093555103 334599.10858575796 6.124815527086577 0.19866548115311594
0.3903860430373613 13.76359861657545 285936.2310907628 6.400531110200209 0.20112433136815275
0.4040568297260461 13.68197462585499 244927.92113952764 6.6950793095805485 0.20375113212858187
0.41800033931178104 13.608321070362694 207654.75576787515 6.9915531542629195 0.20625248987083666
0.4322396945729917 13.542197871078843 180877.71132395795 7.300629715217764 0.20880071291559815
0.44676124663383443 13.4826987410926 155911.59562706138 7.6305591554492995 0.21152086031256
0.461561785126923 13.42932648354536 134654.27507621987 7.956433384291183 0.21402898507176735
0.4766521817488179 13.381508182237685 116514.80918732028 8.302389657111648 0.2166817491172433
0.49201567586544925 13.338732359974665 100986.7568910487 8.66685978065369 0.21944731858204813
0.5076534637039092 13.30050666128413 87682.21216395058 9.030116650674614 0.22204125201968666
0.5235815902147999 13.266517442814013 76261.36380399701 9.417020645538951 0.22480404411602536
0.5397824210205643 13.236457355687568 66431.01656715742 9.818506212649263 0.2275984409339652
0.556260932530647 13.209786474143401 57958.40733372523 10.224570957912771 0.23027951332033678
0.5730230540571267 13.186375929348499 50635.687630222594 10.656836069708644 0.2331335755563373
0.5900470323163133 13.165816598947387 44303.497486285996 11.100020694544824 0.2359601940389569
0.6073610386612921 13.148165182268272 38818.14188025536 11.553543508916128 0.23874572348423076
0.6249372043194735 13.132695340144263 34053.07766152206 12.036094798216546 0.2417095453309101
0.6427795727461394 13.119600521130856 29914.690607580225 12.525814177300907 0.2445948084350555
0.6608824127369411 13.108526116811856 26312.533642680588 13.03228044029889 0.24750306731924496
0.6792586329184206 13.099313378876495 23170.83461212578 13.570941951486567 0.25059619955713447
0.6978828492834489 13.091823631132685 20430.28101857625 14.112387268481491 0.2535539290635528
0.7167578147365522 13.085755720617273 18033.209984025678 14.678163316508767 0.25659644046089664
0.7358887943778616 13.081230844499482 15936.720736373869 15.279704239596915 0.2598312806787635
0.7552564313286904 13.077765197953894 14098.737294473358 15.878421648635577 0.2628449295745748
0.7748761961581272 13.07570943502719 12486.680481166646 16.51053859212739 0.26600642335618346
0.7947249608379765 13.074510236638568 11070.515322824367 17.180130147931017 0.269345486863145
0.8148128631086923 13.074242370489303 9824.350999772028 17.84548995361248 0.27246591492302624
0.8351291797949593 13.074793858720785 8727.347928230252 18.551972921227016 0.2757792038490302
0.8556656351561202 13.075959211792215 7760.03124181361 19.29295823442372 0.27921648298567553
0.8763998261145591 13.077877277072032 6907.8466120329185 20.037461839929858 0.2825043170919056
0.8973593210238495 13.080183840092214 6153.688949494967 20.827873167503327 0.2859948862463423
0.9185003262946911 13.082966655531427 5487.59850406909 21.647887990743722 0.28954447175215814
0.9398405193876097 13.086110615281772 4898.11624546594 22.482018060849278 0.29302041532257134
0.9613510740186296 13.08953671934838 4375.9102747591105 23.36753268482843 0.29671048594109933
0.983044440335463 13.093140880664185 3912.751742016891 24.274965111304155 0.300363135490194
1.0049053508101844 13.096871258170468 3501.628878259679 25.210547392529797 0.3040192621781862
1.0269151456643144 13.100688526062909 3136.4561048223145 26.203772964092988 0.3079006509050348
1.0490786353267911 13.104563193440576 2811.555280490128 27.209058024671094 0.3116707937877424
1.0713782653409794 13.108426519497876 2522.581811910716 28.259847089530606 0.31555860556202747
1.093801983919288 13.112071855733682 2265.195400710287 29.374860995296583 0.3196822579776755
1.116347094812457 13.115569261538816 2035.5214909099275 30.489362211736385 0.3235994454580558
1.1389916690457875 13.118884125243714 1830.7920950157913 31.67183876601327 0.3277555489112698
1.1617214282648909 13.121968859955876 1648.003611236286 32.9056353612883 0.3320311853189861
1.1845327786583417 13.124645295581262 1484.5483743521127 34.16225331276411 0.33623646934200446
1.207403900511789 13.126958732552874 1338.3829731406418 35.49583647549906 0.34069931818244104
1.2303267676679435 13.128918833411008 1207.6309473196313 36.861639495486 0.3451171841222131
1.2532918037682876 13.130380115391459 1090.4710507221237 38.28130708820702 0.34961657215886727
1.2762729039596272 13.131221439801491 985.3787263782281 39.787701877772236 0.3543890968272768
1.2992888828497091 13.131699967696582 891.1711070295404 41.302562384831546 0.35898122335743016
1.3223017668025447 13.131673679939361 806.5475221907943 42.91002495775626 0.36385406246899016
1.3452639371314457 13.130697579336577 730.5343163149033 44.57845251712421 0.36882208178325543
1.3682042981702152 13.12929347518127 662.2363004083244 46.29759908231079 0.37381874262203074
1.3911048113740176 13.12703794493771 600.7106432004867 48.122707787724615 0.37912338003894547
1.4139213643741197 13.124086216380583 545.3470036166991 49.97332845480632 0.3843064529916455
1.4366659055279123 13.120368109659742 495.4531480500149 51.929859082068624 0.3897681027796186
1.4592971982236953 13.115793178869048 450.4829814981859 53.9617737425879 0.3953284106864597
1.4818187232490971 13.110390529194685 409.87839448443805 56.06430787178889 0.4009471277372653
1.504200358574928 13.104146695677024 373.2546382299963 58.291210810553864 0.4068860904325548
1.526419116855284 13.096870218234692 340.1479891981167 60.5562062232651 0.41272758869153103
1.5484797452754009 13.08870320414098 310.211420258081 62.96149158572944 0.41893089938184175
1.5703498861791219 13.079611748921812 283.12742756604285 65.43801987519294 0.42516731156151644
1.5919980111461254 13.069435879197094 258.6067265920484 68.03590154302704 0.4316458386933925
1.6134078385140609 13.05818062699062 236.40291391617276 70.7466026251621 0.43831136795930004
1.6345845815855669 13.045916166200339 216.27029614957587 73.55986382863424 0.44510169660456067
1.655499791875066 13.032584729514179 198.00613525315134 76.52369783019239 0.45220280915147076
1.6760958407601236 13.018009378422603 181.43599412103157 79.57769787156579 0.4593264866423937
1.6964178624882034 13.002397636322499 166.36994720593034 82.81691921684637 0.46686993793914594
1.7163899027371974 12.985506023559516 152.68901715561353 86.14051942142821 0.47440671106129895
1.736027424340502 12.967454188768828 140.24102777016762 89.67435852859636 0.4824202331342009
1.7552941332971963 12.94814009435971 128.90481315055874 93.30574389233111 0.49044640910577875
1.774180652134205 12.92760827537445 118.5885052961799 97.16265223716702 0.4989619561140866
1.7926396204178603 12.905798609750857 109.19327065011149 101.1393130274047 0.5075304062596454
1.8106787738067656 12.882568892236284 100.61359667722284 105.35986447920699 0.5166062424424385
1.8282691961033926 12.858191845523072 92.80173455350209 109.71673699080476 0.5257390436662178
1.8453984141092412 12.83239140358202 85.66256801129167 114.3430091854329 0.5354171537846802
1.8620303296227432 12.80528496310721 79.14136004006107 119.1250677605036 0.5452033826492034
1.8781508169288186 12.776762922257824 73.18256534848756 124.19783694405483 0.5555516323501557
1.8937541791715908 12.746815500421357 67.72937946338827 129.49698159216004 0.5661892726065201
1.9083618196946353 12.71572150174397 62.84846919774316 135.10685409620723 0.6544695004264723
1.9213701441642674 12.682922312988866 58.56997290651079 141.0900727911492 0.7486280087981387
1.9327165826160664 12.647848677056166 54.79352752199849 147.5001966630088 0.843735316762747
1.9424460779205925 12.610202886509057 51.43920025210424 154.3669298421856 0.9416621051593351
1.950605988908797 12.569822598435998 48.44460995784407 161.71078087929698 1.0395075693717157
1.9572652849525154 12.52652293263343 45.74897930919211 169.56837679614642 1.1417508680008281
1.962481829791737 12.48048500991555 43.314896227940494 177.9711651356792 1.2461303903808478
1.9663015139850262 12.431478901970959 41.10414779775928 186.95439598846318 1.3537673263392893
1.968782627686713 12.379691069236843 39.090537597292155 196.575770314549 1.4662606889532803
1.9700103461083243 12.325100216326067 37.24888671028901 206.85555072753718 1.5811286947314687
