M[M_sun], R[km], Lambda[1], P_c[MeV/fm^3], rho_c[fm^-3]
0.23848912294887037 16.21570186450063 2784644.0411725277 3.4469561053153734 0.1694538074003404
0.24848088890481565 15.872533256709547 2285092.9648066945 3.6327276290067116 0.17193460041996317
0.2587658088498329 15.56892597793076 1883868.0626376604 3.8173354200408043 0.17422199898692628
0.26933835712004106 15.29927629242701 1559808.9604686208 4.013548967932488 0.17662761367718594
0.28018968808209194 15.059404696111136 1296925.4614077003 4.2177597952041745 0.17906010117587395
0.2913360373257543 14.844989471305828 1082091.8701325168 4.424771026257524 0.18139351114845437
0.302757637166034 14.653408795792696 906305.4494013559 4.646800015149843 0.1838961997912255
0.3144650082742204 14.481928130115502 761694.3327083668 4.869397556567392 0.18626317395594652
0.32646600377297574 14.327847966930186 641938.3734168953 5.103080880445552 0.1887029341916338
0.3387409986325047 14.189648230167691 542821.4722979146 5.350400847737811 0.191259013194871
0.3512985100174025 14.06515186704215 460238.2272007597 5.5964470135143465 0.19364118177259187
0.36414487854889277 13.95316575795974 391280.4076926569 5.8595557513812455 0.1961885466782477
0.3772710089937471 13.852501356732567 333511.60385124077 6.130192274102918 0.19871343134660166
0.390680186488081 13.761846689472902 284981.210531347 6.406751177833544 0.20117980235192903
0.40437997683999954 13.680147000391603 244051.4642654894 6.702239271297648 0.20381498515135604
0.4183570372469093 13.60663200788455 209467.91012096012 6.999091408943334 0.20631464001976602
0.4326291718079652 13.540445981821643 180147.32503087592 7.309209516905368 0.20887145023813172
0.4471800533752484 13.481104717627948 155255.80750422235 7.640295458865632 0.2116011325682744
0.4620158711651439 13.427761710016007 134057.19574969928 7.966563750376125 0.2141066638798391
0.47713889498052214 13.380066961549401 115964.03634057271 8.313791699400538 0.21676917903311785
0.49253589922055113 13.337368128023217 100506.28877489935 8.678688552673272 0.2195317851119338
0.5082187171547299 13.299183351461286 87245.12434072862 9.043340325499365 0.22213567922843955
0.5241740853388852 13.265325347079585 75869.3567775847 9.43178342463291 0.22490946171300594
0.540410647605943 13.235314483020488 66081.986798173 9.833718667168416 0.22769888228529148
0.5569314449285367 13.208764404791742 57639.34137292965 10.241462708509047 0.23039104234768873
0.5737342257480266 13.185422321658995 50349.503427462485 10.675576506955158 0.2332573106734491
0.5908012225067067 13.165049367108965 44047.06355761007 11.119234635117449 0.23607820573655802
0.6081446728866742 13.147220076750871 38584.08718832448 11.574765750147998 0.23887607013046955
0.625766275800615 13.131990424227743 33846.649531977855 12.05952357984335 0.24185344451088592
0.6436492395319436 13.119014308726143 29728.347108411836 12.549755284026167 0.2447322843962753
0.6618028427606603 13.107961376948413 26142.73250706792 13.058611940791224 0.24765426953316452
0.6802179481851214 13.098813628833533 23017.74375209156 13.599895389091074 0.2507624576048921
0.6988842158307754 13.091407928172254 20293.259968426224 14.141907857662366 0.253712678677207
0.717816010865674 13.085531426659312 17908.500576812017 14.710519301245835 0.25677043766823343
0.7369861499637711 13.080976099022532 15711.942117755802 15.315165820231758 0.2600219785063324
0.756405637066017 13.077730321267143 13998.285368002065 15.914505903998625 0.26302540274511516
0.7760709008128136 13.075587096742527 12395.361513312779 16.549975356911144 0.26620366389516015
0.7959704485137779 13.074564969245854 10988.483484862913 17.22030626562665 0.26953390624755036
0.8161055578068984 13.074272770637688 9750.189785106937 17.889287215659724 0.2726713168788871
0.8364636188520395 13.074801602425369 8660.078810706122 18.599724259308225 0.2760031497711811
0.8570431522742553 13.076105340973701 7700.051075530269 19.341568561924316 0.2794311531249327
0.8778372466008348 13.07798049875434 6852.264273536206 20.090341931630267 0.28273784311884137
0.8988367821227127 13.080324337032005 6104.178004070375 20.88541141395839 0.2862489833490407
0.9200330710490398 13.08319695272997 5442.9130259501 21.70644513205666 0.28978848803468193
0.9414243344182325 13.08637487860236 4857.515568380798 22.545606857766423 0.2932853992593889
0.9629922827433023 13.089773282716855 4338.769434555518 23.436606852504575 0.2969983282304741
0.9847239924791946 13.093452318288326 3879.278843260949 24.345236768137305 0.3006377474458849
1.0066362209458903 13.097209953140824 3471.1326916416133 25.28674503648287 0.3043170320752967
1.0286984314104044 13.101063118196787 3108.9174293115334 26.286427186634135 0.30822365222193887
1.0509080248420621 13.104906610564793 2786.710431666416 27.29313972276348 0.3119818874475238
1.0732756005988078 13.108856610768749 2499.8176388288875 28.350907648976964 0.31589552029308804
1.0957359516527125 13.112397313109081 2244.3899363245255 29.467717947092616 0.3200086264765845
1.1183201833658099 13.115902237324562 2016.7541494662612 30.58978188868128 0.32395239500670586
1.1410080152449082 13.119192604842713 1813.6362943444883 31.78048531095121 0.3281374138023436
1.163781860428124 13.122161883727802 1632.422389561274 33.01649594243415 0.33240218131671767
1.1866378264152286 13.124868421669078 1470.361582312327 34.28204373350811 0.33663734913357024
1.2095642458596214 13.127220832720218 1325.488724550015 35.625339248398355 0.34113270045361616
1.2325158737754365 13.128987946633757 1195.8122808133733 36.99384329774858 0.3455361809418562
1.2555298273619535 13.130518479463767 1079.7382897742311 38.42406826544993 0.3500690287312923
1.2785607089698567 13.131428184861681 975.6559670455908 39.93376267046368 0.35483186343054357
1.301599665156576 13.13177228087905 882.2640533731482 41.46012827329895 0.3594588663439009
1.3246346311659989 13.131477645608058 798.4070642790815 43.08009378211368 0.3643696066769514
1.3476590815620901 13.130609598998673 723.0805127864621 44.75262717756339 0.36932831651771447
1.370636596891585 13.12906202863435 655.3946877593125 46.48543116557153 0.37436467234884996
1.3935566114395221 13.12678836986451 594.485195844721 48.322747073054934 0.3796988596690257
1.4164155010582107 13.123774806595401 539.657244362574 50.18112331745154 0.3848865117710453
1.4391811794296911 13.119906295242583 490.24458758391904 52.15391071303032 0.39039354228242323
1.4618353011505114 13.115251724487507 445.70631821983403 54.19198753116466 0.39594362359608243
1.484370194894414 13.10972047325207 405.5392279738086 56.312375441525944 0.40161005228363794
1.5067812289865317 13.103352115274058 369.2335924037449 58.54665332030494 0.4075448851336855
1.5290276213191845 13.09597311013937 336.44914820447946 60.831313777962954 0.41343710019551905
1.5510936779367457 13.087659281511753 306.8323140005629 63.25796452086157 0.41969551291027923
1.5729727597083853 13.078369485029183 280.0364863828017 65.74367897767739 0.4259295559751357
1.594635250488759 13.068118733811424 255.76872904371467 68.36516396521465 0.4324669444281384
1.6160439640434385 13.056691397028796 233.79021887094493 71.08682201768232 0.43913255067914564
1.6372390203106615 13.044295269223387 213.86771934696424 73.92624326355764 0.4459860214475309
1.6581374203389705 13.030771138871783 195.80894427342054 76.90302802354952 0.45308762445056633
1.678745758918729 13.016050506937857 179.3963547374775 79.98610928635463 0.46027913600819365
1.6990415058088655 13.000170684002194 164.5011623630252 83.24060260467502 0.46783070499087726
1.7190165208039523 12.983177844135248 150.96159598395587 86.59663097533465 0.47544101395231647
1.7386306978970394 12.964956044176434 138.65467888656292 90.15349153295318 0.48348664995457336
1.7578775327471268 12.945414152444275 127.44745443036823 93.81614265221303 0.4915733025251093
1.7767370596685814 12.924666121848567 117.24236770715743 97.70407993500743 0.5001433116696734
1.7951790496982527 12.902671225431469 107.95491747915418 101.71159001216955 0.5087610255813672
1.8131875795162467 12.879292110160694 99.47609444425797 105.96389320273695 0.5178832492086214
1.8307497492324565 12.854655277262616 91.74329980251422 110.35963517954946 0.5270848167154445
1.8478257270616045 12.828591517853368 84.68646532456684 115.00500539846281 0.5367580822316501
1.8644196938328559 12.801217272888127 78.24096015415815 119.77741250243015 0.5464411865478862
1.8805299698533662 12.772476579762943 72.33875874531259 124.85862761364962 0.55675085521263
1.8960597021673558 12.74226392092715 66.95559454906277 130.27348956860286 0.5677374856541618
1.9076572459496481 12.71253470057641 62.84650684070026 136.6025116615712 1.0347757522710026
1.911070186262627 12.680726184165854 60.580635828577066 143.93349332621173 1.5628707400957371
