M[M_sun], R[km], Lambda[1], P_c[MeV/fm^3], rho_c[fm^-3]
0.23848912294887037 16.21570186450063 2784644.0411725277 3.4469561053153734 0.1694538074003404
0.24848473554207 15.872481977298609 2284945.152663143 3.632796239960758 0.17193551665067758
0.25877458929243397 15.5686131709659 1883610.5019603574 3.8174701680628327 0.17422365102280638
0.26934942595509026 15.299050921811252 1559570.9620977214 4.013766120777947 0.17663027601156947
0.28020671444214584 15.059057525204254 1296506.662484104 4.218044445212188 0.17906330972240553
0.29135404367694184 14.844793172862806 1081850.014549227 4.425152455315238 0.1813978105787924
0.3027819577942005 14.653106115212188 906020.3819516696 4.64729119661996 0.18390173633982185
0.31449447976976735 14.48155184346672 761298.5103895842 4.869960190807551 0.18626904811343278
0.3264979676193999 14.327519470497098 631070.421085471 5.103769467847612 0.18871012335744358
0.33878025432220565 14.189216482079795 542529.4372124408 5.351163255745429 0.1912663946730315
0.351345667056487 14.064762414661331 459969.95891446463 5.597352443229051 0.19364994795762425
0.36419658293285795 13.952777560875274 391027.1534114651 5.860621325389577 0.1961988633475275
0.3773248354430393 13.8520674809853 333302.5850149482 6.131335400588218 0.1987236258258997
0.3907455434802626 13.761361225085356 284767.85020681284 6.408073703244411 0.20119159672297685
0.40444953532962985 13.67971909079948 243858.8317462555 6.703761762599653 0.2038285628317434
0.41843286513775163 13.606244353334086 209295.19279375335 7.000694383964836 0.2063278559617234
0.4327099849610816 13.540136783874994 180005.23462596428 7.311034119283236 0.20888649341647061
0.44726977123048844 13.480721137556507 155116.0977286894 7.642366177548152 0.21161820488540423
0.4621105253378718 13.427509436047362 133937.75141912905 7.968718322068982 0.21412318495712326
0.47723507438136176 13.379730058553024 115859.21424025211 8.316216937061139 0.21678777555462425
0.49264692640270985 13.337077914668994 100400.50339354083 8.681204598834213 0.21954975161664747
0.5083314418089624 13.299027697919133 87163.63955427962 9.046153306537692 0.22215576607655432
0.5243026135950047 13.265040495990844 75781.8593108577 9.434924073874864 0.22493188836410857
0.5405492980955392 13.235106490842007 66005.48946966039 9.83695501597117 0.2277202505166116
0.5570747134744345 13.208545900592906 57573.837158720475 10.245056618618348 0.2304147714038689
0.5738865636662355 13.185336959719944 50291.58980365628 10.679564090297884 0.23328363898614612
0.5909653136298747 13.164786255186394 43991.297384248755 11.12332299183579 0.23610331635428408
0.6083129614507834 13.147119716374899 38538.65425402774 11.579281822940391 0.23890380777307887
0.6259472113064146 13.131955721670147 33801.9768643072 12.064509642546378 0.2418840688235669
0.6438363372207017 13.118874612059884 29690.1052329198 12.55485038190357 0.24476154175209613
0.6619994930112363 13.107824764103304 26105.89712373674 13.064216250358916 0.24768645091281558
0.6804216742937569 13.098732246195093 22986.576672628824 13.606058299500642 0.25079784661352017
0.6990983655679288 13.091337402068373 20264.359466311897 14.148191469108971 0.2537464693608342
0.7180419588150375 13.08543246836221 17883.314257099955 14.717407061316718 0.2568074772152254
0.7372229409588098 13.080974298861763 15801.836073210388 15.322715379398414 0.2600625769372656
0.7566470356173063 13.077682453299534 13977.28724197724 15.922187971051775 0.26306382412816537
0.776325408703828 13.075514164960392 12375.737519598912 16.558371921415947 0.2662456587930064
0.7962330819764203 13.074498637350123 10971.00213565789 17.228860176014848 0.26957402268044744
0.8163817924791222 13.07425319347202 9734.08212595719 17.898612962171363 0.2727150530962627
0.8367523408218288 13.074829459520815 8645.903373048 18.609892905564802 0.2760508390497325
0.8573443079122195 13.0761669260744 7639.13910502779 19.351920016987197 0.2794768666268596
0.8781456593461844 13.07801384395876 6840.695672390356 20.101603683325074 0.2827875766205252
0.8991521773885641 13.080362299950382 6093.592921569351 20.897666385774297 0.28630310305243667
0.9203588879242172 13.08322625581992 5433.4082803339425 21.71891695604163 0.28984045997280716
0.941758611604324 13.086404111096988 4848.760969176738 22.55915165929273 0.29334184245388006
0.9633420250035024 13.089867685397403 4330.981204034138 23.45132152850435 0.2970596464652018
0.9850812365305273 13.093475830221871 3872.30306062487 24.360206316885986 0.30069624638049014
1.007007141499449 13.097225505914887 3464.501332462726 25.30297857071627 0.304380470491075
1.0290757467936764 13.101126960522397 3103.0528720699576 26.304038052310435 0.3082924730592824
1.051304039490434 13.104979159634585 2781.270358635826 27.311054435388982 0.31204817004696034
1.0736551275773292 13.108738061602981 2494.9896169861167 28.370311273450916 0.3159673117136656
1.0961347025607056 13.112467352730219 2240.074467956211 29.485723438538315 0.3200656892300469
1.118738929653156 13.115932338092891 2012.7562581981574 30.59270239939327 0.3238992802868582
1.1414580224904924 13.119267333687914 1809.8677310154283 31.766795317500407 0.3279652944297509
1.1642669698538164 13.122305847074886 1628.863175217299 33.013084836008765 0.33228133341631055
1.1870247258607645 13.124935633330304 1467.894437787242 34.35577177125612 0.3815157168531179
1.2019865951103408 13.120924591966666 1366.255862677305 35.91760158675601 0.7467495260470907
1.2064652389909591 13.103443732291671 1322.4781309265184 37.83843073530204 1.0607233061079084
1.2057233631918736 13.074314391951669 1300.2555738181452 40.17356071039945 1.3213154033721353
1.201397495085024 13.036297392881934 1291.6803017829868 42.7086093012979 1.6042176983252854
1.194065924074395 12.99003802806222 1293.6982442320416 45.72119685720604 1.8366771480406798
1.1847005953140248 12.935411979397774 1300.5187431695097 49.094373106017215 2.0701396826405354
1.1738719989500364 12.874450940079003 1310.9811960640916 52.80735510434897 2.3223985755459626
1.1617972347819483 12.807151981081903 1323.9601168592237 56.92523838397114 2.5851100139914585
1.1488095929118398 12.734441591160284 1338.3124028349146 61.464928699531285 2.8747317667010983
1.1348423497179716 12.655168652862708 1353.8001951952344 66.25664752373704 3.0165516526300915
1.1198698848311326 12.5650433817363 1366.527309980263 71.44242168221103 3.097962451760671
1.1048454479899361 12.466258821411131 1372.569317105461 76.96685675082881 3.1707865123021515
1.0899152864344748 12.358345989952216 1370.0770683765338 82.49608452798745 3.2038838654694066
1.0756014738983037 12.242560869289871 1357.3161639489588 88.55657921268356 3.2401613242813383
1.0622454092836724 12.120275010965388 1332.96953009029 94.50381236101725 3.27542161358997
1.0499368793654231 11.992215735357453 1297.3469265925198 100.90553576379972 3.3133306721577496
1.0389233838836065 11.859703985649844 1251.0874664776459 107.4738847575558 3.352074099298012
1.0293031877099754 11.723826417987611 1195.2575697930092 114.28986527936149 3.392152390567211
1.0210765597721707 11.585433926659434 1131.8404589549993 121.48590037385911 3.4343773136433904
1.0142412690202423 11.44519653991801 1062.4203180945178 128.7897073072522 3.477023358232418
1.0088748685960844 11.304497824866933 989.1066570317892 136.63552513686258 3.5228010040944637
1.0048712092113365 11.163671910111619 913.7487893018996 144.50441928827678 3.5684209399033784
1.0022478885518324 11.023839794869943 838.2148786935279 153.01345631686885 3.617752105829697
1.0009005938592765 10.885376712104676 764.0880342294129 161.55194922449778 3.666891939296679
1.0007803093025887 10.748931524816857 692.5688709976309 170.74465479819665 3.7197829535352267
1.0018068476625146 10.615222500616166 624.7749121772323 180.0721695569317 3.7730559872541902
1.0038552309054332 10.484324904413036 561.2970089889204 190.04758978753182 3.829974079221462
1.0068692377652344 10.356498569842831 502.5406548741747 200.23008297100174 3.8877045123886034
1.0107199013006112 10.232253217622226 448.9342876123515 211.09928982388266 3.9492633975688527
1.015396044035832 10.111484663270158 399.84211826693934 222.21271751625451 4.011736209116684
1.0207367200922273 9.994644664950014 355.77961086926115 234.1013379779724 4.078509057891575
1.0266669915678044 9.88147772909783 316.2845247025802 246.24023532714486 4.146121371191968
1.033090432097849 9.771764464649323 281.0211340147561 259.1994698097319 4.218216363563359
1.0399249899659602 9.665673575577996 249.70357205002446 272.5683137660475 4.292073368656361
1.0471112330350005 9.5633394068121 222.03881493282287 286.7184154427869 4.3700025876900765
1.054559831813334 9.464361314443105 197.49732843885585 301.49239022978765 4.450887214741221
1.0621942314933004 9.36862744787907 175.85625512084235 316.9826747234547 4.5352681427738775
1.069952118488105 9.275809038427429 156.78375929123257 333.36004925449254 4.624185393211735
1.077760712087402 9.1860724814954 140.07070370989993 350.36248944740987 4.7157297564445715
1.0855901305712912 9.099050777518086 125.20425087337648 368.3976563572919 4.8125213075355555
1.0933528301878823 9.014644549066595 112.1786534280745 387.2938760315461 4.913275713877185
1.1009975760177106 8.932694130407807 100.7045639662814 407.15821749454165 5.018565639420875
1.1084835211920452 8.853015314058299 90.58455208165974 428.20031094562546 5.129638046194611
1.1157533196260911 8.775157226636527 81.65310237976387 450.24328868458053 5.245004826507507
1.1227771021202577 8.699440219844469 73.77562609252148 473.5238094174249 5.366157581081503
1.1295306715837128 8.62530790019035 66.77298812418648 498.1888154591892 5.493890172080329
1.135924215759356 8.55294434301131 60.48064706631672 524.1608640322817 5.6273862520214015
1.141971439820638 8.481822964536647 55.11226346714011 551.5935682156203 5.76730514495688
1.1476567226028038 8.411980714475684 50.22770748778391 580.6909988674723 5.914822022823057
1.1528571082457975 8.343640141945086 45.906057880991675 611.5540696031013 6.070319780393244
1.1576623760623377 8.276036032847067 42.03137845864942 644.1376706290256 6.233001307181734
1.1619931376908166 8.209502745441275 38.52014269418881 678.729704429651 6.4044698268219005
1.1657991658301958 8.143916576810263 35.45238043097266 715.5004443190899 6.585424849681873
1.1691050766637416 8.07916113348813 32.761728197650555 754.6065986372481 6.776402056877505
1.1718966345374162 8.01487985681881 30.240632012188716 796.2235147332462 6.9780100691492395
1.174113161940407 7.95135092992929 28.079010782948746 840.4663034825155 7.190321356884325
1.1757882796999537 7.8883921622657995 26.048617190406965 887.6212323386097 7.414630185221603
1.176885557601237 7.825921240852786 24.296932592858195 937.9547327937686 7.651991735602763
1.1774065044034865 7.763826591042906 22.692762670419118 991.7285961117933 7.903300599203817
