M[M_sun], R[km], Lambda[1], P_c[MeV/fm^3], rho_c[fm^-3]
0.23848912294887037 16.21570186450063 2784644.0411725277 3.4469561053153734 0.1694538074003404
0.24848788789189383 15.872407121072646 2284963.156621471 3.632840181663408 0.1719361034481966
0.25877749571997827 15.56866275625651 1883448.5742566783 3.81755646878014 0.17422470908569532
0.2693562165196196 15.298898435240881 1559319.1196063203 4.013905201509936 0.17663198116728168
0.2802146183979848 15.058958218051933 1296392.6145341932 4.218226759266327 0.17906536474826043
0.2913670869444737 14.844550799413309 1081619.0322286857 4.425396760186855 0.18140056435896598
0.30279614596334276 14.65300202996193 905856.1722222093 4.647605804799971 0.18390528257188354
0.3145120693952919 14.481282426778465 761135.7367347493 4.870320570605581 0.1862728106425101
0.3265229968781622 14.32717328941875 630815.148007401 5.104210533253863 0.18871472828098565
0.3388028417353962 14.18881603084988 542334.2736307092 5.3516516120550195 0.19127112283878758
0.3513746487098576 14.064473602961275 459813.1037439696 5.597932424148549 0.19365556321408536
0.3642287473150832 13.952479193198243 390870.50904092233 5.8613039036718995 0.19620547193063978
0.3773626501125002 13.851804854370434 333176.64715488756 6.132067664310739 0.19873015620329532
0.3907852660984323 13.761141902451383 284635.0248960425 6.408920905495745 0.20119915212994494
0.4044932237289374 13.679455487732756 243741.86238485956 6.704737084595545 0.20383726081925735
0.4184810277552456 13.60599758059995 206594.33907584834 7.001721272619317 0.20633632228257823
0.43276212407123954 13.53992273474949 179900.082754651 7.312203012701522 0.2088961305145933
0.44732514618240266 13.480531631521032 155026.73316015617 7.643692771876494 0.21162914216977186
0.46217127598762364 13.427244272922854 133849.50035548775 7.970098644411389 0.21413376915451693
0.47730748871452355 13.379584564881728 115790.08089987913 8.317770697935597 0.2167996896643163
0.49271736436577 13.336988338188632 100341.10782373729 8.682816545167624 0.21956126215323737
0.5084127601026488 13.29886297361625 87097.98684092444 9.0479555316915 0.22216863535026785
0.524383321725294 13.264895485729632 75733.03717669944 9.436936278883145 0.22494625705548132
0.5406344004146071 13.234926561047804 65957.10993623444 9.839028541893915 0.22773394112422712
0.5571629081288815 13.208449528209545 57531.70494946816 10.247359289463422 0.23042997495771012
0.5739796176058192 13.185152590472867 50249.12528329747 10.682119056816315 0.2333005083407517
0.591062511915353 13.164780104280776 43959.35195915136 11.125942530906697 0.2361194055188946
0.6084169580141785 13.147070327766151 38506.87766681147 11.582175484772401 0.23892158059504573
0.6260622484194978 13.131795138215185 33773.71041327333 12.067704530333952 0.24190369177025145
0.6439565138540388 13.118778190994666 29663.59529186626 12.558115136076555 0.24478028880599087
0.6621232021872908 13.107784699016541 26083.750689201133 13.067807379813667 0.24770707209709592
0.6805529017949539 13.098684976563288 22965.965954128285 13.610007471784552 0.25082052377134684
0.6992382186409392 13.091268966401477 20245.049272582564 14.152217982438376 0.2537681222970781
0.7181807605309466 13.0854410675918 17867.629289605553 14.72182082498803 0.25683121262488434
0.7373726760092206 13.080926683537344 15671.977191385082 15.32755336087115 0.26008859361616576
0.7568032024411224 13.07771029835823 13963.781455673048 15.927110857226104 0.2630884456387702
0.7764909770270348 13.07561292990758 12363.915485436257 16.563752820411928 0.2662725710263999
0.7964134785697394 13.074632891655583 10960.077005717943 17.23434189625215 0.26959973104680623
0.8165627789587881 13.074349902487862 9724.72575338677 17.904589466851622 0.272743081920284
0.836937627988718 13.074832321740638 8636.817663646982 18.616409768412595 0.27608140206468923
0.8575375716355277 13.07618468108066 7678.729497496629 19.35855401718658 0.2795061633179098
0.8783412581911578 13.07799567992327 6833.544153915306 20.108821266468052 0.28281945049708745
0.8993599365470603 13.080466810028645 6086.876601182426 20.905520735536726 0.2863377889812088
0.9205666064393536 13.083242332045206 5427.102818250167 21.726910259234245 0.2898737692513411
0.941978567971229 13.086480149071958 4843.081455863728 22.567832884593 0.2933780184057456
0.9635640735010549 13.08987884098178 4325.857385332992 23.460752826428138 0.29709894808080556
0.9853107606367072 13.093509727381369 3867.609381266677 24.369800932752792 0.3007337408177359
1.0072348581379191 13.097295562116333 3460.72694447996 25.313383624938847 0.3044211320097854
1.0293175749964603 13.101133063001596 3099.157676112383 26.315326251687804 0.3083365857876134
1.051547408690867 13.10504520297048 2777.9089694093477 27.322537338940265 0.3120906556124488
1.0739068876807876 13.10878042663489 2491.9206331721134 28.382748898165598 0.31601332964954537
1.0964032430493877 13.112468679123468 2226.068980507929 29.500186800620668 0.3201227462143347
1.1190081629667852 13.116017901450709 2010.2748026195973 30.624899148458972 0.324075823216848
1.1417264760984278 13.119397865371557 1807.7890824069405 31.818483967019535 0.328270969385439
1.1644981747755108 13.122281254901694 1627.0621646282762 33.055268296192196 0.33253193337031683
1.1873743482681698 13.124971336501718 1465.4708486087623 34.323944099734526 0.336777569110886
1.210308886957181 13.12725007968779 1321.0344863551545 35.67064223045305 0.34128430731742543
1.23328888215963 13.129131466178604 1191.7726193985905 37.040090365911276 0.3456827529325732
1.2563092060561867 13.130514244602837 1076.0255387947716 38.47401448638057 0.35022732453946853
1.2793523174896027 13.131438638730842 972.2679764598303 39.98486253728063 0.3549867668378236
1.3024082852724705 13.131762992264587 879.1897174775019 41.51525991169699 0.3596259916060347
1.3254683864524484 13.131520120780753 795.5788193815685 43.139607530978665 0.3645500158062397
1.3484863949812962 13.13055707420925 720.4777737988585 44.813576905162755 0.3695054655306008
1.3714759552212286 13.128978468864222 653.0262072553436 46.55116831862397 0.3745557359061762
1.394413105587889 13.126664623161188 592.3258462106209 48.3902328694543 0.37988724608141305
1.4172811450542506 13.123625984250792 537.6903646961478 50.25385549498073 0.38508954344172097
1.4400562058904198 13.119747107395263 488.4313349579653 52.23234321909491 0.3906124864043035
1.462719208577525 13.115083804378923 444.07119922919736 54.27257654494921 0.3961589860292387
1.485259095366607 13.1094720573475 404.03120868408115 56.39922573646875 0.40184214708118976
1.507677658701921 13.103061622470916 367.868642389333 58.636085266678926 0.40777553308825026
1.5299301726359291 13.095705856079519 335.219910607339 60.927643323260604 0.4136855372863786
1.5520067260602497 13.087306988913875 305.67070623261606 63.361789288019196 0.4199632804267988
1.5738902355168278 13.078051826064886 278.9718105013528 65.8507206344058 0.42619649356738337
1.5955457425878838 13.067597799644117 254.79554520994483 68.48048735015996 0.4327545347705156
1.616979150532464 13.056231048888845 232.8935347908593 71.20598352115704 0.4394201691091222
1.638158450661252 13.043697680423238 213.03587261822574 74.0545852127662 0.44629579858910023
1.6590759416196224 13.030175396545845 195.03150497116062 77.03590772973992 0.4533975760416486
1.67966516916902 13.015360402215013 178.69592963281497 80.129196478681 0.46061289730400434
1.6999629514271946 12.999482931875097 163.85668046419204 83.38904233938182 0.46816731485185137
1.719933521454366 12.982349401043106 150.3710782500214 86.75645518558511 0.47580343985734097
1.7395394553137102 12.964091834133583 138.1104694635842 90.3196294756932 0.48385346070939994
1.7587841693832038 12.944470079616998 126.94622024365184 93.99501916943416 0.49196823837913817
1.777627974981703 12.923647191906891 116.7799050134938 97.89037836597316 0.5005439261533173
1.7960580519193439 12.90153747729739 107.52429599095572 101.9121877268457 0.5091923891171122
1.8140559360108157 12.878103118471463 99.07997817000481 106.17318612459933 0.5183213602168142
1.8316031602864447 12.853407342954581 91.38015629165913 110.58502884777093 0.5275566312725068
1.8486716424472798 12.827229876677897 84.34524870695363 115.25051894001784 0.5372743242930996
1.8652478131372388 12.799827046195498 77.93035887310153 120.10252176385491 0.5472036903474836
1.8813013818759126 12.770929436153258 72.06078795381684 125.21686887065589 0.55758877409792
1.8968325202904597 12.740686740331476 66.69419116589562 130.5669607618637 0.5683042979128379
1.9118077170175614 12.708963646083648 61.780584738553046 136.18201988845234 0.5794146543685117
1.9261882062525313 12.675790486611445 57.282949054788034 142.09681488324807 0.5910070527361607
1.9400138179781607 12.641243371718867 53.16144583153718 148.27302271612854 0.6029007666142483
1.9531896338629653 12.6052145248977 49.38892300998489 154.81065656717567 0.6154128714952506
1.9657715262181557 12.567725287530749 45.92116949139936 161.6374170338632 0.6282650207226271
1.9777084798184326 12.528827147515189 42.7450273136854 168.84505795592156 0.6417214997365269
1.988952745125382 12.488319658324341 39.82361346587644 176.44705310452403 0.655780459330466
1.9995238271616036 12.446361568432344 37.14442974591062 184.4141365832903 0.6702808478293939
2.009397733283148 12.402863883572513 34.67928126264527 192.8463441128239 0.6855036957114194
2.018553629283117 12.357852089238405 32.41046009777443 201.7343812945446 0.701355212968569
2.02696772886877 12.311319564123448 30.323833191640563 211.0892118098405 0.7178263435516569
2.0346615423574304 12.26331193906603 28.401694296121835 220.99549534690777 0.735124247147937
2.041565017849823 12.21376759823989 26.632991323124585 231.47201550551827 0.7532382999769696
2.047726344212026 12.162809372163393 25.002343447997294 242.51008480697516 0.772040010363479
2.053066380303286 12.110187263094765 23.5005610968201 254.21265379479615 0.7917831158718722
2.057674548863005 12.056300144965501 22.11357024447453 266.6223005845896 0.812515446608209
2.061405934202874 12.00072500284255 20.834766475796325 279.76693548026293 0.8342365110139588
2.0643201629174466 11.943701471925923 19.65525260776077 293.6846735796846 0.8569571432623087
2.066411341927273 11.885277682996943 18.566345357097337 308.4719327873321 0.8808441131269902
2.0676705087643947 11.82540475448625 17.56208637668129 324.1915717551527 0.9059660358002836
2.0680939578167816 11.764171650598465 16.634170335950742 340.9127802999609 0.932406420112749
