M[M_sun], R[km], Lambda[1], P_c[MeV/fm^3], rho_c[fm^-3]
0.23848912294887037 16.21570186450063 2784644.0411725277 3.4469561053153734 0.1694538074003404
0.2484698100644593 15.872873655500003 2285460.7483886653 3.632499118339113 0.1719315488883946
0.25873959810776487 15.569695099867277 1884805.3940510429 3.81688666146708 0.1742164971231206
0.26930137861192743 15.30017149518849 1560846.6394543117 4.012825813631049 0.17661874767058466
0.280137199262192 15.060517260484492 1298030.1026913647 4.216811907612227 0.17904941668137248
0.2912668431620824 14.846407493702536 1083356.1695463248 4.423500935985715 0.1813791948174455
0.3026758007021256 14.654950902966903 907558.9874563512 4.645164565311009 0.1838777651635767
0.3143649474218838 14.483277197537133 762740.4130845463 4.867524266921649 0.18624361595963013
0.3263509452714801 14.329265710940648 642988.6195304178 5.100788364364877 0.1886789992805735
0.33860452205362646 14.19079672190036 543736.9639017452 5.347862644267139 0.19123443882878563
0.35114843338473345 14.066648959254788 461163.63457430346 5.593432839186613 0.1936119991541648
0.36397649378974006 13.9547221606152 392143.44543821353 5.856008669994612 0.1961542045628354
0.3770810807009827 13.853833242710937 334280.6579211537 6.126387137510521 0.19867949688115433
0.3904717501031354 13.763034066375845 285657.1754053567 6.402349137583406 0.20114054465929732
0.4041518960984211 13.681434520277742 244672.80466211896 6.697171954114679 0.20376979447404903
0.41810297302360855 13.607851117663268 210037.40019863643 6.993756327585142 0.2062706542279589
0.4323561658760214 13.54170270093646 180660.9968768681 7.303137178906764 0.20882138603534708
0.4468852030805335 13.482153807053516 155713.1724173765 7.633404471250931 0.21154431889923817
0.46169502488520614 13.428885218085611 134478.38561952356 7.959393825049945 0.21405168548630119
0.47678934522825384 13.38107728845605 116351.37067679198 8.305721564746921 0.21670729790901877
0.49216768392266697 13.338342528363201 100843.75633042796 8.670316353502296 0.2194720011706833
0.5078223851454298 13.3001860371677 87555.21027543714 9.03398065291767 0.2220688439675576
0.5237547196292671 13.266158990958914 76142.66734829638 9.4213341665541 0.22483484597365988
0.539961960537274 13.236049090822126 66325.38959107418 9.822951095692734 0.2276277886016155
0.5564571182478147 13.209444881873292 57865.57222487127 10.229506267281302 0.23031209906391711
0.573230355250362 13.186050223511492 50550.38196546481 10.662311238864543 0.2331697257639232
0.5902713326087603 13.165638414292234 44229.169914696344 11.105634184267304 0.23599467199776564
0.6075928126935497 13.147856408617722 38746.37608193672 11.559743426648241 0.23878380327394325
0.625179409647766 13.132521002754993 33993.27981040275 12.042938987199296 0.241751582223733
0.6430331324938579 13.119468315346777 29619.977819577998 12.532808027897392 0.2446349689148701
0.661152957385274 13.108369419362274 26263.593759199906 13.039972195044006 0.24754723534327103
0.6795273664423075 13.099110750115367 23126.697561205478 13.579399160330716 0.25064476301447286
0.6981785433348294 13.091698915035737 20389.726970359057 14.121010157019647 0.253600299419362
0.717072873465585 13.085695256120808 17996.787586551196 14.687613920074547 0.2566472619284383
0.7362094984206249 13.081151370289453 15904.340578076572 15.290061373355796 0.25988697709365255
0.7555904881048795 13.077819598110802 14069.968543177432 15.888960689515518 0.2628976399354488
0.7752288282488405 13.075662713346421 12459.991921522605 16.522056172678344 0.26606402782267646
0.7950931594196394 13.074455248039406 11045.672011778763 17.191863715050037 0.26940051536316567
0.815191686146131 13.074222094409448 9802.629393533789 17.858280401205377 0.27252590001864896
0.8355206722819917 13.074780443803425 8707.452824983251 18.565917339747553 0.2758446008785151
0.856078557904484 13.076204574780165 7742.841164336532 19.307153586899208 0.2792791716868097
0.8768319965203228 13.077874813732516 6891.009249244297 20.052903214112934 0.28257250840261344
0.8977943031748697 13.080237734168552 6139.086774734277 20.844673809115527 0.28606908027588174
0.9189401715287554 13.083007692642285 5474.877716840461 21.6649862689447 0.2896157228103658
0.9403037464074041 13.086196654251951 4886.203326036034 22.500584500359217 0.2930977844264473
0.9618396107851781 13.089634329433231 4365.016025540613 23.38769955751684 0.2967945242871186
0.9835335796289415 13.09324113839998 3902.9146852965287 24.295481782821 0.3004433118165169
1.0054111838578401 13.097010380198787 3492.6122060675766 25.232792941226034 0.3041061947183908
1.0274458810795213 13.100832591727565 3128.2360681155096 26.22790204883473 0.30799494404466715
1.0496047685520455 13.10465748282999 2804.3439856412256 27.23360407032328 0.3117616116392885
1.0719272995823768 13.108470268086764 2515.8820251931215 28.286428900787808 0.3156569555375303
1.0943684330552066 13.112184109085737 2259.04165036355 29.401967435737163 0.31977753020130817
1.1169219283822809 13.115711290514456 2030.1419078289055 30.518674587029324 0.32370247097998794
1.139577977678683 13.118977334288846 1825.8156711486167 31.703550616211434 0.32786700797541757
1.1623234605623542 13.121974222088435 1643.3455573627157 32.93799373229707 0.3321394729178178
1.1851485742713963 13.124737215673859 1480.4003073864233 34.197216012037934 0.33635347235034535
1.2080444258462972 13.127067507794523 1334.5841785571502 35.53363149929805 0.34082579959196163
1.2309637597807794 13.12893603024214 1204.1859569455828 36.900223155732554 0.34523946828240226
1.253955114051957 13.130407039119467 1087.2789188062034 38.322969283821045 0.34974861319825395
1.2769466955133018 13.131317638085834 982.5478034807403 39.83032733500445 0.3545183110302373
1.2999625387621994 13.131697998283618 888.5172900355144 41.348542492225285 0.35912060679903296
1.3229766424692713 13.13146529115803 804.1369816354577 42.95965037538478 0.3640044962520348
1.3459672631960753 13.13074542245003 725.443515887675 44.6292763587523 0.3689698001362346
1.3689199048783167 13.129178779940075 660.1968769077608 46.352404533571544 0.3739780334338856
1.3918228540798883 13.126979302717501 598.8917079683254 48.181840662408376 0.3792952484096824
1.414677256073634 13.12419865070074 543.693152677536 50.033954910079224 0.3844756915724134
1.4374049096625625 13.120331975398544 493.95172155960864 51.995224186201256 0.3899505692854593
1.46003805017015 13.115633008211443 449.06564308139826 54.028936885079666 0.3955078944287986
1.4825480003032474 13.110185435793797 408.63866961015754 56.136674748656844 0.40114051770384157
1.5049513781042925 13.103887629855674 372.0769739160752 58.365729285436444 0.4070782760497288
1.5271928863839597 13.096628638145901 339.04300245913373 60.63645586500647 0.4129345551780346
1.5492472040133238 13.088452406250253 309.22292322625134 63.04796740457319 0.41915392338550395
1.57110216138833 13.079188421135136 282.2274052135784 65.52717518030398 0.42538964465322887
1.5927603778605732 13.069038969394438 257.7884975764187 68.13193457624283 0.43188532327767826
1.6141950825146667 13.057826662067592 235.64355941030615 70.84583117739915 0.43855087450773267
1.635358062372918 13.045416540638533 215.56291194254254 73.66671439295826 0.4453596002954075
1.6562646295576025 13.03203674771465 197.35561517697505 76.6343248471303 0.4524608547244152
1.6768799298468293 13.017467435449383 180.83185963337894 79.69679718842148 0.45960429447185525
1.6971794553086956 13.00171173580882 165.81871919409267 82.94047121357539 0.4671501110378393
1.7171582797638456 12.984820717370487 152.1791234106835 86.27351782466407 0.47470830533530806
1.7367988759368498 12.966752817551157 139.77197247125793 89.81761903764188 0.48274508760283885
1.7560456530018174 12.947352990218082 128.48099085536046 93.4545589964833 0.49077497330841297
1.7749182052019346 12.926733837160409 118.19867784427385 97.32295580712288 0.4993158853401691
1.7933726097684008 12.904803412349072 108.82795049741956 101.30615440081596 0.5078891804603357
1.8114114649843744 12.881726494107323 100.28780813688932 105.53960120245037 0.516992746688345
1.828998153682537 12.857163019698993 92.49172863788615 109.90414913865483 0.5261313518451641
1.8461072119837314 12.831313219137035 85.37617744516312 114.53888063969404 0.5358179943116907
1.8627197653549623 12.80408052641706 78.87928139017467 119.33600947318689 0.5456350636595856
1.878846938763576 12.77550313049485 72.93603452613466 124.41429616065201 0.5559813275040806
1.8944303113874152 12.745526675448547 67.50325480046008 129.70221070213145 0.5665723183417504
1.9094567291198414 12.714144157852829 62.535572925645795 135.28167719110775 0.5776494343723623
1.9239277383266769 12.68127617556644 57.98272424451301 141.14498118557785 0.591690867538412
1.9368671320633921 12.647597541803348 54.00748205599894 147.48220972715944 0.7507042741453949
1.947102755439138 12.612130234502203 50.704714768135986 154.251603600925 0.9205615506297388
1.954660095024507 12.573677649674407 47.92261088133206 161.7727004464541 1.0781078118454752
1.9598197103170063 12.531869106587825 45.54095667661009 169.90022250419494 1.239456389713932
1.962793747208366 12.486374430702682 43.46906574675927 178.7407455363604 1.3978355210900615
1.9637433640328799 12.43679381747531 41.635586455102555 188.30078398193413 1.5550073646159677
