M[M_sun], R[km], Lambda[1], P_c[MeV/fm^3], rho_c[fm^-3]
0.23848912294887037 16.21570186450063 2784644.0411725277 3.4469561053153734 0.1694538074003404
0.2484795779735578 15.872620477705372 2285177.3834881214 3.6326954708328394 0.17193417097969332
0.25876185852726197 15.569073625341447 1884057.6168851908 3.8172722643290067 0.17422122468612133
0.2693307631330606 15.299575536655496 1560112.1298738725 4.013447191479508 0.17662636587889147
0.2801828023883527 15.05956843053308 1297145.508204817 4.217626385854316 0.17905859739897348
0.2913249126679513 14.845338295610906 1082355.7249368601 4.42459226210968 0.18139149613678957
0.3027448616803129 14.65368300999312 906505.5359055239 4.646569817994318 0.18389360503182223
0.3144487391633863 14.48219327073341 761853.6995234771 4.869133875743493 0.18626042100816068
0.326449144244431 14.328017521036154 642112.8439679792 5.10275817757633 0.1886995650268376
0.3387151795183049 14.189701345706753 542982.4790251221 5.350043553229437 0.19125555394262803
0.3512777354895371 14.0653082986154 460345.5820217665 5.596022701789504 0.19363707367338664
0.36412263361880987 13.953437970974795 391407.17961231526 5.859056401376442 0.1961837120737865
0.3772466120692411 13.852565157487469 333615.6717858635 6.129656586246017 0.19870865404606877
0.3906542835625732 13.761922562202946 285047.9502517575 6.406131433268519 0.2011742754279889
0.4043482665000669 13.680325198644008 244134.6433253331 6.70152583621903 0.20380862268908
0.41832168637751455 13.606810207094354 209541.23544636718 6.9983402646912465 0.20630844711051663
0.43258822433212474 13.540707507662868 180232.91363431886 7.308354537194156 0.20886440124355193
0.44713720116408273 13.481237670679622 155327.86571220937 7.639325173678204 0.21159313292227422
0.46196973814547543 13.427990783966056 134120.033570153 7.965554179110501 0.21409892257099403
0.47709056445151 13.380225416187947 116019.3682529611 8.312655325880115 0.21676046541508565
0.49248272291989575 13.337490818524715 100553.48354364772 8.67750963486046 0.21952336673202896
0.5081615846771463 13.299366139939124 87296.05546976936 9.042022303870672 0.2221262675403027
0.5241171600025434 13.265418037907505 75903.90614207934 9.43031190613731 0.2248989539391829
0.5403471575250834 13.23539894548101 66118.00302638384 9.832202313881085 0.22768887045103584
0.5568629524305736 13.208886515583478 57669.327436761836 10.239778860527549 0.23037992461737922
0.5736642167879125 13.185565495961596 50380.16600048798 10.673708253537933 0.23324497539266914
0.5907280996147503 13.165122837968687 44072.28129261491 11.117319170187127 0.23606644098339516
0.6080723043568612 13.14739812873243 38607.73883867348 11.572649939793633 0.23886307485910516
0.625683401556749 13.132119001181474 33866.65971224542 12.057187629185698 0.2418390971415069
0.6435612794736945 13.119034393138632 29748.440874711476 12.547368251216703 0.24471857744305422
0.6617135504421593 13.108033016322908 26159.258823038763 13.055986403838881 0.24763919302812307
0.6801206126749747 13.098846473354532 23032.79560488406 13.597008222967423 0.2507458787581994
0.6987829875005916 13.091395324119679 20305.50480140913 14.138964143713414 0.25369684859166086
0.7177094502115591 13.085585782396368 17923.057243187854 14.707292633662012 0.2567530859741604
0.7368795332397226 13.081025717642147 15722.796575453758 15.311629207748032 0.26000296005578605
0.7562894896453458 13.07774340964152 14008.998251991425 15.910907211085513 0.2630074041051738
0.7759514781261505 13.0756535945997 12405.148749835766 16.546042048333955 0.26618399169567875
0.7958473321521713 13.074542575726408 10923.425446668962 17.21629924093724 0.2695151139607745
0.8159776097199706 13.07424888840263 9756.877743184941 17.884918732701163 0.2726508294122764
0.8363301777336961 13.07480818894652 8666.991422656742 18.594961050398194 0.27598081110477685
0.8569156089431169 13.076053278566633 7705.473919013542 19.336719707881734 0.2794097398939162
0.8776955750428351 13.077928999508723 6857.909157972181 20.085066802169926 0.2827145473947828
0.8987011482918872 13.080387775449426 6109.012888268442 20.879671192015213 0.28622363371024445
0.9198836283819498 13.083186129139353 5447.093175550421 21.70060331732447 0.2897641443272847
0.9412641582783461 13.086324823849328 4861.233735676632 22.539262617111028 0.2932589618687401
0.9628336048762994 13.089750152779558 4342.405380029802 23.42971483096671 0.29696960815573964
0.9845541021631175 13.093435198660764 3882.6884024537835 24.338225342829688 0.30061034776153595
1.006462002503975 13.0971713972113 3474.17179089909 25.279141780741988 0.30428731959913324
1.0285190037887395 13.101046921400277 3111.636105824287 26.278179049884212 0.30819141963961794
1.050726339273896 13.104778010944562 2788.9352707791086 27.28474924152226 0.3119508435274333
1.0730737013138905 13.10866190718578 2501.942146155836 28.341820063636533 0.3158618971593233
1.0955440495000008 13.112353511313401 2246.4109205349578 29.458451190190026 0.3199760561899064
1.118112366192528 13.115731508182352 2018.5053535868406 30.579759643044667 0.32391716936984344
1.1408064227134824 13.119149800300512 1815.436813537799 31.769641152621407 0.32809929935202437
1.1635747081747343 13.122204033444692 1633.9863846885917 33.00543092232862 0.33236515212084355
1.1864330536457532 13.124860861116895 1471.819470373561 34.27008649246333 0.3365973341117683
1.209349356049366 13.127195505473034 1326.7757419189052 35.61241150708904 0.34108943764337385
1.2322978902359798 13.129101161531741 1196.9723541396615 36.98064607490107 0.345494354653152
1.2553008716703602 13.13048428030555 1080.8329346245341 38.4098160102986 0.3500238587022996
1.2783327277250005 13.131368258429855 976.5817539650875 39.91918114869442 0.3547876612134717
1.301374997055813 13.131736504902372 883.1158955137354 41.4443969056151 0.3594111785003272
1.3244099739225306 13.131530124509961 799.2157070605746 43.06311271607422 0.3643181305156107
1.3474127235104743 13.130600598412853 723.8349940924741 44.73523630626835 0.3692777703413082
1.3703927446846544 13.129076649142167 656.0615977075985 46.46667507229032 0.3743101581854363
1.3933101647167792 13.126792274180708 595.1012124749506 48.30349199640233 0.37964510917626487
1.416144102738445 13.123714078018114 540.2404461008276 50.1603722130461 0.3848285851209858
1.4389321761344587 13.119956955256873 490.7556665743254 52.13153422061638 0.39033107836627223
1.4615783927614094 13.115306077305847 446.19940004735224 54.16899573429775 0.39588218135869346
1.4841197943896227 13.109806416250898 405.96076817303333 56.28759839914953 0.4015438392369457
1.506514682808253 13.103392244657561 369.6429184915719 58.521139737817705 0.4074790847586194
1.528766536511549 13.096118753259125 336.855836819227 60.80383362565279 0.4133662279716835
1.5508382839888903 13.087828509838134 307.1704795277744 63.22834752696954 0.41961912970116305
1.5727126528129047 13.078498491751459 280.32669445365036 65.71314432592857 0.4258534094853758
1.5943701899151714 13.068207147877175 256.0459368803964 68.33226837779812 0.4323849103007815
1.6157899767431645 13.056836071919268 234.0480488396262 71.0528316649281 0.4390505086470426
1.6369676374521553 13.044462365162847 214.11225241386137 73.88963592628454 0.445897662837031
1.6578664533105756 13.03092524320428 196.01728142880222 76.86512647684975 0.452999216332872
1.678487460978509 13.016259804747323 179.59341993989668 79.9452981666447 0.46018394109957594
1.6987749633033198 13.000403489115545 164.69210922456065 83.19826503054828 0.46773469804927953
1.7187566216748555 12.983409262270788 151.1345331959622 86.55104854582599 0.4753376488035571
1.7383808129069989 12.965219935118045 138.81298664819244 90.10610870401939 0.48338203489217174
1.7576200149377845 12.945636285319397 127.58671111039864 93.76512926301135 0.4914606716625217
1.7764742191641045 12.924959480996348 117.37827553838329 97.65095034069854 0.5000290622641367
1.79491943590742 12.90290177720214 108.07133002445826 101.65438533721664 0.5086380131587745
1.8129378181457874 12.87957462534957 99.58434603820285 105.90420950107772 0.5177583138478173
1.830499275507015 12.85496051610773 91.8482347290599 110.29536334889984 0.5269502770651125
1.8475860134853856 12.82897929394926 84.78541272336007 114.94776299955947 0.5366547503424867
1.8641739456374613 12.80157602929032 78.32878776422731 119.77639736670923 0.5465362940915259
1.8802602652395302 12.772883586374016 72.4304243871483 124.87539557214204 0.5569048484127561
1.8958020807193134 12.742681246111161 67.03687134581624 130.1990059021292 0.5675673331760677
1.9108114012662505 12.711157374570229 62.09759817218677 135.79608269063104 0.5786582565988553
1.9252417207178723 12.678161170187687 57.57764636160222 141.68077067685002 0.5901916482828597
1.9390834374302717 12.64371359841914 53.4355464079518 147.835921232954 0.6020624292883046
1.9523030615239927 12.607807309271323 49.64014930348346 154.3505565854135 0.614546681205731
1.9649074684745536 12.570475555945006 46.157765623051276 161.14128554158017 0.6273309970365264
1.9768672032342514 12.531588624278596 42.961019192377535 168.32196675162373 0.6407541065770457
1.9881559958982344 12.491233881473041 40.02562331795284 175.88262454351724 0.6547366177891677
1.998779698113247 12.449441165622552 37.330156138580236 183.8180766886028 0.669198553336893
2.0086859829175134 12.40607958929401 34.85261374649933 192.21584073752598 0.6843792140142927
2.017879970321368 12.36120354821168 32.571641878940454 201.05357753673402 0.700141022220373
2.0263712249524057 12.314934293035764 30.47460782384184 210.36792850231808 0.716560092710352
2.0341117739496197 12.26703705560757 28.54224523766605 220.2301352988091 0.7338009287049237
2.041073599678994 12.217637439249453 26.76351716317588 230.64480616478568 0.7518080432245513
2.0472822120952103 12.166782104327961 25.12394908682834 241.63094127535572 0.7705441730323083
2.052719595894415 12.114439397064599 23.612073617424386 253.2769758223201 0.7902153880572251
2.0573053245275577 12.060523877364119 22.219910536560718 265.6250707291192 0.8108675580141227
2.061125576484585 12.005208619759358 20.93359691018307 278.6875764947648 0.8324529068114072
2.0641346234392564 11.948457175997541 19.747487407738337 292.53245860587657 0.8550786190225711
2.0662751542200883 11.890090473433792 18.6527851882113 307.24030923944554 0.8788650690389037
2.067609919749567 11.8303729717152 17.6410134042919 322.87337184202937 0.9038765269690595
2.0680765283161873 11.769294644891705 16.709173997747193 339.50013539592334 0.9301950868752162
