M[M_sun], R[km], Lambda[1], P_c[MeV/fm^3], rho_c[fm^-3]
0.23848912294887037 16.21570186450063 2784644.0411725277 3.4469561053153734 0.1694538074003404
0.2484771736344492 15.872768101316417 2285478.2245333223 3.632649053223967 0.1719335511189214
0.25875762564699095 15.569154818927021 1884282.0616264576 3.817181105649142 0.17422010706370544
0.26932634135122624 15.299599802755411 1560112.0322304482 4.013300290018124 0.1766245648395783
0.28017296894847926 15.059775059679055 1297350.3144363598 4.217433828622758 0.17905642691304322
0.2913113272391576 14.845573793296568 1082624.496031642 4.4243342456429575 0.18138858780088202
0.302727836820874 14.65394898721057 906758.4925842505 4.646237571663447 0.18388985998428126
0.3144309415143089 14.482384419457128 761989.1054225746 4.868753305849465 0.1862564476852939
0.32642447555671855 14.328376877581592 642356.649439466 5.102292428527582 0.18869470239483593
0.3386890923396563 14.189955769667598 543109.3268201828 5.34952788342688 0.19125056133322788
0.3512483509279545 14.065706979605478 460551.15420190414 5.595410318002727 0.19363114469900183
0.36408685970700033 13.953692153661217 391564.3225078752 5.858335730768916 0.19617673468858435
0.3772034580614955 13.853050749680698 333802.5403103502 6.1288834776664345 0.19870175941147583
0.3906110718148516 13.762195521733824 285191.40109417576 6.405237027592798 0.20116629905769007
0.40430212336954996 13.680578215207918 244256.8679539655 6.700496234609005 0.20379944063229663
0.41827134093825774 13.607034195297793 209661.05284213574 6.99725624860337 0.20629950979489656
0.43253440805665355 13.540890615999617 180320.68564396145 7.307120690632678 0.20885422863055292
0.4470794797002119 13.481423571907243 155407.77472633772 7.637924949675959 0.21158158858821238
0.46190572482094727 13.428202989249169 134204.3624685768 7.964097267079735 0.21408775109021372
0.4770153150483219 13.380461078730685 116106.70251058333 8.311015452719978 0.21674789100351943
0.4924075587888643 13.337728416064206 100620.10148256265 8.675808372791282 0.21951121841239174
0.5080793724872629 13.29960462251489 87359.57617608893 9.040120336510094 0.2221126860305198
0.5240322590225973 13.265584553519654 75958.96719362849 9.428188471555073 0.22488379098310396
0.5402575741481497 13.235585304748477 66163.62326969749 9.830014186446896 0.22767442317850084
0.5567688076617519 13.208971415100946 57715.91935619379 10.237349075995924 0.2303638817860609
0.573558890048816 13.185675970730422 50419.98635272004 10.671012419588866 0.23322717595047823
0.5906167827894387 13.165252684286214 44110.70732441906 11.114555214354262 0.23604946481347844
0.6079605735387227 13.147486928124566 38639.77053906355 11.569596944508273 0.2388443234137662
0.6255671118349928 13.132221697309074 33896.18235954595 12.053817043580322 0.24181839506180092
0.6434400743611335 13.119091671323794 29531.34902185728 12.543923958690817 0.24469879943399422
0.661585216408302 13.108058204782937 26183.43425805067 13.052198036305436 0.24761743925232269
0.6799832228628562 13.098904152233695 22878.427121664143 13.59284242818992 0.250721957698582
0.6986422217071678 13.091552908830238 20326.477204546507 14.134716755199355 0.2536740078793189
0.7175599184870723 13.08558938087538 17940.0937946068 14.702637064743795 0.2567280502351181
0.7367207907432094 13.081087808203215 15852.395613830891 15.306526532201275 0.25997551996078366
0.7561301389498651 13.077725353076044 14022.588375423504 15.905714957422633 0.2629814353697416
0.7757763025276059 13.075574781469548 12418.118088631156 16.540367110619624 0.26615560884582856
0.7956704404567501 13.074492254496633 11008.399027401332 17.210517936691723 0.2694880005946884
0.815788776758429 13.074231834210238 9768.221300661098 17.87861603558536 0.2726212707993798
0.8361383263403435 13.074784173371386 8676.343043160257 18.588088986362035 0.275948582254665
0.8567042681021989 13.07609581977271 7714.803581822841 19.329724065004783 0.27937884613722286
0.8774838766945692 13.077915082754998 6865.833622399156 20.07745629797654 0.2826809383228219
0.8984850018462811 13.080308409815812 6115.917040124505 20.871389852924807 0.2861870621357009
0.919660957654828 13.083080507784898 5453.471701915857 21.692175389944968 0.2897290239053786
0.9410362521214385 13.086321292852109 4867.2959567138305 22.53011002237584 0.2932208216506104
0.9625959220635321 13.089741737176745 4323.274268470423 23.419772171323363 0.2969281756200972
0.9843162795402842 13.093364426950831 3887.349484362247 24.3281103968095 0.300570819945721
1.0062172556892188 13.097089027714077 3459.646375707235 25.268173256096972 0.30424445611562434
1.0282673986738817 13.100987025892477 3115.374311104926 26.26628045692477 0.30814492157724377
1.0504815689382365 13.104971766388685 2792.608886661371 27.27264526453715 0.311906060053935
1.0728050502074975 13.108637350829461 2505.295411232976 28.32871072300995 0.3158133939434586
1.0952833793064298 13.112505474951787 2249.473633053509 29.44508334445502 0.3199290716221191
1.1178388777625572 13.115861586791983 2021.3445151015046 30.5653022562004 0.3238663553429855
1.1405177957348689 13.119093850344994 1817.8455224723434 31.75399846085551 0.3280443192807234
1.1632761677732106 13.122104075486147 1636.2031623425812 32.989469589146985 0.33231173736631453
1.186125827797337 13.124838651572617 1473.8402464035225 34.252838490885296 0.3365396135091142
1.2090392640305887 13.12718300662928 1328.6337027518352 35.593763987860456 0.34102703354148367
1.2319750866129573 13.12892535838345 1198.7150656887263 36.96160978508665 0.3454340224633546
1.2549814200593117 13.130481006265024 1082.3721825173475 38.389258339317585 0.34995870476108987
1.2780040764422098 13.13135749924878 977.999795773667 39.898148482566384 0.3547239030894224
1.3010343120401135 13.131717937044936 884.4003239351961 41.42170617581844 0.3593423941457268
1.3240731146776241 13.131490532564857 800.3492417812757 43.038619985806136 0.36424388360248844
1.3470642201621053 13.130607335922104 724.8980326490116 44.710152430732236 0.36920486462104324
1.3700514677842208 13.129234325897448 657.0845992877966 46.439622667898874 0.37423153098031325
1.3929611867803444 13.126882209943604 596.0088851284454 48.27571984722944 0.3795675832993232
1.415801179194352 13.123821826239515 541.0193290652284 50.13044298247854 0.3847450377573484
1.4385713561401168 13.119987163163737 491.47546518992124 52.09926145395242 0.3902409890281594
1.4612229408086619 13.11545270338801 446.8705404756578 54.135835489489004 0.3957935654212263
1.4837557142500466 13.109892209890862 406.57986621371697 56.25186420270278 0.40144834478761254
1.5061485574325777 13.10346781696335 370.20469390589676 58.48434325360803 0.407384185405958
1.5283820821302987 13.096167109289038 337.3774818358965 60.76420184051966 0.41326401628394405
1.5504601240528988 13.087951989255266 307.6576794122505 63.18563504251512 0.419508972787742
1.5723319341485442 13.07866497808537 280.78548914624633 65.66910842303798 0.42574359394020084
1.5939959612787902 13.068422299067088 256.45429706005893 68.28482880239774 0.4322666067690382
1.615413876039207 13.057098320590159 234.42800674083978 71.00381333482423 0.43893219379926507
1.636602244179423 13.044686519361235 214.44148062717744 73.83684490917118 0.4457702419081549
1.6574892780986927 13.031162437900038 196.33201139854475 76.81046917956918 0.4528717242067824
1.6781095930067331 13.016535766804038 179.88382392741093 79.88644652311989 0.4600466653554365
1.6984061199274763 13.000687606791542 164.95240392742141 83.13721231304504 0.4675962516501974
1.7183751738685722 12.983720880949875 151.38080482721176 86.48531831427442 0.47518859542409597
1.7379940017730915 12.965516259117408 139.03714192479032 90.03778251601025 0.4832311796439081
1.7572553347044988 12.946118666849147 127.80099702092079 93.69156975360801 0.49129826192803294
1.7761117920130596 12.925366260459391 117.57016512625471 97.57433967717017 0.4998643193768673
1.7945625547773965 12.903402092082006 108.25071610741362 101.57190081887077 0.508460639186517
1.812571778885924 12.88010207001365 99.75475940191313 105.81815089195698 0.5175781681282676
1.8301375473077504 12.855476965765703 91.99848567510317 110.20269163971035 0.5267562882021225
1.8472307949001845 12.829547048043553 84.92397932254929 114.85090483003516 0.5364565352433858
1.8638210403969255 12.80219450092526 78.4598396211211 119.6720703499512 0.5463227943932852
1.8799322510046226 12.773546769948947 72.5498449904531 124.76616046364148 0.5566860649917673
1.8954785440445927 12.743326197833564 67.1452502948711 130.08130787203194 0.5673315996466028
1.9104915753341605 12.71184317873892 62.204029826831565 135.6726352519888 0.5784163121379794
1.924933810053217 12.678901618489077 57.67219591132385 141.54770278995142 0.5899308487190157
1.938806854317704 12.644639803434353 53.52597291120182 147.69612172465304 0.6017943012895018
1.95203044901873 12.608640839002312 49.71998630429459 154.20340531759422 0.6142696522895651
1.9646147458615104 12.571290235500848 46.23255929960339 160.98262244735218 0.6270322958042441
1.9765958321484272 12.532519241157999 43.03265384718121 168.15468689306402 0.6404447429525763
1.9879066245048667 12.49219734318736 40.09109773173191 175.70213935612784 0.6544028325252716
1.9985299513936268 12.450405333345163 37.391630370409516 183.62748311760998 0.6688524834636637
2.0084671879384697 12.40714298293559 34.90995801670898 192.01424080341894 0.6840196672696965
2.0176828113401535 12.362310304115972 32.62471757158587 200.83591185376176 0.6997528227496259
2.026182639953027 12.316011797591042 30.52069156687646 210.137329668917 0.7161552643110909
2.033937018012858 12.268194866111443 28.585666567250115 219.98545497609365 0.7333778729359478
2.0409121373284345 12.218887027834233 26.805867471665067 230.38037523960566 0.7513508383821205
2.0471259178425245 12.168007088489285 25.16252513024601 241.349921340619 0.7700660257286387
2.0525557583665344 12.115674258215106 23.6487848479903 252.97789874945437 0.7897142846224461
2.0572158448456954 12.06197684962081 22.253052046328573 265.306335405131 0.8103408586758996
2.0610370862739544 12.006589341780089 20.964269554185538 278.3426216406799 0.8318828805868583
2.0640405882881816 11.949803415544729 19.776193127882127 292.16423940664026 0.8544782894772813
2.066233532414153 11.891630000449505 18.679452746275196 306.846735350934 0.8782326517076335
2.0675950132786394 11.832005180275242 17.66685971182178 322.4521568992094 0.9032088495294666
2.0680932440214694 11.770984172161112 16.7325062716392 339.04876975189353 0.9294885258363658
