M[M_sun], R[km], Lambda[1], P_c[MeV/fm^3], rho_c[fm^-3]
0.23848912294887037 16.21570186450063 2784644.0411725277 3.4469561053153734 0.1694538074003404
0.248491258464534 15.87229804292414 2284583.05765607 3.6329088347501086 0.17193702024155047
0.25878933809533256 15.568153625448089 1883102.9436419685 3.817691304879349 0.17422636220141807
0.2693662971838253 15.298654830713295 1559111.8154140706 4.01412250574098 0.17663464535768073
0.2802303785949222 15.058648784129565 1296041.9688678752 4.218511617561844 0.179068575642588
0.2913849936118992 14.844268130802298 1081343.8447836924 4.425778484882571 0.1814048671217061
0.3028267175686791 14.652426848224305 905383.9566606398 4.648097388900929 0.18391082365889463
0.3145432972880348 14.480753911739829 760744.4810628762 4.870883682241593 0.18627868978422632
0.32655604577334096 14.326757809965716 641170.320565695 5.104899735539636 0.18872192386646117
0.3388414789690362 14.188432028824526 542042.3015106592 5.352414719954035 0.19127851109315322
0.3514199265835782 14.06396406466223 459551.2430535543 5.598838725161047 0.1936643378348445
0.3642794907012458 13.952120640671943 390641.8540774357 5.862370551650041 0.19621579899787528
0.37741981951763043 13.851429773841145 332934.33583158127 6.133211966039179 0.1987403611634911
0.3908473607040193 13.760684512553977 284420.57536299917 6.410244850621058 0.2012109591621022
0.4045622902471247 13.679132773153382 243554.7058344828 6.706261281341758 0.20385085370891148
0.4185560869014453 13.605638912090399 209016.45820286256 7.003326068389883 0.2063495532359448
0.4328399574063596 13.539530995987763 179751.53714831313 7.314029772351114 0.20891119147884743
0.4474179838200005 13.480057094181696 154871.68939674294 7.645766037736395 0.21164623548744627
0.4622694772884301 13.426903455098888 133723.76467713414 7.972255891606649 0.21415031074733193
0.4774095939316278 13.379365992875405 115679.76322208364 8.320199062527832 0.21681831016287545
0.4928268231596319 13.336582218673982 100236.62843307009 8.685335859673597 0.21957925199644832
0.5085303758717187 13.298614916107764 87009.97383193177 9.050772300023755 0.22218874924257412
0.5245098893841886 13.264627639038777 75645.82428384492 9.440081309387828 0.22496871499216956
0.540768328171535 13.234713642446819 65885.25896186952 9.842269425723275 0.22775533929839437
0.5573076124500221 13.208167795586512 57464.01968187022 10.250958409806127 0.23045373841484007
0.5741325371436447 13.184858679455632 50189.54184412872 10.68611261957967 0.2333268761330138
0.5912228072965223 13.164584475335149 43904.35108067167 11.130037030577101 0.23614455386652822
0.6085898137436957 13.146877798832477 38455.48727481951 11.586698567038031 0.238949361289721
0.6262418280669383 13.131590325829379 33726.585043213716 12.072698585764263 0.24193436517412803
0.644136803775036 13.118616803017384 29622.864405924167 12.563218403372872 0.24480959307270558
0.6623224518475623 13.107802454726263 26050.183783057622 13.073420959461485 0.24773930670791922
0.6807620937439948 13.09869252080438 22934.449538572335 13.616180897084995 0.2508559731591691
0.6994477369572784 13.091237021181891 20217.376114134506 14.158512302916385 0.25380197056948145
0.7184049924672153 13.085361727076377 17840.716216878925 14.728720681197403 0.25686831721994496
0.7376058780541814 13.080915498305984 15763.677046393828 15.334814933698484 0.26012611422464793
0.7570459294918532 13.077686592378187 13943.031198597208 15.934806792424808 0.26312693638249235
0.7767454804828161 13.075581035388332 12345.420588023702 16.572164988986195 0.2663146439670341
0.7966705997951067 13.07446592655907 10869.384552834688 17.242911662061253 0.26963992183901975
0.8168274993220183 13.07427044572499 9708.609581894556 17.913932993862936 0.2727869015252788
0.8372134340991737 13.074785271278984 8622.720767753679 18.626598355349273 0.2761291848617507
0.857829976563146 13.07616334935583 7665.913134397296 19.368925706332668 0.27955196617643396
0.8786418173737989 13.078042931054874 6821.948799869637 20.120105643413396 0.2828692839151046
0.8996744157336705 13.080511217944041 6076.486295623382 20.91780101098675 0.286392020429062
0.9208948067456776 13.083318622248083 5417.66289138392 21.739407742111922 0.28992584811387334
0.9423140436477583 13.08651643961278 4834.655223412753 22.581406307152232 0.2934345808683209
0.9639072632939115 13.089958276092984 4294.269136636128 23.475499436415625 0.2971603993891907
0.9856686366294878 13.093588561957962 3860.6552096715127 24.384802838908254 0.30079236620062993
1.007604998582126 13.097324048253983 3454.229317566368 25.32965317693365 0.3044847111780141
1.029701205706771 13.101226573956788 3093.4124918208113 26.332977223813707 0.3084055633554378
1.0519345243383413 13.10505966667832 2772.557275340643 27.340492676649195 0.31215708852052765
1.0743172873160856 13.10889729003586 2487.1158809002623 28.402197663524543 0.31608528808676795
1.096817491003788 13.112547875238654 2232.7987083327826 29.519776684617355 0.32019009350960453
1.1194224200317984 13.11609827740735 2006.35006505298 30.644308569853802 0.3241315775633976
1.1421396940013633 13.119315872342833 1804.19167898611 31.837674716921107 0.3283143256924231
1.164393560409798 13.122030243843842 1627.5083050611897 33.1838603408349 0.4377738587335599
1.178127568949756 13.116758050869693 1520.994632895032 34.811265303391274 0.8067997825738333
1.1821697778009757 13.098860695387492 1474.3220487314697 36.55670242121076 1.202590356971892
1.178503425660757 13.069694254900947 1469.4653692723853 38.68321826837296 1.6102851347267606
1.1697785710084592 13.029422745389626 1488.1175365563927 41.73626164848032 2.00554401556668
1.158038526819063 12.980924610113796 1520.0986153107299 45.10506475968605 2.4416823803803474
1.143762905897808 12.925557904746197 1564.6424808950953 48.97727725532405 2.757004600623392
1.1271542399086236 12.858662180987935 1616.7161519099225 53.389872971302985 2.987024370749279
1.1094735342566153 12.783257963379178 1670.9332286145625 58.30981854507414 3.2434912720365756
1.0906934622189235 12.697374289243301 1725.4217844073676 63.21831374169444 3.301787029592668
1.0712660129780724 12.599476169079134 1774.8613817472185 68.64099448109108 3.3589117624724563
1.0519727139851784 12.490957998544582 1813.6272704369417 74.22695449479514 3.3991778949718348
1.033176629058686 12.372198414536891 1837.8764724307498 79.88067233117977 3.416798244480565
1.0153300856598455 12.24420141783401 1844.0755509992316 86.05482673254456 3.4360278572195044
0.9987923037625218 12.108276489388986 1829.6735862113537 91.9564512177992 3.4541778182212783
0.9837561942532586 11.965422879700125 1794.0735849648063 98.40531856052444 3.4740107796488515
0.9704300885323064 11.817053548804322 1737.3594840256505 104.86287131094846 3.493755693472587
0.9589341258608574 11.664226038193988 1661.706185421069 111.60983981579409 3.5143269031808964
0.9493009163740238 11.508172782487279 1570.114563171182 118.64446957464784 3.535710290243128
0.9415750644800244 11.350175086682848 1465.668288442345 125.75348545338245 3.5572053577336673
0.9357867136361151 11.191734597142444 1352.812691325211 133.35808273009582 3.580175683934777
0.9318608306767276 11.03349354292149 1235.3593517111128 140.89078961575524 3.6027660802762433
0.9297623382278369 10.876629167399116 1116.9384146789164 149.02778595452898 3.6271687253163565
0.9294366100679433 10.722598341934805 1001.2642208368626 157.0909474454136 3.6511653746689925
0.9307659018318792 10.571694251494954 890.5522252066069 165.73086154507385 3.6768651241458383
0.9336833487026659 10.42498701938237 786.8419392457567 174.43613090731435 3.7025806958307963
0.9380434406510278 10.282810396904368 691.3625040370387 183.65137757232483 3.7297564568916495
0.9437651848598733 10.145760122318505 604.7825030067276 193.02331356564093 3.7572068938552694
0.9507244277968857 10.014102834182859 527.1867607753197 202.88989520917457 3.7860340111429127
0.9588016623283251 9.888019289705982 458.3790033631435 212.96521205143574 3.815299005267343
0.9679111352538203 9.767496548797212 397.8238536693337 223.56581767332307 3.846018916855875
0.9779138498881602 9.652713145105848 344.96214198618907 234.3884571009381 3.8771663836992074
0.9887240628906219 9.543421904016457 299.0201726752317 245.81429364248672 3.9099801116680104
1.0002452731379066 9.439744159663597 258.49227306654194 257.43930962093305 3.9431067887201294
1.0123765947898438 9.341203289880427 224.97556725311722 269.7695699106008 3.978193329503222
1.0250289833252884 9.24763509640763 195.43098709224537 282.2852203761328 4.013514967854591
1.0381252695156957 9.158924183447235 170.00879005455712 295.5086900413813 4.050750843610781
1.0515841075663535 9.074771533054742 148.16745040637414 309.1163031431796 4.088797173392141
1.0653332461159049 8.994759542174094 129.36001809520897 323.32055393630395 4.128343024725273
1.0793088455791493 8.91881398838856 113.19607489594408 338.15164351784057 4.169460429699852
1.093445281077274 8.846597170539017 99.03565460620317 353.4360920372041 4.211518598852093
1.1076828339298048 8.777822249611871 87.25483401964918 369.51223839629597 4.255610745766596
1.121970336727249 8.71223253146308 76.89267245524914 386.12175433282823 4.300841335083867
1.1362511010127307 8.649574370935284 67.91743673405578 403.45428482132064 4.347802745145344
1.1504869866416272 8.589643386080363 60.13800004109492 421.64104624152986 4.396884073435454
1.1646139410014933 8.53222063780599 53.36127822680687 440.41705022840165 4.4471109314457795
1.1786314244902092 8.477097865688789 47.49943549330563 460.0825391864927 4.4994695368552176
1.1924118052383788 8.424065731383998 42.378850894229764 480.69908677608703 4.554109450490302
1.2060353076169181 8.372824679659134 37.890154435697376 502.1012321860548 4.610410249043243
1.219380524689947 8.323373785482923 33.96545232586769 524.4766889699617 4.668894681291596
1.2324641300278218 8.275398073688526 30.51303574066714 547.9366410207591 4.729878355840885
1.245231662253864 8.228938800092362 27.483833111375397 572.519663268102 4.793423844021618
1.2576854031766083 8.183558344991061 24.803490372528223 598.0903627966303 4.858976890823579
1.2697543778883784 8.139337876443575 22.437090788878912 624.9212038507744 4.9273593190863325
1.2814378300991636 8.095982763219647 20.344562188559788 653.0730932434581 4.998666787487218
1.2927260974965895 8.05361189678024 18.461229701266948 682.6132469863417 5.073006194685179
1.303587320640194 8.01189679606856 16.830226019052382 713.6177059871933 5.1505055933798305
1.3139628927174198 7.970849238767508 15.360882173551335 746.069057200471 5.230972329848874
1.3238909067872948 7.9303142661605435 14.04671707980582 780.1764425128599 5.314971792478138
1.3333396201180838 7.890188777663404 12.855155294778326 816.046883963547 5.402704498300128
1.3422979564282411 7.85045742038626 11.817448016892362 853.7899662282052 5.494364420172141
1.3506994066348788 7.811011002210809 10.874551087079936 893.5269941239213 5.5901692829848475
1.3585738087340509 7.77174722972136 10.026225583528845 935.3912520256408 5.690359913617642
1.3658979080984948 7.732607920170284 9.261479597259468 979.5289216383164 5.795201723653812
1.3726764659288613 7.693568369370501 8.572709391456986 1026.098602483148 5.904980779679948
1.3788765487892167 7.6545737580866815 7.952612379872304 1075.2751774670594 6.020015400851529
1.3844915179952106 7.615504103626017 7.390612422864688 1127.249739535657 6.140653226658513
1.3895369389635732 7.576328835909776 6.874398364727484 1182.231885139028 6.267276195519375
1.3939319861030026 7.537075953901972 6.420263499706499 1240.4497548185484 6.40029501169195
1.3977475497547263 7.497647426147917 6.002675765020901 1302.154468874282 6.54014289866062
1.4009267080328507 7.458043560473895 5.623706554179182 1367.6212308309382 6.687331654931345
