M[M_sun], R[km], Lambda[1], P_c[MeV/fm^3], rho_c[fm^-3]
0.23848912294887037 16.21570186450063 2784644.0411725277 3.4469561053153734 0.1694538074003404
0.24846398093449334 15.873192259468354 2286073.857079829 3.632409948533557 0.17193035811476692
0.2587313669294981 15.569895755200406 1884983.7162211607 3.8167115559336606 0.17421435029662433
0.2692835102544668 15.300675977736182 1561365.702798578 4.012543656227844 0.17661528836820004
0.2801183225064049 15.060907365051525 1298405.9001947187 4.216442082726625 0.17904524805210642
0.29124126814444645 14.846847610496011 1083828.887739674 4.423005431784287 0.18137360954345247
0.3026445816925588 14.655243556188966 907886.2271497856 4.644526562415236 0.18387057365849768
0.31432748993052456 14.483765098595201 763127.2249666648 4.866793510342027 0.1862359865284181
0.326304821817684 14.329786599293245 643423.7736637368 5.099894126667368 0.18866966303210086
0.3385523022045787 14.191341030678755 544127.2076288062 5.346872606659227 0.19122485348746204
0.35109122658104663 14.067101193527696 461470.0417645914 5.592257220424085 0.1936006170541161
0.3639121602303866 13.955203638175536 386714.4794134687 5.854625290285625 0.19614081096386016
0.37700655286616097 13.854344118291591 334556.99888403487 6.124903157235227 0.19866626264470746
0.3903879284860308 13.763634158549683 285941.61257960554 6.40063247829228 0.2011252353756527
0.40406128492612053 13.681982296831809 244916.83053586248 6.695195987398784 0.20375217266925505
0.418005380864105 13.608347376898559 207651.74920713596 6.991675993979905 0.20625350263931277
0.43224734780496826 13.542165757953056 180863.38274490202 7.3007695183228 0.2088018655409958
0.4467676311333988 13.482701083565408 155897.67727821454 7.630717792431397 0.2115221682163761
0.46156771345104497 13.42932468084894 134650.5818736451 7.956598439157631 0.21403025069881226
0.4766615212011306 13.381597461591436 116501.03197911038 8.30257541905676 0.21668317352445232
0.49202405100767604 13.33871809252715 100974.9652223033 8.667052492251353 0.21944869469107248
0.5076651607504933 13.300523149264095 87677.66853969482 9.030332073331842 0.2220427903031437
0.5235912319863804 13.266506412930891 76253.65956063307 9.417261124771343 0.22480576132270041
0.5397934803809031 13.2364357608834 66425.29581023811 9.818754014715966 0.22760007706536067
0.5562720887412597 13.209772449633478 57953.90518316121 10.22484609596095 0.2302813299395632
0.5730340439102241 13.186356324524338 50630.99601932736 10.657141298342252 0.2331355908508701
0.5900567034268671 13.16583481474363 44300.72354346644 11.100333633871525 0.23596211610700174
0.6073748989771592 13.14813198791398 38814.894422692334 11.553889133507433 0.23874784630461726
0.6249501435814696 13.132675405610126 34050.51342565213 12.036476331096281 0.24171188869939603
0.6427935458415921 13.119587588863396 29911.908363860737 12.526204053089671 0.24459704720160175
0.6608993035418108 13.108502805898151 26308.95507396488 13.032709212525386 0.24750552943909004
0.6792737753411875 13.099270516451961 23167.093637735696 13.571413383798582 0.2505989066421071
0.697900357192842 13.091795677299991 20427.341180353476 14.11286793667731 0.2535565138998484
0.7167749270438097 13.085743041993593 18030.652310444235 14.678690113470282 0.2565992733587633
0.7359111698828819 13.081197995967578 15933.984536509162 15.28028155635932 0.2598343852513866
0.7552708552827481 13.077872764859901 14098.354771492679 15.879009106053271 0.2628478677065013
0.774896297179862 13.075710211198793 12485.103754890322 16.51118058093045 0.2660096342234599
0.7947436088546579 13.07448783119683 11069.175686370249 17.180784177047528 0.2693485541521362
0.8148335220351928 13.074270046710813 9823.56431650405 17.846202878336232 0.27246925842272907
0.8351505525014157 13.07479589931928 8726.313716859304 18.55275015026824 0.27578284892540617
0.8556893545700763 13.076041790081048 7759.512399547132 19.29374945190144 0.27921997711490404
0.8764275142136031 13.077841675513186 6906.655190744818 20.038322489445278 0.28250811784291524
0.8973863257861444 13.08020011285942 6153.003119128183 20.82880955735736 0.2859990214774897
0.918525514389136 13.082957504695168 5487.094251200873 21.648840972276837 0.28954844296738164
0.9398754932543981 13.086212898623758 4897.654314323892 22.4830528483803 0.29302472743550684
0.9613738272811179 13.08951101226301 4350.863367819274 23.368656646045594 0.2967151696539952
0.9830700873521925 13.093159397337143 3912.291072928292 24.276108571793106 0.30036760397628465
1.0049320660481365 13.09691044308226 3501.0955612481857 25.21178718097807 0.3040241071006737
1.0269418556563883 13.100746493500381 3136.041086272003 26.205117694631035 0.30790590592675443
1.04910628977661 13.104570740885501 2811.245347430988 27.210425997960833 0.3116758551486193
1.0714177743041158 13.10842615999019 2522.166682034542 28.2613284835729 0.31556408656805673
1.0938364956750475 13.112057509440998 2264.7204701254936 29.376371631890255 0.31968756747995764
1.1163768984434794 13.115595275092472 2035.3113540534944 30.49099574672258 0.3236051869168378
1.139022033772281 13.118900274259 1830.526123761492 31.673605978095196 0.3277617602109439
1.1617601930640489 13.121967633986785 1647.684512109681 32.90743860836744 0.3320372199026259
1.1845651137075073 13.124637024364649 1484.34313994172 34.164201645666616 0.33624298945674325
1.207435754751445 13.12698929586452 1338.261942450663 35.497942591045444 0.34070636631831036
1.2303614296818781 13.128933855993147 1207.483702862941 36.86378956511788 0.3451239983917148
1.2533269758480832 13.130379593309113 1090.2859073880982 38.28362865168017 0.3496239299480927
1.2763153900797457 13.131315262599232 985.2662201237564 39.790077124731525 0.35439629711702403
1.2993453197660956 13.131953651509537 891.0513770407733 41.30512450173994 0.3589889901220752
1.3223157536919437 13.131517754361056 806.405052851915 42.912790129477294 0.36386244477109747
1.3453004757059506 13.130687415237325 730.3987578730729 44.58128447383921 0.3688303128017744
1.3682493216369487 13.129228727271366 662.0998714699406 46.300652820257035 0.3738276182427119
1.3911468360129515 13.12702305188864 600.5909386032454 48.12600256154624 0.379132956224979
1.4139626395927611 13.124047409802465 545.2395858618507 49.97670645616703 0.38431588267302047
1.436717859892078 13.120391716443688 495.3529469734517 51.933501016333224 0.38977826922895853
1.459337956506152 13.115820385435754 450.41853595119346 53.96551586393959 0.3953384109621998
1.481867048332861 13.110447681804143 409.8214135973304 56.06833982114576 0.40095790253624947
1.5042385683537849 13.104079041287335 373.1872105450341 58.2953626405904 0.40689679813986135
1.5264602374111809 13.09686481606497 340.0911164857566 60.56067724673923 0.4127391196092951
1.5485195921445989 13.088697964964908 310.1564306015022 62.966309360314874 0.41894332458221745
1.5703921839014725 13.079581324069464 283.07643060702134 65.44298693139164 0.42517969827209967
1.592044376109384 13.069376533118357 258.5499682727954 68.04125162345187 0.43165918057944497
1.6134595961558882 13.058152271823284 236.35637674552882 70.75213072623883 0.43832471105842247
1.6346279464805669 13.045854121924952 216.22673804779572 73.56581638800468 0.4451160642126433
1.655530294855672 13.032507852994295 197.97009186669476 76.52986076200283 0.45221718463870764
1.6761429735697129 13.017959368576175 181.3960227465791 79.5843325949363 0.45934196261780064
1.6964567240889066 13.002317568751247 166.33931184294406 82.823801968917 0.46688554563490337
1.7164337473923255 12.985466757948123 152.65913879545914 86.14792818856567 0.4744235115768823
1.736063193725051 12.967341495714322 140.2086883443346 89.68233907389313 0.48243833024444
1.7553289322726289 12.94804134945218 128.884451616362 93.31403345764814 0.49046471137713815
1.774211901348593 12.927573252045788 118.56567056694017 97.17158147769986 0.49898167070429916
1.7926855159506256 12.90576409636136 109.17062299652737 101.14860639168698 0.5075503906272751
1.8107169897716304 12.882574955674626 100.60052075346898 105.36987582182294 0.5166277707442705
1.8282914156216898 12.858098324539348 92.78716361672494 109.72717579182638 0.5257608951153696
1.8454349743412102 12.832351732403978 85.64701383092503 114.35391908774892 0.535439480320267
1.8620729378675123 12.80519121965209 79.12782881950297 119.13681668707959 0.5452274262033716
1.8781970946375528 12.77668160029509 73.16716494313047 124.20574103037937 0.5555636192645581
1.8937967484743106 12.746787720847136 67.72028376333768 129.47753416621597 0.5661223210668976
1.9088394976543295 12.71540556398739 62.729772243403076 135.0393879050459 0.5771752115558836
1.9233340616457189 12.6827315800415 58.165365755226546 140.86517961875774 0.5885931725184728
1.9372426242415324 12.648643373115245 53.98312815534298 146.97909676282092 0.6004190856650395
1.950515619133765 12.612859892116262 50.14486551274245 153.43386079124173 0.6127989787184421
1.9631953082104454 12.575732532658261 46.62466501436222 160.1689704835893 0.6255005038937975
1.9752145016783185 12.537148111414382 43.39484212591492 167.29688456039327 0.6388583425275743
1.9865976439426645 12.497078691470852 40.411339976750284 174.7767275703294 0.6526913966916554
1.9972924265065701 12.455528666705971 37.704956920248314 182.65028973767386 0.6670781466518108
2.0072891551057257 12.412484316326598 35.201147901787486 190.98067110448744 0.6821763302556734
2.0166016906076623 12.367943146126915 32.89471755334589 199.72010940146185 0.6977628263683577
2.0251598303111926 12.321819510769288 30.774834299143205 208.95529706456807 0.7140801438083748
2.03300558038293 12.274292816095864 28.821413231767394 218.734653856696 0.7312143817024369
2.0400877761089116 12.225277681116799 27.023798688918408 229.06972385575344 0.7663624119979926
2.0457100202881224 12.175879953024447 25.44947595671893 240.25275788565312 0.9588833089285904
2.049186967031057 12.125804003163903 24.122703815317664 252.3643060401504 1.1577703740412235
2.050449670257206 12.073853102443406 22.997428676017854 265.6523073154753 1.3543063911145918
