M[M_sun], R[km], Lambda[1], P_c[MeV/fm^3], rho_c[fm^-3]
0.23848912294887037 16.21570186450063 2784644.0411725277 3.4469561053153734 0.1694538074003404
0.24845111246786908 15.873646824509146 2286424.1202771924 3.632146009490875 0.17192683347265986
0.2587037930146707 15.570492641762524 1885944.5283380803 3.8161932827290324 0.17420799617047955
0.26923916506699747 15.301655781457066 1562573.3022083063 4.011708590364524 0.176605050304979
0.2800580466345831 15.062123559100227 1299817.6627990943 4.215347617747847 0.17903291135190358
0.2911638874051057 14.848224531782433 1064341.4134492276 4.421539129263914 0.18135708152752575
0.3025501740234683 14.656932680670026 909261.2037949648 4.642638707926267 0.1838492939507788
0.31421320137244196 14.485415094203324 764421.745293093 4.864631294617807 0.18621341201237057
0.3261719010708649 14.331357482155772 644601.788976874 5.097248375386048 0.18864204018481096
0.3383986537881836 14.19318643855646 545290.244120601 5.343943530221127 0.19119649476937123
0.35091614146328753 14.068665314723647 462543.47852792416 5.588779334028769 0.19356694487043602
0.3637116562076346 13.956803393743384 393405.2526001382 5.8505330672883264 0.19610119089903846
0.3767865993961389 13.856091015929977 335455.0102480123 6.120513483160784 0.19862711523446683
0.3901484595691827 13.765176405204494 286730.0746796714 6.3955548910442905 0.20107995310921134
0.4037970024848492 13.683385949554797 245625.60574955097 6.689351839761321 0.20370005416542294
0.4177164719359594 13.609737948610823 210917.35724241554 6.985523320348977 0.2062027760986628
0.43193151001225544 13.543542263768305 181463.7661980573 7.293767572347412 0.20874413706091458
0.4464255333854014 13.484020011168196 156439.07619199637 7.622772999172946 0.21145666630576693
0.461198598503063 13.430593092182532 135128.98748155168 7.948332338618683 0.2139668669245357
0.4762651631839428 13.382691217945201 116926.49865189545 8.293272795735888 0.21661184177933604
0.4915983020781149 13.339802204499918 101375.01870667258 8.657401949675162 0.21937978239471786
0.507208281882739 13.301511935827119 88034.01439725567 9.019544799772762 0.22196576087329634
0.523104731732503 13.267507491904647 76573.82080451067 9.405219816200384 0.2247197771183732
0.5392742056338748 13.237332989220809 66714.31845005394 9.806346124992341 0.22751815305964684
0.5557319456873817 13.210524419455203 58207.11772737622 10.211070209672066 0.23019037363577732
0.572455212287804 13.187085156191646 50863.38471938543 10.641859677563343 0.23303469282421982
0.5894457555854924 13.16648588466287 44511.152514257235 11.084666022652602 0.23586588590423255
0.6067282493506962 13.148753400765425 39003.319767036664 11.536586084777325 0.23864157127235114
0.6242675200302972 13.133148598856168 34218.508643359455 12.01737671389599 0.24159457917401167
0.6420760067030076 13.120042288578482 30065.284388494412 12.506686796059835 0.2444849741173729
0.6601499070676167 13.108874892515287 26447.901544712302 13.011246038069114 0.24738228239904858
0.6784744077909661 13.09958119489888 23293.67568462363 13.5478161669787 0.25046340538472356
0.6970752755515136 13.092038958428272 20385.359394590734 14.088808371897866 0.2534271314342742
0.7159225245400804 13.086073736951636 18000.244807431794 14.652323166070563 0.2564574827363845
0.7350097396321938 13.081370924318126 16026.65894508639 15.251387780865533 0.25967900638450336
0.7543356118645143 13.07801799880733 14180.69729909334 15.849607665572798 0.26270081822110725
0.7739247236740441 13.075780539554673 12559.74177846115 16.479051871456022 0.26584894447093815
0.7937358489667915 13.074551165982673 11136.875388221551 17.148020507651466 0.26919474971346213
0.8137815905938238 13.074204586068657 9884.186872194925 17.8105261050173 0.2723019402234633
0.8340542549316853 13.074682871766928 8781.511604838075 18.513857825573602 0.2756004503190358
0.8545500795949619 13.075885810337356 7809.3878409682 19.254156864037917 0.27904513060003305
0.8752539206511437 13.077718890885519 6951.720124453804 19.995258191247707 0.28231793976005887
0.8961675455300586 13.08004202595857 6193.9442638430055 20.78195842625159 0.2857921202004162
0.9172683891728414 13.08282798316662 5524.131336429113 21.601159291049967 0.28934974633813043
0.9385663248558197 13.08591485405624 4930.919531699621 22.431281364900766 0.29280898799440425
0.960050960174938 13.089263883433361 4405.687277412886 23.31242738335247 0.2964808539865328
0.9817044282457 13.092944620434674 3939.8685121394146 24.218903236004127 0.3001440534034802
1.0035178367180182 13.09666607076235 3526.244890748042 25.14976677660159 0.30378173990305657
1.0255034278601936 13.100514644903011 3158.562540659786 26.137852069291405 0.30764304112808966
1.0476141911479173 13.104388688862043 2831.9348581759796 27.141996973454418 0.31142267477581587
1.0698749949514408 13.10813607206425 2541.035461179206 28.18723087357939 0.3152899330103038
1.092263787976823 13.111775942134186 2281.8072386220615 29.296797458296748 0.3193952155800212
1.1147695398341477 13.115416305439112 2050.867227742057 30.409292905943953 0.3233180222728799
1.137375315271252 13.118720887435014 1844.7084421282837 31.585223239716804 0.3274511174308817
1.1600743882348188 13.121762131144315 1660.5435152891544 32.81725276809166 0.33173541212344465
1.1828386346475293 13.124467332133635 1496.0577671165333 34.06676636646209 0.33591692136067963
1.2056779486201887 13.12684668045264 1348.8846708199787 35.39262414164957 0.34035391711761787
1.2285670543618263 13.128799648681674 1217.1951529178928 36.75627204944773 0.3447832404380802
1.2515028437326523 13.130257947755801 1099.1398570652532 38.16754359978055 0.34925601868743594
1.2744602777951441 13.131265584246911 993.3088358569994 39.66551002685922 0.35400356117968174
1.2974276812867511 13.131717172557883 898.4365411664279 41.17701913243451 0.35860065333310936
1.3204131622769004 13.131659792118253 813.1657902830698 42.77454222195182 0.3634433620364645
1.3433747997625742 13.131057520270058 736.637894160561 44.43969645003106 0.36841879039401215
1.3662689520671338 13.129404383723307 667.7031341578602 46.14798781406693 0.37338390083470907
1.3891416661341667 13.127263079228387 605.7239082379126 47.96129999775613 0.3786542519264618
1.411939465574912 13.124398213650192 549.9574479125058 49.80784226774067 0.38384449876209975
1.4346540276652255 13.120706367814128 499.6557665054012 51.751456937929326 0.3892700936919327
1.457277561774123 13.116415567051716 454.37752546788914 53.778462987655175 0.39483853932121915
1.4797533210500573 13.110908507564115 413.4421998515947 55.86681527225757 0.40041935745235857
1.5021266226694665 13.104732854380943 376.50394659943936 58.08439909635236 0.40634552810090224
1.5243370169151458 13.097599502125789 343.1258467671129 60.33722389317534 0.4121628260024823
1.5463877903422443 13.08954100306773 312.9323535876257 62.725545378824776 0.41832238629209745
1.56823360455843 13.080482145941797 285.63021395254896 65.19476258320267 0.42456068309737266
1.5898869740735622 13.070467454579958 260.9014706951936 67.7739077378352 0.43099248561871845
1.611312398724693 13.059483911010535 238.52083269270526 70.47589176669794 0.43765795700174537
1.632464667799106 13.047194451525282 218.20737039580985 73.2683918504231 0.44439817482688315
1.6533547636302064 13.0339122661439 199.79570621083553 76.22192633713867 0.4514989051687117
1.6739882452493795 13.019615405155387 183.07403025214958 79.25285268653501 0.4585687615928558
1.6943197145251996 13.004206624958082 167.88951609709983 82.47425831543248 0.4660829248072707
1.7142815492376062 12.987332598270731 154.0777498163197 85.77781058432008 0.47358421315348337
1.7339278346881486 12.96944578185995 141.52084355363644 89.28369226374355 0.4815343374718359
1.753207037291925 12.95031914089718 130.0915383417995 92.89995482356211 0.4895504801436123
1.7721127168467474 12.9299114576918 119.67708550087085 96.72558978291967 0.4979969796246419
1.790593878464738 12.90828404991268 110.19753251670362 100.68443424757707 0.5065522389902992
1.8086532079292126 12.885329929179958 101.5540898501623 104.86988871229401 0.5155526029252275
1.8262684141880354 12.861036575771532 93.66087825983833 109.20584962915001 0.5246696077049064
1.8434355127584494 12.835480858333026 86.45757843858732 113.79658312869591 0.5342793492285746
1.8601253119711312 12.808671533443412 79.88062711200043 118.49992250482134 0.543837608478937
1.876273590888683 12.780174219803978 73.85837483353257 123.48750593377655 0.5539438232698395
1.8919278962798909 12.750461021494882 68.35593700989709 128.80051882710254 0.5647094475950519
1.9067013580425858 12.719585292221248 63.40205398985165 134.3951238051059 0.6481874493398826
1.9196394863056092 12.687126134355934 59.11501503197008 140.36859317222041 0.7570415701088892
1.9307252931611196 12.652502544346017 55.37640172560846 146.77347514315136 0.86476623847081
1.940028460601072 12.614739073171235 52.061872590162764 153.65127066381297 0.9702479652710967
1.9477109030400337 12.574119511807494 49.10267014335851 161.00327872224622 1.069275986039026
1.9539561911566858 12.530449989225945 46.42560269419273 168.86659402931318 1.1692855663162691
1.9589194753136323 12.483844827610307 43.97570608051333 177.23288579627956 1.2630570254154323
1.9626680809575612 12.434030200277084 41.72228036047469 186.14180845936804 1.356375773057603
1.9653802365716813 12.381547213978736 39.6299612973326 195.64638657105039 1.4501617979190133
1.9671472847228362 12.326226057130452 37.6750507317042 205.68274714566655 1.537343298816451
1.9680472461197838 12.268252768967713 35.8379241626138 216.36253803394732 1.6255230359904906
1.9681651473763424 12.207868893705337 34.10975904437896 227.72318093207713 1.714165885131021
