M[M_sun], R[km], Lambda[1], P_c[MeV/fm^3], rho_c[fm^-3]
0.23848912294887037 16.21570186450063 2784644.0411725277 3.4469561053153734 0.1694538074003404
0.24847037195345303 15.872825954999678 2285487.964223014 3.632502347352617 0.17193159200864253
0.2587402515413709 15.569699090740736 1884859.741906763 3.816893002484712 0.17421657486517933
0.26930191817457433 15.300150681283867 1560856.2781283502 4.012836031451971 0.17661887294297474
0.2801395766068053 15.060432483739216 1297911.013804919 4.216825300342719 0.17904956764289628
0.2912677736930088 14.84638363394613 1083346.058974751 4.423518880349216 0.18137939708452314
0.3026783086484893 14.65485443653903 907476.8502205755 4.6451876705952495 0.18387802560403874
0.31436673086167805 14.48324587934271 762744.96605887 4.867550731594158 0.1862438922628535
0.32635138129936614 14.329253786428742 642973.7781272817 5.100820750168596 0.18867933740310103
0.3386033644849156 14.190869278502127 543727.8957712116 5.3478984999381005 0.19123478597604732
0.35115195234599256 14.066562382218152 461133.70090552873 5.593475416725648 0.1936124113811763
0.3639791555784916 13.954666713747791 392088.39160382055 5.856058772974905 0.19615468964962765
0.3770807710639624 13.853887777069088 334283.7500630609 6.126440884467948 0.19867997620015523
0.3904743325211173 13.763027055247532 285630.3058495609 6.402411312890852 0.20114109914289363
0.40415573922216336 13.681395572325162 244661.66319747744 6.69724352258973 0.20377043272654924
0.41810830857428427 13.60779642063676 210024.45020463184 6.993831676658143 0.20627127545346893
0.43235608027781774 13.541745260512139 180666.62628941453 7.303222936511004 0.20882209307538505
0.44688735871373003 13.482194720832283 155705.32931868391 7.633501785726043 0.21154512122144373
0.4616987251926983 13.42890660692413 134474.7563938221 7.959495077499651 0.21405246188169907
0.47679564627595805 13.381047902633894 116341.83207039461 8.305835524383955 0.2167081717420766
0.492172809310632 13.338325490516453 100839.20216564638 8.670434577498225 0.2194728453809419
0.5078267164229475 13.300109827333294 87551.6027090481 9.034112814792913 0.22206978770499428
0.5237604254492889 13.266146299767257 76141.6807058325 9.421481706590027 0.2248358995229914
0.5399708294380023 13.236034590299408 66322.89031551384 9.823103129257802 0.2276287924144258
0.5564662825840695 13.209363135421528 57857.800307146215 10.229675079014717 0.2303132136558196
0.5732373366476787 13.18605262635105 50547.78521337065 10.662498520477383 0.23317096230456485
0.5902782807060863 13.165619753533333 44223.85192395612 11.105826197473798 0.23599585133962808
0.6075995612055621 13.147854727532213 38746.78403838747 11.559955503568213 0.2387851058467941
0.6251866561668076 13.1325254324328 33990.81443923397 12.043173107478982 0.24175302018652592
0.6430418238800255 13.119401190994425 29856.741061674573 12.533047267713588 0.24463634269111492
0.6611635476987461 13.108360173085837 26260.8516076288 13.040235313954398 0.24754874623938525
0.6795404315562246 13.099071880676812 23124.772137711832 13.579688470344353 0.25064642430660405
0.6981886749246914 13.091693785090422 20388.341708541197 14.121305134476971 0.25360188568707165
0.7170815860409055 13.085700031672628 17995.726783636717 14.68793721980795 0.25664900050172545
0.7362193815227716 13.08117207012248 15903.441487154896 15.290415693127269 0.25988888247997416
0.7556015383818007 13.07779014634797 14069.11372881956 15.889321231713948 0.26289944316494623
0.7752395971430597 13.075688350719911 12459.159953122311 16.52245019991665 0.26606599852552903
0.795103812231662 13.074466590180927 11045.008798068038 17.19226513055606 0.2694023979358699
0.8152040604689194 13.074222800722136 9802.00805599862 17.858717983535364 0.2725279522078094
0.8355333308498151 13.074780599308413 8706.970534437078 18.56639441254232 0.2758468382714605
0.8560919193430867 13.076197379174657 7742.163513933823 19.307639243437634 0.2792813164153498
0.876846039879303 13.077930745921833 6890.89589693381 20.05343151239822 0.28257484144318945
0.8978068427626135 13.080239517561724 6138.6406483863175 20.84524862608212 0.2860716187495891
0.9189587429041048 13.082984553014063 5474.201352919844 21.66557126736737 0.28961816058545486
0.9403230069723784 13.086230968648792 4885.735334153045 22.50121974556451 0.29310043158732313
0.96185788557636 13.089618392737023 4364.367181041676 23.38838957810042 0.2967973997051102
0.9835545075340475 13.093172937761418 3902.399048975643 24.296183769329573 0.30044605508310085
1.0054282000434378 13.097010209857324 3492.36521994208 25.233554100787135 0.3041091692251135
1.0274624917722572 13.100846987172089 3127.9372804234317 26.228727676870122 0.3079981704853075
1.0496255691949943 13.104654645438524 2804.0329647140875 27.234443962047447 0.31176471915253123
1.0719584458770912 13.108563054787812 2515.7216144590816 28.287338473338487 0.31566032086268486
1.0943862111387623 13.112191962980848 2258.823317188567 29.402894956497665 0.3197807902001823
1.116944793310038 13.115669779224408 2029.8734580926825 30.519677615360784 0.32370599636871294
1.1395983526995481 13.118988550801124 1825.5997170249593 31.704635779486967 0.3278708220475194
1.1623428431897136 13.121977228702281 1643.1571815842499 32.93910101500694 0.33214317845002295
1.1851710915054974 13.124729443339675 1480.2621375290987 34.19841244449258 0.3363574762230262
1.2080625279178094 13.127102515954439 1334.530285858482 35.53492488931008 0.34083012793403783
1.2309832044123952 13.128959283560597 1204.1096376594426 36.901543528717305 0.3452436529735525
1.2539780834136374 13.130430168907525 1087.18498126831 38.324395045920326 0.3497531319017628
1.2769673245550566 13.131350887740812 982.4424230933927 39.83178605698383 0.3545227329792355
1.299982043401651 13.131767557682624 888.5202261040615 41.350116059218614 0.3591253768875681
1.3229922254176878 13.131551802539773 804.0970019190505 42.96134874224238 0.36400964465709806
1.3459828083042014 13.130697710372617 728.3140035776958 44.63101573493231 0.368974855593994
1.3689449502387416 13.129204542805299 660.1274243440007 46.35428022742862 0.37398348509590845
1.3918515687613875 13.127036459885376 598.8506647655591 48.18386451866835 0.379301130702398
1.4146975784568687 13.12415204940082 543.6102850239374 50.036029879602154 0.38448148384404823
1.43740806537433 13.120195938184715 493.8949200936177 51.99746140310463 0.389956814470204
1.4600602452755298 13.115626077249956 449.0303845454121 54.03123563835994 0.3955140375130282
1.4825878406801187 13.110156072446193 408.56445443651484 56.13915167964567 0.4011471369421156
1.5049835207094104 13.103875868700243 372.0426789342362 58.36827985768125 0.40708485406010525
1.5272159667281273 13.096600751234172 339.01567524826197 60.639202681520544 0.41294163930888744
1.5492660497951636 13.08840070180888 309.19130291532883 63.05092742309019 0.4191615573713904
1.5711313538057505 13.079194635715858 282.18320299296795 65.53022691543667 0.4253972549878724
1.5927877018345755 13.069036565126648 257.7542357553312 68.13522183333006 0.43189352095061034
1.6142223818024575 13.057786963620853 235.6066015255197 70.84922782159468 0.43855907293962737
1.6353836235328936 13.045463837610402 215.54890795535556 73.67037205690691 0.4453684287469763
1.6563061262721588 13.032101116508947 197.33983132538847 76.63811179223869 0.4524696880496485
1.6769053140333936 13.017452267606432 180.81891087868433 79.70087428392738 0.4596138045940197
1.6972042344637621 13.001704057603328 165.80546479550486 82.94470074921405 0.46715970215847913
1.7171800952942877 12.98479287494165 152.16633933245217 86.27807088497397 0.47471863009775084
1.7368250288444553 12.96673198921422 139.75765680573005 89.82235184632212 0.48275553702273544
1.7560719885833562 12.947307863849884 128.46248630942725 93.45965371461385 0.4907862217768379
1.7749455038981745 12.926720018015777 118.18267001609448 97.32844402104314 0.4993280025956108
1.7934064592849865 12.90481702132585 108.810831380626 101.31186647603376 0.5079014636559164
1.811445678446297 12.881663651534083 100.27421456546173 105.54575498263202 0.5170059797223386
1.8290197849682535 12.857097998253668 92.477519588393 109.91056575050283 0.526144783681563
1.846132451079304 12.831241314802211 85.36612526835205 114.54558693458141 0.5358317183879584
1.862749192334472 12.80406027497488 78.8698393035889 119.34323200200237 0.5456498441811662
1.8788695632669234 12.775451149030378 72.92946991330986 124.42185822566191 0.5559964733164051
1.8944424507203204 12.745432947598644 67.49710851056574 129.71035759685608 0.5665886354903554
1.909470726090075 12.714073145521617 62.52934110757897 135.28357281033368 0.5776537892073411
1.9239380174832748 12.68118983628331 57.975614569492016 141.12835093948357 0.5891089616187677
1.9378269893878528 12.646945578640691 53.80470934485374 147.2555664066054 0.600949339692529
1.9510940326939483 12.61120872445024 49.981220726507814 153.73197749199957 0.6133707506463647
1.963750835557868 12.574034841711368 46.47250049657207 160.48267295732617 0.6260910843052734
1.9757607418178442 12.535375552514228 43.25451731185292 167.6276016310664 0.639469963272225
1.9871031513313475 12.495198920543263 40.299007176279616 175.13348959237342 0.6533511843861386
1.997774357434957 12.453605786319214 37.5855084882696 183.02700498333226 0.667762166561976
2.00775646939494 12.410414447751647 35.0848856733096 191.3791090264805 0.6828869309729346
2.0170162939425422 12.365767843838828 32.7890581697771 200.15022125886662 0.6985299164908179
2.0255604568181296 12.319606654831228 30.676290645219787 209.4109253623256 0.7148800232861622
2.03335530873462 12.271923343732356 28.72972318950833 219.2147250127877 0.7320452698329253
2.040401008395192 12.222763727020693 26.93788023671122 229.54750236822886 0.7499107893044132
2.046667426962158 12.172064087026975 25.286598286688474 240.46483837780656 0.7685600826268116
2.0521793821054866 12.119953560996517 23.76414738200717 252.03598922251254 0.7881361158424756
2.056870472904815 12.066259568622046 22.3601106761952 264.3025651800868 0.8086821623423912
2.0607669686732724 12.011164909464567 21.06465407783157 277.25637736561293 0.8300878986762635
2.0638350944817807 11.954545172616042 19.86961864367797 291.0047999960565 0.8525879868108523
2.0660859986890485 11.896448703821793 18.765643408005968 305.60753050748116 0.8762414255545026
2.0675016944440148 11.837017991629347 17.74829158863469 321.16472315054364 0.9112253896014927
2.067633929872389 11.778112207900197 16.862004486371056 338.28704180382675 1.192925440993036
