M[M_sun], R[km], Lambda[1], P_c[MeV/fm^3], rho_c[fm^-3]
0.23848912294887037 16.21570186450063 2784644.0411725277 3.4469561053153734 0.1694538074003404
0.24849791093394352 15.871837101193961 2284301.3737658383 3.63302756723658 0.17193860579523376
0.258797688560403 15.568166163145989 1882906.7282031963 3.8179245056415065 0.1742292212862532
0.2693862810754488 15.298032906221188 1558527.9527673014 4.014498349790464 0.17663925327582095
0.28025845762372964 15.057994629816756 1295459.2481292747 4.219004315634105 0.1790741292861726
0.29142193559403384 14.84348030393781 1080683.5317994377 4.426438749320283 0.181412309556668
0.3028674506172596 14.65184531513965 904799.6550082995 4.648947707347051 0.18392040836370488
0.31459378480427086 14.480151790767344 760212.83604918 4.871857748880777 0.1862888594831751
0.32661806773276414 14.326039364031312 640559.5687909883 5.106091957002183 0.18873437120103423
0.33891243401650073 14.187664054078635 541562.1456046923 5.353734815052592 0.1912912919834933
0.35149611160064326 14.06338135218022 459082.58924821916 5.6004065868022 0.19367951755009827
0.36436735712708873 13.951356315973905 384550.91219028 5.8642158765594505 0.19623366505565762
0.37751801083554926 13.850744928264286 332549.28220062214 6.13519166695995 0.1987580162701767
0.3909572628752126 13.760073489814474 284080.6277256011 6.412535430328848 0.20123138670683308
0.40468080783824883 13.67843775551539 243239.68659327822 6.708898422103924 0.20387437190856092
0.41868694113592575 13.604997157601195 208727.41003247254 7.00610269651873 0.20637244551791792
0.43298539347762777 13.538929937777281 179487.91072464772 7.317190565960776 0.208937251064508
0.44756995784637643 13.479521462011974 154643.64868119764 7.649152627451161 0.21167278167945344
0.4624361890365782 13.426335304532211 133509.50980298684 7.9759887035591035 0.21417893364020582
0.47758826294407936 13.378678182563007 115474.72815808687 8.324401171024416 0.2168505315827793
0.49302029261878894 13.336098608107452 100061.0754205647 8.689695385448738 0.21961038236345207
0.5087297284847151 13.29810318596353 86852.24605507843 9.055646744122646 0.22222355652243997
0.524727789319565 13.264208913906288 75507.6627390604 9.445524034433195 0.22500758023506567
0.5409989145165798 13.234350095703846 65755.46531396278 9.847878061764941 0.2277923707309231
0.5575598796950596 13.207890607304071 57349.465801088154 10.257187256767898 0.23049486483564594
0.5743933290106169 13.184547486048514 50087.24631916802 10.69302439752087 0.23337251165590772
0.5914959618969661 13.164286177859598 43810.454393707085 11.137123520945249 0.23618807897035674
0.6088879731877762 13.146680116614183 38373.193342202 11.594527142540338 0.23899744426787603
0.6265430887430503 13.131397609789275 33375.03763315211 12.081342689935523 0.24198745711555647
0.6444611718904419 13.11845280858656 29555.57879953235 12.572051542812243 0.24486031521972043
0.6626621772350191 13.107545957802873 25986.55372573752 13.083137797574102 0.24779510327884968
0.6811182554889803 13.098495860077032 22877.964842041434 13.626867263712695 0.2509173370109304
0.6998219538293498 13.091024363970917 20165.59274440533 14.169407925413221 0.2538605627558127
0.7187905933851032 13.085238342459 17796.469949513747 14.740665016127686 0.25693254895136197
0.7380062731202137 13.08079827458512 15723.091331075651 15.347003289809702 0.2601870735336024
0.7574707149900863 13.077609718818566 13905.62357321272 15.94812976260318 0.26319357039350116
0.7771771368290601 13.075481759328287 12312.261909650337 16.58672852380805 0.2663874825853492
0.7971248093472381 13.074435292687767 10912.4034282587 17.25774797736149 0.2697095017177151
0.8173043264399344 13.074221379412483 9681.44549327337 17.93010958779865 0.2728627670903449
0.8377064187049778 13.074904335206986 8598.642038661 18.64423881221663 0.2762119157032112
0.8583340657990995 13.076251637028562 7644.205733068795 19.38688309147517 0.27963126855038295
0.879175807864196 13.078120152377416 6801.931889894757 20.139644124562764 0.28295556863452265
0.9002218236030354 13.08046100164465 6058.066708320365 20.939064838442143 0.28648592452384375
0.921459227508617 13.083363599239242 5401.173217383159 21.76104754033591 0.29001602435879903
0.9428946238069527 13.086590935972941 4819.795976488015 22.604910218279155 0.2935325251478634
0.964510294106309 13.090053318658455 4304.711030938201 23.50103606666993 0.2972668143104646
0.9862795295286693 13.093702894251603 3827.5042885430885 24.410781377308666 0.3008938867504167
1.0082512159312909 13.097534037827401 3443.2789843506234 25.35782821424356 0.3045948153429936
1.0303644026821652 13.101361300628824 3083.337037050013 26.363546045603062 0.3085250221004432
1.0526023458672673 13.105163720249994 2763.5051917830297 27.37158836386543 0.31227213937414966
1.0750069432030687 13.108965658249128 2478.7210480257354 28.435881365093806 0.3162099143280773
1.0975178259742941 13.11264636034653 2225.394655623311 29.5543659072335 0.3203131719536622
1.1201522727472812 13.116197899775294 1999.4913456027573 30.68350210242619 0.3242817976511578
1.1428791589307306 13.11948568170501 1798.0635296374144 31.881900426096216 0.32849386206234316
1.1656943508855013 13.12240932325216 1618.101290972495 33.119975239919164 0.33274847577790684
1.1885965582043392 13.125043033145932 1457.2864904463129 34.393877000438124 0.3370116002336046
1.211560324755301 13.127339619674032 1313.6330174362156 35.74626044220839 0.3415373643880892
1.2345528703927593 13.129177651131315 1185.0514628544563 37.11728350026894 0.34592740306547864
1.2576029070412482 13.130623051444053 1069.9090248161815 38.55738897323507 0.35049156538756476
1.2806941940217575 13.131579828043662 966.6343835605253 40.07016192223234 0.3552453421764882
1.303770861242388 13.131845655940193 874.0038396220775 41.607297097299764 0.35990499181747176
1.3268327143021879 13.131476584444064 790.8826206408711 43.23896875945281 0.36485121801675247
1.3498693295062794 13.13045608406193 716.2400420799081 44.91533463661144 0.36980122208915644
1.3728816323582016 13.128847713002797 649.1111055327733 46.66092830480061 0.37487475083817756
1.395834575502551 13.126507408278204 588.7530334396292 48.502911787109035 0.38020178896571183
1.4187280882594364 13.123454797169863 534.4136765206586 50.37530471675442 0.3854285686055018
1.441511993230733 13.119505459420594 485.4664987462917 52.363322633502406 0.39097811507423574
1.464183154710714 13.114650619792949 441.32152578557276 54.40715650803268 0.3965186314317898
1.4867610547710526 13.109116877093506 401.50667233535864 56.544274851710426 0.40222976977215763
1.5091751978220707 13.102585497794765 365.574203654227 58.78544558773986 0.4081607383078905
1.5314321046004615 13.095123049119493 333.1004209640416 61.08853803356377 0.414100490078265
1.5535206292493429 13.086733344695613 303.7423141253812 63.53521916491081 0.42041056182888525
1.575409743282098 13.077302452001021 277.20070028074844 66.02952391765263 0.42664238836548973
1.597080440236482 13.066816738364183 253.1558522989798 68.67314280110644 0.43323497373027053
1.6185132002640137 13.055365169539089 231.4019980138758 71.40505134835959 0.4399006562987706
1.6396964226448456 13.042812987689699 211.66992342178443 74.26901031095866 0.4468133534058098
1.660592434768526 13.029021125135232 193.76983705669898 77.25791552033893 0.4539154253799834
1.6811953506239306 13.014239800035021 177.54695991785107 80.3682817946979 0.46117058121397375
1.7014823885128274 12.998186622574455 162.79358037870153 83.63707356426342 0.4687297636886775
1.7214424535570803 12.980978651776296 149.3855653699271 87.02353564640978 0.4764090857577777
1.7410488492721707 12.962509255092995 137.19457485391584 90.5972643878464 0.4844664421272118
1.7602580212217187 12.942832226215874 126.11530925298874 94.29397208680923 0.4926282871522926
1.7791136956184797 12.921947382535604 116.00550118460201 98.20174066371116 0.5012134768601477
1.7975139020546276 12.899676118852303 106.81455613785519 102.24748340913223 0.5099134059605227
1.8155049500852094 12.87611789779393 98.423106548444 106.52302294251206 0.5190536705101336
1.8330190718882577 12.85118483955745 90.76986295463631 110.9618184038009 0.5283453614923342
1.8500770206030164 12.824994409747926 83.78637334401478 115.64434697208985 0.5380802724417094
1.8666314828992714 12.797439565127663 77.41209150177708 120.52679884416568 0.5480719508559471
1.8826404581960996 12.768327454467007 71.5792374254156 125.66112861570848 0.5584785673902453
1.8981503563445044 12.73797039151576 66.25045249307755 131.04573239290386 0.5692632139312241
1.9130954566990734 12.706148680674577 61.37168751997369 136.68420811552613 0.5803988923664314
1.9274548363539785 12.672903241996961 56.90554781306709 142.6382475369551 0.5920682058304857
1.9412086951774943 12.638090173127761 52.81422380230835 148.84188268806668 0.6039918096924999
1.9543709721971374 12.601972478409714 49.06275804287007 155.40947539632128 0.6165402157150891
1.9669049705680992 12.564330757503289 45.62091196044175 162.28321527118126 0.6294808089954528
1.9787750457449893 12.52521607238271 42.46717551294837 169.5259839400181 0.6429807890033238
1.9899682413974367 12.484447234974343 39.565084820060136 177.1818884095982 0.6571394472882703
2.0004785172533377 12.442304021398643 36.90247841653561 185.1901973157126 0.6716899784621254
2.0102836121443604 12.39856722417844 34.4530423791629 193.64627842779163 0.6869040946881397
2.0193950324099244 12.353419331623451 32.19979898643917 202.54515693135613 0.7027086295872291
2.0276724420575416 12.306963700176288 30.14514990284213 212.34439909105043 1.005656356863594
