M[M_sun], R[km], Lambda[1], P_c[MeV/fm^3], rho_c[fm^-3]
0.23848912294887037 16.21570186450063 2784644.0411725277 3.4469561053153734 0.1694538074003404
0.24849258238357444 15.872210660398979 2284629.605206622 3.632916558619562 0.171937123386107
0.2587861084970341 15.568391514183945 1883182.9624260848 3.817706474924096 0.17422654818899583
0.26936617163572013 15.298717370486191 1559145.4900896908 4.014146954412621 0.17663494510295463
0.28023095359696176 15.058657198035872 1296042.1701186355 4.2185436670464345 0.1790689369011853
0.2913901009678441 14.84413044482847 1081189.8270441776 4.4258214334633745 0.1814053512338301
0.30282903994593807 14.65242058524477 905415.6848107831 4.648152698811925 0.18391144710670104
0.3145453565411074 14.480791053080793 760730.5648466563 4.870947040593223 0.1862793512742477
0.32656054978958193 14.32668650936359 641121.6017306907 5.104977282114868 0.1887227334879931
0.3388467846252402 14.188366046071792 542029.8384920291 5.352500582853076 0.19127934240015385
0.3514219960074521 14.064069185049132 459526.42638210737 5.5989407013047625 0.19366532514697948
0.36428559981929354 13.952050533667997 390601.6618905189 5.862490571738472 0.19621696100778693
0.37742634909595363 13.851381566551439 332895.2284288822 6.13334072467227 0.19874150944168814
0.39085317229341426 13.76063677928269 284395.09415639413 6.410393825303838 0.2012122877283974
0.4045687663530923 13.679050498972396 243534.94408473469 6.7064327917120385 0.20385238324999175
0.41856417720240474 13.605629025891806 209002.16790600173 7.003506649132502 0.2063510420580294
0.4328492875047223 13.539502605101614 179738.24579417592 7.314235332967984 0.20891288625084628
0.44742529742902426 13.480156030651074 154876.61449031287 7.645999340846448 0.21164815898614062
0.4622779356721752 13.426944261552153 133718.41039632107 7.972498646037062 0.2141521721681977
0.4774212193783779 13.379302325807352 115668.79676671498 8.320472330126785 0.21682040555619028
0.4928407505786159 13.336562795928153 100224.62928799358 8.685619362935157 0.219581276427782
0.5085446179418869 13.298532478861228 87000.5602774656 9.051089281417834 0.22219101273352246
0.5245244880459106 13.264594707155291 75636.22382491839 9.440435237176741 0.22497124230879295
0.5407843786357335 13.234661607387384 65878.47507666734 9.842634141194162 0.22775774735915139
0.5573249202835946 13.208150813273551 57454.90770433996 10.25136344636132 0.2304564126985258
0.5741487280329775 13.1848725591557 50185.08074967015 10.686562053336884 0.2333298435524956
0.5912400249549957 13.164608938153844 43900.54626536832 11.130497824202962 0.2361473840531745
0.6086109188134479 13.146868681706389 38452.65852092329 11.587207601753816 0.23895248777232464
0.6262575158759092 13.131592370156339 33442.96536159728 12.073260634223118 0.2419378172662438
0.6441559015291292 13.118643342118549 29619.578913810074 12.563792742990207 0.24481289107775883
0.662347367791713 13.107743656077945 26045.706673949488 13.074052742274725 0.24774293456650276
0.6807854175592939 13.09864336519379 22930.803313539545 13.616875700227075 0.25085996289660734
0.6994704380491628 13.091145748469145 20214.00721957033 14.159220712050121 0.25380578010307847
0.718433032791344 13.085394236080656 17838.215590512158 14.72949725542815 0.2568724933174595
0.7376318264015053 13.080898478171378 15760.527014358806 15.335607374285482 0.2601300775672128
0.7570719354941858 13.077657805595877 13940.166520853552 15.93567297921711 0.2631312685621401
0.7767774160748475 13.075583310659042 12342.689464971421 16.573111805744308 0.2663193794124669
0.7966994657714469 13.074465107551726 10867.074902927749 17.24387621533049 0.26964444543521665
0.8168579316659641 13.07426520230251 9707.176412339517 17.914984655196527 0.27279183364397125
0.8372463184507523 13.074811146086935 8621.187383379287 18.62774515358566 0.27613456315687057
0.8578619325816569 13.076152810952026 7664.213120188401 19.37009311154633 0.2795571216043578
0.8786851942742285 13.078177877508773 6821.009205617605 20.12137580130593 0.28287489311351344
0.8997098838639086 13.080511915525983 6075.3319495561545 20.919183292278476 0.2863981247803931
0.9209359572997535 13.083434243876562 5416.767175219972 21.740814468979522 0.2899317101531236
0.9423463413857237 13.086470209469615 4833.504158238989 22.582934171491818 0.2934409477053623
0.9639504657987334 13.08995122345992 4317.311039750802 23.477159390300578 0.2971673166629354
0.9857080582193197 13.093614833447676 3859.889457851809 24.386491525284423 0.30079896535438844
1.0076464783121721 13.097347769308449 3453.5491289018496 25.33148459104795 0.3044918680921139
1.029741843408899 13.101222380026337 3092.7677666183176 26.334964179651024 0.30841332810516686
1.051975618089275 13.10505077200571 2772.074873923345 27.342513888059162 0.3121645667954553
1.0743559048011628 13.108889517859284 2486.7098708305425 28.40438703186605 0.3160933885250966
1.0968557551758604 13.1125285548548 2232.360609411901 29.522251271092976 0.32020029719967275
1.1194691932950553 13.116054445487674 2005.8761449150816 30.64876454100447 0.3241597039838805
1.1421994408305431 13.119405859248438 1803.7818460772842 31.84430883726564 0.3283617372167507
1.164985554919982 13.122281587311225 1623.2782044326896 33.08161879917383 0.3326201155811925
1.1878644471177302 13.125011290246153 1462.245128452783 34.352421910360974 0.3368728703771916
1.2108125989366254 13.127300098017667 1318.0505928791038 35.701434249206265 0.3413873531034158
1.233809821875587 13.129262203320343 1189.0605970482268 37.0715238368731 0.3457823758188892
1.2568417093746578 13.130544496302068 1073.489520228149 38.507963993613174 0.3503349215625153
1.279901079335881 13.131501927842178 969.9660262654338 40.01959598008954 0.3550920573008485
1.3029534924184898 13.131733445595207 877.0676708131007 41.552735789571045 0.3597395954475926
1.3260254027647858 13.131450809105385 793.660440221144 43.18006434230618 0.3646726560069425
1.3490561997655506 13.13054902864752 718.7551865856004 44.855009639374124 0.36962588884102104
1.3720556210667865 13.128996931473734 651.4513366018291 46.59585790403579 0.37468562518138415
1.3950093970515027 13.12666759053494 590.8638280269868 48.43611103121915 0.38001531484199574
1.4178647305589294 13.123524924250194 536.3453263971585 50.30330296222008 0.38522757590857865
1.4406491471217753 13.119645162495107 487.19031051215654 52.28566909291672 0.3907613454323168
1.4633086574218395 13.114887287401924 442.9630828759401 54.327368427877 0.3963054093774148
1.4858844070289692 13.10936266961678 402.9874746362789 56.458277975768965 0.4019999556129211
1.5082891373034906 13.102855056353851 366.92705122007993 58.696892743143124 0.4079323575859534
1.5305481837665194 13.095442132287157 334.3425941493815 60.99314445398629 0.4138544668740271
1.5526140576048455 13.087049126595064 304.8871219521514 63.4323911032296 0.42014536484883236
1.5744961685879904 13.077731072076947 278.2583456856094 65.92350993464252 0.4263780135582023
1.5961682770096743 13.067265601891812 254.12635518243582 68.5589129897252 0.43295011051210885
1.6176074848907769 13.055890080115466 232.27632068451308 71.28701941089204 0.43961576428623644
1.6387845689910698 13.043335101031198 212.47445964734953 74.14186957125081 0.44650647560656653
1.659684008728524 13.029688449267613 194.51287149811085 77.12627851756751 0.4536083724851204
1.6802938468911157 13.014942079627854 178.23005561581203 80.2265153301407 0.460839900611861
1.7005787722115033 12.998915400726608 163.42191787670907 83.49000224321587 0.4683962569155155
1.7205528213247685 12.981818232506003 149.96268025775265 86.86516496556305 0.47604995595356797
1.740160817114935 12.963436219048528 137.73630200976106 90.43263468490821 0.4841029613677556
1.7593971250600648 12.943853177381268 126.59948537891847 94.11669681410754 0.49223688663583415
1.7782255928060766 12.922918643101287 116.47016442878487 98.01710599007151 0.5008164401054124
1.7966492544446382 12.9007180055768 107.23024566583871 102.04865122317815 0.5094858390019882
1.814658447566805 12.877314529544899 98.81030013751297 106.31556668988513 0.5186194041852836
1.832171593024091 12.852486790637517 91.13466391340384 110.73837290193944 0.5278776250145519
1.8492358611779247 12.826278179419104 84.12157331643947 115.4107957666375 0.5376023223053273
1.8658031357027132 12.798789882743717 77.71899116628845 120.27518352143623 0.5475570334630719
1.881843404533308 12.7698647023678 71.86515612338886 125.3976607346082 0.5579508762006723
1.897364020170867 12.73954007502258 66.51327146285067 130.7617892052308 0.5686945134207536
1.9123291797532014 12.707809140447358 61.612323276206936 136.38637481484008 0.5798151693005023
1.9267102700844692 12.674619623984286 57.129225704237065 142.31713014508114 0.5914388483070788
1.9405088380705628 12.6399897218555 53.01954538931317 148.5044952366617 0.6033447185598787
1.9536817704856628 12.60393621243511 49.255669944903055 155.05431574113803 0.6158715874674403
1.9662251986590125 12.566324047533623 45.80029136095435 161.90018059635824 0.6287597028684535
1.978120239179401 12.52723257834838 42.630246879550796 169.12210956655656 0.6422338727811308
1.9893634769390616 12.486706469050821 39.717451631069196 176.7460255589809 0.6563333722927536
1.9999128150640835 12.44467544695087 37.04386259447542 184.72987583267357 0.6708541507033493
2.0097524348592426 12.401062187913388 34.58522323904187 193.18034212168416 0.6860993699973225
2.0188980093836264 12.356058090815422 32.324552538369076 202.0950586206498 0.7019984689251009
2.027264263328768 12.309367057311569 30.244489196121346 211.47135155766415 0.7184972100088883
2.0349621601671637 12.261381414206907 28.327722012705888 221.4010065994497 0.7358253818892542
2.0418402265516518 12.211763506310731 26.564368966342975 231.91033896136068 0.7539961674859447
2.0479642821236017 12.160708792528002 24.939633559704905 242.9759514297965 0.7728326689689277
2.0532849558354402 12.108015153073739 23.439445316912607 254.70850581160522 0.7926139155931089
2.0578036672827276 12.05387597343268 22.058955322214377 267.1508020107399 0.8133887773326492
2.0615475517407753 11.998382950932234 20.78245453749764 280.33902162640805 0.8351818640134663
2.0644282376602554 11.941271203238726 19.60740406659336 294.29541327613856 0.8579528683223354
2.0664879700662313 11.882776145323874 18.52221393622137 309.1248063813278 0.8818931882511888
2.0677036487585765 11.822783962414022 17.520781090715264 324.89038680914285 0.9070737435251649
2.068093848780289 11.761489352520883 16.595253112055094 341.6617171799036 0.9335787947206196
