M[M_sun], R[km], Lambda[1], P_c[MeV/fm^3], rho_c[fm^-3]
0.23848912294887037 16.21570186450063 2784644.0411725277 3.4469561053153734 0.1694538074003404
0.24847893925731288 15.872691592344932 2285270.4633036456 3.632714052955772 0.1719344191253722
0.25876316728730114 15.569017157549894 1883838.1799132875 3.817308757831639 0.17422167210326953
0.26933515149280624 15.29941555316978 1559982.0029575469 4.0135060011962285 0.17662708689698625
0.28018750737042103 15.059445196748019 1296948.5954795142 4.217703473918287 0.17905946632795053
0.2913299553467159 14.845227790584328 1082340.1535428462 4.424695557314165 0.18139266047004357
0.30275142625459156 14.653704926162671 906454.0199042493 4.646702832352001 0.18389510435641024
0.3144579488758954 14.482071037839923 761711.9803543768 4.869286237637488 0.18626201173566417
0.32645818933074205 14.32785789543549 642019.3634606646 5.102944643501031 0.18870151181594025
0.3387322606100763 14.18970407317486 542873.6584841231 5.350250006771579 0.19125755278353376
0.3512896722137715 14.065216584714369 460291.6303054268 5.596267878870999 0.19363944742766837
0.3641352151561676 13.9533512806736 391345.46745219483 5.859344936511248 0.19618650561185905
0.37726073898312984 13.852558819329465 333562.86718617525 6.129966117793679 0.1987114144693424
0.39066753851368546 13.761902976483173 285014.5333500025 6.406489533545493 0.20117746899047492
0.4043651262566991 13.680254095172431 244094.4693181627 6.701938071509908 0.2038122990312808
0.4183432924245554 13.606736185962228 209503.51523022694 6.998774288593334 0.20631202547862665
0.4326107903223338 13.540572428834018 180184.7581614463 7.308848557605075 0.20886847426090335
0.4471635525685286 13.48114102008132 155279.9645032026 7.63988581775189 0.21159775522732402
0.46199414042334375 13.427921715463205 134085.96107690543 7.966137522807973 0.21410339560214964
0.47711843119126995 13.38012127325765 115992.02581070908 8.313311935726032 0.21676550024499913
0.4925177150160286 13.337447915401096 100525.40036736608 8.678190826897156 0.21952823096708482
0.5081920103881727 13.299326031936527 87266.77924155827 9.042783869492744 0.22213170570457455
0.5241502782357381 13.265361100089843 75883.79280431182 9.431162161240499 0.22490502541456217
0.5403838173827618 13.235344941427801 66095.07485511621 9.833078474553826 0.2276946553664049
0.5569061119640167 13.208818917067518 57651.13171898289 10.240751798093441 0.23038634850931272
0.5737023091119221 13.185504824909152 50362.061793695735 10.674787738447844 0.2332521027712885
0.5907701493517828 13.165104602888595 44057.90714989178 11.118425933911428 0.23607323870744631
0.6081070243226502 13.147309046748521 38596.271635999445 11.573872460302406 0.23887058355936616
0.6257300656355325 13.132008344762196 33854.973965829886 12.058537343177125 0.24184738706198428
0.6436145605938788 13.118986548992012 29495.881899968415 12.548747480481897 0.2447264973304325
0.6617657018387468 13.107986662116947 26153.3218291166 13.057503436338699 0.24764790421693766
0.6801771223705159 13.098832719697091 23025.151321701644 13.598676419302155 0.2507554579684361
0.6988433400069104 13.091387254002276 20298.302041734434 14.14066501341256 0.2537059951708826
0.7177696177663598 13.085569418163269 17914.912430739543 14.709156987358872 0.25676311170322963
0.7369426174266129 13.081033095345074 15830.032969344964 15.313672639633609 0.26001394879386225
0.7563556402790528 13.077730520234553 14002.873665702262 15.91298651316704 0.26301780360588095
0.7760220088443928 13.0756268220188 12399.619323994291 16.54831468197296 0.2661953581322085
0.7959188382510886 13.074557399464638 10991.853603031659 17.21861446781434 0.26952597199405304
0.8160521492747845 13.074235538391333 9752.262305489578 17.88744279923 0.2726626668691747
0.8364075272627909 13.074803809086676 8663.134537892256 18.597713176697784 0.2759937181244919
0.8569845038631732 13.07605301616508 7654.270155273917 19.339521319995924 0.2794221122125905
0.8777774677380791 13.077947255878822 6854.84077941214 20.088114701358943 0.282728007352306
0.8987725819442332 13.080335124023122 6106.231018373908 20.882987804297276 0.28623828034311155
0.9199665193437622 13.083176453531149 5444.69337226557 21.703978629869994 0.2897782097546817
0.9413540931259615 13.086278261982539 4858.753420727673 22.542928211502442 0.2932742369435914
0.9629272224089733 13.089765177347806 4340.314395077448 23.433696910152477 0.2969862020696132
0.9846562409571479 13.093405215137404 3880.675479327404 24.342276413359055 0.3006261787871705
1.0065699733171392 13.097185925984498 3472.3603118114247 25.283534784731504 0.3043044868536322
1.0286202672654452 13.101027618628844 3109.9296048891792 26.28294463598389 0.308210042893684
1.0508370083630767 13.104863302131548 2787.5057864604114 27.28959707385888 0.31196878000989997
1.0731770359852728 13.108627902299185 2500.568851455328 28.3470706485858 0.3158813237851517
1.095654264772216 13.11237922727671 2245.21434954361 29.463805298882654 0.3199948745161944
1.1182356164554197 13.115873676323297 2017.5560558551815 30.585550234411542 0.32393752182139013
1.1409256852930214 13.119177556153844 1814.367329051501 31.7759066009001 0.32812132080448597
1.1636976311147202 13.122137217393547 1632.9906972104322 33.0118239816535 0.33238654655517064
1.1865466662483617 13.124845520374299 1470.9820835322362 34.27699502693205 0.33662045358860665
1.209472986323427 13.127187333417398 1326.0276329347028 35.61988073953264 0.34111443350136106
1.2324294169599954 13.129065632882202 1196.3611260291143 36.98827100918304 0.345518520548228
1.255429075466122 13.130426964210272 1080.1676070333276 38.41805047766247 0.35004995640582903
1.2784631566752507 13.131404129812589 976.069716832861 39.92760585896182 0.3548131997599897
1.3015040927363737 13.131744847103773 882.6244065172574 41.45348592363 0.359438730819874
1.3245387786852265 13.131486468962716 798.7458758664342 43.0729237268121 0.364347871473598
1.347562763263131 13.130654745496994 723.385139518577 44.745284091002425 0.36930697400172546
1.3705223304244971 13.129036895261084 655.6256767676185 46.47751158811668 0.37434165427503957
1.3934455222722348 13.126763644415622 594.7570127984952 48.314616808060585 0.3796761640569746
1.416299520145689 13.123721625521885 539.8775212206565 50.17236132234533 0.3848620526861492
1.4390764991468945 13.11992034626014 490.43628618847305 52.144462358051165 0.3903671672258565
1.4617281881241209 13.115255115662452 445.8964701804166 54.18227937046352 0.39591767994679467
1.484273306654705 13.109773435695955 405.7039945297253 56.30191341221616 0.4015820940299989
1.5066621938735951 13.103325164559116 369.41925174955173 58.535880291115994 0.4075171011342575
1.528920707128736 13.09606318431187 336.61967219533585 60.819710305310394 0.41340717445486735
1.5509923683793019 13.087790462560797 306.98697677347167 63.24545869606543 0.4196632599735343
1.5728571077546818 13.078432422196224 280.1584834607399 65.73078567086229 0.4258974029948613
1.5945213728633392 13.068168843451248 255.89443508593266 68.35127366784471 0.43243230517974796
1.6159461201627767 13.056776153084954 233.9098923206781 71.07246944873557 0.4390979080871489
1.6371282552014854 13.044371247318558 213.9649917200004 73.91078556973986 0.4459487114313152
1.6580303657818571 13.030833317262056 195.89161855000884 76.88702383527941 0.4530502935159901
1.678638001243247 13.016134588563688 179.48446278663133 79.96887640641856 0.4602389390608324
1.6989396880865237 13.000286579804003 164.57757890802506 83.22272515469291 0.467790165131621
1.7189128713598878 12.983321024294986 151.03746644789933 86.57738323497256 0.4753973667494961
1.7385208945995254 12.965037067977255 138.7214153281687 90.13348353562223 0.48344247492458026
1.7577653620753122 12.945492717996483 127.50397777019778 93.79460146940396 0.4915257424229692
1.776627673088811 12.924773259892506 117.30038237197687 97.68164512878137 0.5000950680625463
1.7950677633529268 12.902772700593887 107.9999651599652 101.68743428382336 0.5087090813186683
1.8130711952449765 12.8794295887929 99.52520807217218 105.93869062743501 0.5178304928823378
1.83063918640002 12.854813515326903 91.78754565575309 110.33249500136043 0.5270280044223047
1.8477192520100643 12.828712081322292 84.72404805900246 114.98657228773715 0.5367341714893031
1.8643093217609406 12.801365503345473 78.28035562805613 119.81820026846411 0.546621841509516
1.8803892153808317 12.77258708128621 72.38404264478818 124.91916537635866 0.5569925135200094
1.8959400897301115 12.74245948382027 66.99173272393949 130.2461678823799 0.5676617923615942
1.910938183217775 12.710876530401862 62.05597228622069 135.8455488336224 0.5787552052227334
1.9253681116569803 12.677831955666774 57.53916262781465 141.73409311285423 0.5902961548499746
1.9391931955965271 12.643427855677714 53.402936757097926 147.89194159404255 0.6021698733522604
1.9524171366472547 12.607500670326619 49.60958666847942 154.40952347209205 0.6146576930437418
1.965026207517758 12.570137381079038 46.1270084501705 161.20486710564367 0.6274506965270009
1.9769748419991495 12.531227696974929 42.934104026855536 168.38900201469653 0.6408780800914305
1.9882731272519023 12.490927437829217 40.00037741886982 175.9549535769198 0.6548703814838553
1.9988629642308802 12.448995637285421 37.30529774283544 183.89445748450754 0.6693372416054334
2.008788205538814 12.405668852005665 34.82789671006794 192.29663332933163 0.6845233049015238
2.017980632475485 12.360767933146196 32.55104193375215 201.14081097493187 0.7002966001418782
2.0264644520806576 12.31445764630396 30.45274351470221 210.46034634707888 0.7167223371051127
2.034173915127724 12.266526438396477 28.52454295435101 220.32819800578787 0.7339704805244095
2.041146996980961 12.217149158478522 26.746432231515726 230.75078751664054 0.7519912864940078
2.0473372689980014 12.166262645443608 25.108242403533243 241.74357305644918 0.7707358127552616
2.052744756218518 12.113843526607159 23.59848659486801 253.3968467731556 0.7904162317548658
2.0573684501463574 12.060002298587948 22.20484707440743 265.7528229404666 0.8110786642207749
2.0611692972403834 12.004655938226977 20.920074058963085 278.82584191922 0.832681385746997
2.0641504633561674 11.947814494671706 19.735922045951874 292.6800515916052 0.855319248599177
2.0663004365750557 11.889453895989861 18.64034767479799 307.39806816066755 0.8791185652154936
2.0676154680939236 11.82973847473905 17.630883011214685 323.0422137232143 0.9041441620965573
2.0680971603091507 11.768638503447223 16.6978222093356 339.6810668529192 0.9304783142761197
