M[M_sun], R[km], Lambda[1], P_c[MeV/fm^3], rho_c[fm^-3]
0.23848912294887037 16.21570186450063 2784644.0411725277 3.4469561053153734 0.1694538074003404
0.24849081427268752 15.872223935529856 2284664.769205229 3.6328844129274724 0.17193669411251886
0.25878335730982255 15.56841830840602 1883360.8148646913 3.8176433395359797 0.174225774137363
0.2693624530923531 15.298720756564046 1559239.636491195 4.014045203289185 0.17663369761520512
0.2802245021628767 15.058775543163785 1296191.2026217505 4.2184102831603125 0.17906743341130954
0.2913801741526518 14.844303655445039 1081393.0295147551 4.425642690442441 0.1814033364603057
0.3028178333037013 14.652605751532608 905529.6621668959 4.647922511630852 0.18390885245972877
0.31453178044806757 14.480904680850832 760865.0931280635 4.870683358468261 0.18627659831287816
0.326543290788654 14.326967751432605 641296.9378651064 5.104654553592426 0.1887193640553656
0.3388295258483535 14.188593174580724 533546.4589636611 5.3521432449401605 0.19127588272767698
0.3514040436074379 14.064110893787296 459654.88352867827 5.598516306510108 0.19366121624350935
0.3642650885679549 13.952345460511498 390726.23444241256 5.861991085806286 0.19621212508730465
0.3773994970604032 13.851578936360028 333021.87414071563 6.1328048728344235 0.19873673067876207
0.39082503127907053 13.760848477527505 284491.6651417941 6.409773843847289 0.20120675869184262
0.4045370571175541 13.679302156546331 243627.32276104207 6.70571902807555 0.20384601785761441
0.41853020451254813 13.605748001249772 209078.91130701633 7.002755139190789 0.20634484613380297
0.4328116934482454 13.539653458375822 179802.67802912975 7.313379870380324 0.20890583327512702
0.44738241294111636 13.48033743753239 154946.4767236378 7.645028429918804 0.21164015418114152
0.4622327848156579 13.427001355950864 133765.96100189796 7.971488403907428 0.214144425715223
0.4773739447432355 13.379365233579941 115710.76036670679 8.31933511084583 0.21681168545293636
0.49278915538136153 13.336711773035136 100273.30721124388 8.684439548575055 0.21957285164583995
0.5084862729264491 13.298714459079402 87042.4214725878 9.049770152743664 0.22218159314022948
0.5244650554983215 13.264716810116663 75679.16803474164 9.43896236260873 0.22496072485156995
0.5407200940503651 13.2348169730706 65911.5113985277 9.841116374593188 0.22774772619338832
0.5572572817617563 13.208246651845553 57486.895039766285 10.249677892067037 0.23044528370216044
0.5740801693152356 13.185028576029957 50213.729735420806 10.684691750754961 0.23331749474195482
0.5911653319604849 13.164696926778614 43925.61345507736 11.128580248563468 0.23613560633607167
0.6085286908716975 13.14692333616799 38473.73665166614 11.585089283977005 0.23893947710041405
0.6261774124172628 13.131687557854603 33743.49268311741 12.07092171579444 0.24192345166886542
0.6440738810945693 13.118697272058705 29638.53519366561 12.561402676014078 0.2447991667015763
0.6622511263144211 13.107741291949948 26061.548615044452 13.071423644615589 0.24772783761497172
0.6806900531033829 13.098697696095723 22945.9619153218 13.613984366408012 0.25084336011794117
0.6993701667340861 13.09124881251229 20227.74450158936 14.156272758050422 0.2537899272162796
0.7183263746113397 13.085344348553482 17849.71365826343 14.726265659261808 0.25685511511949227
0.7375224416612577 13.080936331398721 15771.227509518134 15.332309751718816 0.2601135847119809
0.7569633786158885 13.077665938687623 13949.64038112882 15.93206849309768 0.2631132409478358
0.7766533785707329 13.075540340412312 12351.439631394644 16.56917181467473 0.26629967379091335
0.7965764390569948 13.074475362644332 10948.550069998253 17.23986241518551 0.26962562137266854
0.8167269163085095 13.07425476119109 9714.347730345273 17.910608396972737 0.2727713097126454
0.8371184067802064 13.07485889883758 8627.514048034416 18.622973032095775 0.27611218269193255
0.8577234790533896 13.076157055598333 7670.408561510203 19.36523523583503 0.27953566853236556
0.8785373104415184 13.078062703236014 6826.01190042921 20.11609037615664 0.282851551922224
0.899563504611 13.080493329955527 6080.388425433501 20.91343133005777 0.28637272329485686
0.9207785308323904 13.083259409467757 5421.160311977131 21.734960778895097 0.28990731695937433
0.9421889509887482 13.086488816723799 4837.8284000233625 22.57657644094488 0.293414454100337
0.9637871368015094 13.089901974159641 4320.917710498021 23.470252053083847 0.29713853276549823
0.9855358272086236 13.09350497550232 3862.9593991049205 24.379464620924878 0.30077150518003665
1.0074748319737206 13.097309922795848 3456.5786630155444 25.32386382005454 0.30446208716875617
1.0295660851011084 13.101217007990334 3095.4805902349062 26.326696230229317 0.30838101809765356
1.0518020306505282 13.10507244137708 2774.4768346375986 27.334103388494466 0.3121334488096209
1.074176186915002 13.108864926710037 2488.7496099823547 28.395276869353513 0.31605968185811045
1.096664152181024 13.112509412489446 2234.358429748489 29.512961626542666 0.32016764646875123
1.11927662324846 13.11606187654126 2007.7308717518797 30.63871655128171 0.32412438786312225
1.1419923119342712 13.119353914700305 1805.4948374612302 31.833435724614123 0.3283235209993765
1.1647782068644885 13.122261458957098 1624.8555412104731 33.07052439694165 0.3325829880577498
1.1876570429164175 13.124975344278567 1456.8579171853469 34.34043170130669 0.3368327450276298
1.2106013432411782 13.127259136528384 1319.2157287780758 35.68846951521356 0.3413439664968038
1.2335876950252096 13.129135773647741 1190.2035974878304 37.05828904764199 0.34574043047010516
1.2566139879633804 13.130477431849613 1074.5339355321232 38.49366967421801 0.35028961821826166
1.2796574814230612 13.13137115513975 970.9163651784138 40.004971609285185 0.35504772519182287
1.302733969088636 13.131865580794708 877.9732909957622 41.53695653354897 0.35969176243599355
1.325785470650364 13.131494959755925 794.4688797799199 43.163029746107014 0.3646210175750393
1.3488249756724282 13.130606783370085 719.508847060089 44.83756414833655 0.3695751839135612
1.3718194452487182 13.129011388133803 652.1259718363868 46.57704085754702 0.37463093385884316
1.3947495409553974 13.12663787176095 591.4916619215273 48.41679354021464 0.3799613901197456
1.4176152418802708 13.123550610330035 536.8938448067272 50.28248230943497 0.38516945511441125
1.4403965070274214 13.1196982315232 487.7188464286717 52.2632150788204 0.39069866511460566
1.4630683537950049 13.114992304508107 443.41904557440245 54.30429713759614 0.39624375470542406
1.4856111514061145 13.109345274179327 403.4180167956577 56.4334124406228 0.401933506082156
1.5080347107799115 13.102948273019305 367.30565939391454 58.67128812882348 0.4078663224367736
1.5302822526719717 13.095508392604367 334.7022243398314 60.96556307938961 0.4137833335945588
1.5523561670854504 13.087133718538903 305.2042465724258 63.40266150948889 0.42006869124097346
1.574245885059014 13.077836258117692 278.5464128691146 65.89285921963015 0.42630157763301074
1.5959060060747836 13.067455962513868 254.4068082103633 68.52588841641735 0.4328677547232203
1.6173364751128099 13.055984127615137 232.54058159437423 71.25289566296885 0.439533400280107
1.6385202904730158 13.043538947501952 212.71588301807773 74.10511410656642 0.44641775946303597
1.6594226628200857 13.029898326366519 194.7431730790863 77.08822332354752 0.453519605973863
1.6800311261312302 13.015115165423003 178.42590509772495 80.18553371001487 0.4607443079986072
1.7003214444597228 12.99915589141033 163.60457863561572 83.44748729315408 0.4682998477467853
1.7202955555266477 12.98203379260767 150.13411895421044 86.81938581264637 0.47594614470431434
1.7399045273454483 12.963699439264637 137.88487074846054 90.3850465768274 0.48399789307596147
1.7591358296244017 12.944081104404818 126.74530708640337 94.06545585070053 0.4921237533192938
1.7779828551376882 12.923256049666598 116.60131479857745 97.9637382429534 0.5007016785781997
1.7964085301406254 12.901090236889537 107.35040326357081 101.99118260885763 0.5093622590065346
1.8143998331293683 12.877658602731557 98.92499576624937 106.255606048504 0.5184938891090277
1.831936384192126 12.85287813574285 91.23736802938942 110.67379420133219 0.5277424429960724
1.8489962649577565 12.826742812143856 84.21962633684659 115.34329718045126 0.5374641900340302
1.8655600593738728 12.799189044587939 77.80920543285288 120.20246800960102 0.5474082250305425
1.8816223957016835 12.77027350368376 71.94511099653889 125.3215209497817 0.5577983783194841
1.8971456713295691 12.740021736849776 66.58414812001115 130.67973662052285 0.5685301729863474
1.912113982555619 12.708327603268028 61.68170701032885 136.3003097004261 0.5796464904041547
1.926492785925346 12.67511024094556 57.194068373546706 142.2243416878258 0.5912569923405796
1.940299969004404 12.640544070853798 53.079578985908924 148.40700722213097 0.6031577417488652
1.953473403864791 12.604425348785533 49.30904548385627 154.9516945070226 0.6156783913796057
1.9660242953618388 12.56686769641335 45.85039769683387 161.78951129402714 0.628551355381327
1.977944272531277 12.527933044745005 42.67910331295062 169.00542170092504 0.6420180728554602
1.98918394601926 12.487365412869671 39.76438649541672 176.62010287063643 0.656100493692756
1.9997426663008113 12.445325458388297 37.08334188624692 184.59689021323786 0.6706126823462599
2.0096093834385074 12.401877297884479 34.62400064089201 193.03966497603068 0.6858484770097686
2.018747274012283 12.356779374838863 32.35939798199497 201.943141540232 0.7017275298895564
2.0271463960569065 12.310231474784725 30.278859827280627 211.3103930757506 0.7182146389150996
2.03482109199617 12.262184877021525 28.36142448382081 221.2302023282033 0.7355300588673023
2.0417270813122306 12.212625537197619 26.593885156232208 231.72571036514748 0.7536769420088851
2.0478515686564456 12.161514501661289 24.966916863014344 242.77971918916433 0.7724987854782805
2.0531984309826052 12.108992608936795 23.46645095185214 254.49964083175288 0.7922639624596032
2.0577420879017825 12.05485846375138 22.08098541986485 266.92818171494605 0.8130209048263877
2.0614843661576066 11.999310942775846 20.80459162843225 280.09803721164894 0.8347836454219794
2.0643914498312657 11.942306224912784 19.626536301988644 294.03814330225134 0.8575334258631677
2.066451185104757 11.883812039449321 18.54154934646644 308.84978417630884 0.881451266634905
2.067717332167051 11.824062497151065 17.53908788821912 324.59600776913203 0.9066071165760154
2.0680880314715435 11.76259575879193 16.61164622581256 341.3462195485392 0.9330849194398573
