M[M_sun], R[km], Lambda[1], P_c[MeV/fm^3], rho_c[fm^-3]
0.23848912294887037 16.21570186450063 2784644.0411725277 3.4469561053153734 0.1694538074003404
0.24848611505460938 15.872533741816202 2284886.090526699 3.632829014741509 0.171935954325116
0.25877679953704613 15.568613414800238 1883593.8293594914 3.8175345370192315 0.1742244401982164
0.2693555151354474 15.298825444919874 1559382.611856821 4.013869856442639 0.1766315478301649
0.28021396117219916 15.058903819492416 1296465.4289228823 4.218180426932248 0.17906484249480664
0.29136507699516095 14.844554055471196 1081670.461046276 4.425334673441244 0.18139986452335494
0.302794603335768 14.652945268083647 905821.5978683525 4.647525850909822 0.18390438133959933
0.3145063130457421 14.481357744783665 761194.0303936295 4.870228984025086 0.18627185443693453
0.32651568051176594 14.327258199363007 641508.4544078945 5.104098440584458 0.1887135579825108
0.33879505597229803 14.18892978284732 542377.2275278092 5.351527500390584 0.19126992121507516
0.35136945459410784 14.06446156936811 459821.3237728103 5.597785025907517 0.19365413613450827
0.3642212759902206 13.952588334908937 390933.086109058 5.861130429852961 0.19620379239265864
0.37735392286278835 13.85182861153086 333187.2125851429 6.1318815626413 0.19872849653602243
0.39077440250454865 13.761218985041719 284674.35447573813 6.408705591273336 0.20119723194314923
0.40447985633444977 13.679540703177752 243776.33996281197 6.704489207394827 0.20383505023361906
0.4184688513714755 13.606070138427336 209209.98552261814 7.001460289203698 0.2063341705699025
0.4327484676291652 13.540024751888206 179935.12594107483 7.311905936814506 0.20889368123270988
0.4473124939982733 13.480582971082741 155054.4068854959 7.6433556137424175 0.21162636242444166
0.4621537740491243 13.427323389770816 133877.5924001689 7.969747830536991 0.2141310791427849
0.4772864791685127 13.379491363929823 115801.68341588421 8.317375801306287 0.21679666162967082
0.49269720671556394 13.337036932741178 100362.35524144811 8.682406859817046 0.2195583366847398
0.5083934161539098 13.298893995299077 87116.59239318094 9.047497482740164 0.22216536452846378
0.5243609851892269 13.264949856392363 75746.89574745588 9.436424858370156 0.22494260511967828
0.5406135575103472 13.234948266330118 65967.41140213651 9.83850153562378 0.22773046152651572
0.5571406039100577 13.208452105816052 57543.357520928046 10.246774039716529 0.2304261108031539
0.5739530642379231 13.185165303206464 50263.1882067412 10.681469678583024 0.23329622077314113
0.5910375546495225 13.164786997369703 43965.52515622266 11.125276740418704 0.2361153162449928
0.6083915731377837 13.14708243764907 38515.62127111296 11.581440017061965 0.23891706336482368
0.6260313438748245 13.131835493639636 33780.713222474886 12.066892495506277 0.241898704266092
0.6439236215746936 13.118810800544612 29669.976104698064 12.557285343478895 0.24477552392455554
0.6620930267847318 13.107814293118926 26090.9573150192 13.066894626680924 0.24770183083503897
0.6805187363069823 13.098705204295227 22971.68932983476 13.609003707735463 0.250814759901319
0.6991993732034663 13.091363502495762 20251.329485416958 14.151194560837505 0.2537626187557109
0.7181457708985328 13.085390227943325 17870.905320277685 14.720698967246996 0.2568251797343525
0.737335947364408 13.08087827937284 15789.06329526073 15.32632366907544 0.2600819808383419
0.756767552028019 13.077697821851626 13869.84923269258 15.925859585576374 0.2630821874810346
0.776446857426037 13.075567235477898 12367.379931743453 16.5623851230704 0.2662657305727704
0.7963726781376085 13.074627081074427 10962.676969857792 17.232948573505716 0.2695931965922791
0.8165114003344394 13.074294673791323 9727.021886687804 17.9030703699816 0.27273595760580266
0.836888995873138 13.074826874265513 8639.008642744979 18.614753311216866 0.2760736335528714
0.8574903443793513 13.076160428611363 7680.226989847845 19.356867787541013 0.2794987166872976
0.8782906215993411 13.078041472851952 6835.535945122163 20.106986687278024 0.28281134873372865
0.899309163276042 13.080471706171494 6088.843894675844 20.903524285618502 0.28632897237362764
0.9205170501863538 13.083270870010626 5428.718882362022 21.72487849176813 0.28986530257532317
0.9419179467954656 13.08640572502421 4844.53085209089 22.56562624067508 0.29336882299364675
0.9635071664075907 13.089871510442645 4327.289182934384 23.458355504825402 0.297088958086547
0.9852491233945978 13.093527948517917 3868.9450726462665 24.36736210077789 0.30072421019830253
1.0071759581570616 13.097303075316152 3461.7531065252692 25.310738767654172 0.30441079627181933
1.0292568038211056 13.10110964183797 3100.121748812293 26.31245688359147 0.30832537269231947
1.0514789419013242 13.104953309362593 2778.847095087743 27.319618482734327 0.31207985614383577
1.073850546707089 13.108775586449749 2492.6212385490817 28.379587333017586 0.31600163218273813
1.0963311287147939 13.11247390675449 2237.9623864920636 29.496962932235736 0.3201114151393304
1.1189351669628325 13.115984699004414 2010.877097334517 30.621412224694105 0.32406356756928545
1.1416446565381566 13.119328266907065 1808.343059915701 31.814710836375767 0.3282577077937049
1.1644286785920916 13.122272936383212 1627.568476389101 33.05141835520451 0.33251904950588845
1.1872900459940565 13.124958274434809 1466.037507386365 34.319783446274435 0.33676364544418963
1.210235191294288 13.12724281059615 1321.4869875095808 35.666143576004096 0.3412692525271791
1.2332050231010563 13.129100439280604 1192.1882257962811 37.03549798066136 0.34566819817105077
1.2562389398084515 13.13054297404946 1076.361223063895 38.46905463205217 0.35021160514899774
1.2792775607139983 13.131440296622179 972.5945461296745 39.97978813882527 0.3549713843787372
1.3023324867575616 13.131750382157058 879.43563490047 41.509784989475385 0.3596093950049172
1.3253842167880632 13.131477100516074 795.8144805852971 43.13369726633153 0.364532099514304
1.348406216731208 13.130555618262997 720.7468950705423 44.8075240533936 0.3694878730530249
1.3713980696211634 13.128993514030926 653.2385335012264 46.54463984243989 0.37453676103693206
1.394329053217632 13.126692946754785 592.5355857708912 48.38353074725032 0.3798685371259772
1.4171965040604864 13.123622519552859 537.8533989976357 50.246632133704985 0.3850693794488704
1.439970233009494 13.119782735034143 488.6023971177752 52.22455349743213 0.3905907414180125
1.4626381254204215 13.115119812318564 444.2218603925139 54.26457265917953 0.39613759680714605
1.4851925634873888 13.109638285772698 404.1781032532277 56.3905997339583 0.40181909534247473
1.507590167603353 13.10310917328535 368.01423146586933 58.62720286213837 0.4077526250724689
1.5298453679034223 13.09570872710794 335.3209662854055 60.91807555211149 0.4136608616873923
1.551920085937375 13.087381791341231 306.50793376321394 63.35147674027732 0.4199366840242888
1.5737891564496247 13.078039747312673 279.0792524806994 65.84008856674004 0.4261699796042212
1.5954569087735178 13.067693784773303 254.90080624444877 68.46903232053178 0.4327259685270406
1.6168901133940985 13.05627227876111 232.97927472215264 71.19414724177471 0.4393916000495397
1.638067511529063 13.04374843956495 213.11822850896718 74.04183662720723 0.44626502750904523
1.658968114968014 13.03017116733139 195.11339615812238 77.02270836903111 0.4533667875716086
1.6795865489002761 13.015459282581425 178.76434806122887 80.11498270569417 0.4605797426434557
1.6998552986095372 12.999482726440787 163.9268023910142 83.37429681752252 0.46813387711987986
1.7198372143939982 12.982460727427512 150.43255668943516 86.74057823179655 0.4757674364299701
1.7394499016256166 12.964081410508204 138.155681037084 90.30312524199975 0.483817021529288
1.7586931533852574 12.94457041252009 126.99201304140101 93.97724886817322 0.49192900388813915
1.7775461157625032 12.923725757346627 116.82323983154286 97.87187063659569 0.5005041272972048
1.7959773201224392 12.901644412809079 107.56433338360196 101.89225874260048 0.5091495340072137
1.8139702227162489 12.878225952082087 99.11928703118656 106.15239314354017 0.5182778344548624
1.8315178447085914 12.853483620156693 91.41092044820276 110.56263547493117 0.5275097554247029
1.8485811853623613 12.827406162039455 84.38419115791245 115.22711331859782 0.5372264259321037
1.865162640526054 12.799919780668736 77.95931722053186 120.07730834136319 0.5471520924176196
1.8812218637475266 12.771045802401705 72.08815613632403 125.19046844962858 0.5575358975593493
1.896756413273238 12.740854015258734 66.71990824830259 130.5385115535541 0.5682473179253243
1.9117268380239547 12.709147359273985 61.80467472509097 136.14179278484943 0.579315514223471
1.9261282575396386 12.675998089067273 57.3047570084213 142.03401277726067 0.5908253526189333
1.9390057655105832 12.642605753959302 53.40201459522025 148.77074788511118 0.9704247983003416
1.9412173288413477 12.613269026503287 51.78002432450793 156.70913915833904 1.9434731932722584
