M[M_sun], R[km], Lambda[1], P_c[MeV/fm^3], rho_c[fm^-3]
0.23848912294887037 16.21570186450063 2784644.0411725277 3.4469561053153734 0.1694538074003404
0.24849033421797292 15.872134607520008 2284612.21541313 3.6328731820998614 0.17193654413604137
0.25878246994784976 15.568408314902818 1883112.4114839856 3.817621281922279 0.17422550370690537
0.2693595103441345 15.298817427852574 1559211.1081138037 4.0140096547917725 0.17663326178399716
0.28022372849892413 15.058688892240006 1296143.8275892977 4.218363683525934 0.1790669081448734
0.2913763394466951 14.844405585756668 1081500.1347761888 4.425580244444247 0.18140263257523537
0.3028134931816188 14.652655612347521 905581.9793802121 4.647842093695122 0.183907945996769
0.31452619022850264 14.481105253997566 760965.5401178012 4.870591239286863 0.18627563654670679
0.32653722002866387 14.327003119492893 641373.204202194 5.104541807107056 0.1887181869307546
0.338822255940161 14.188650237630924 542201.3382886309 5.352018408129083 0.1912746740832433
0.3513957078944448 14.06423021844127 459665.75881743233 5.598368044489506 0.19365978080099538
0.36425182447574883 13.952251721483421 390733.4149826184 5.861816592280852 0.1962104356767341
0.37739016291262867 13.851641183956731 333052.8072632663 6.132617675745538 0.19873506124246448
0.39081547148146895 13.760926130297303 284534.444520345 6.409557258400281 0.20120482716817994
0.4045268138509499 13.679317080414176 243650.23274412862 6.705469682831887 0.20384379417986984
0.4185160393689519 13.605856399238816 209112.71326480925 7.002492608495651 0.2063426816643743
0.43279790830737036 13.539678357154104 179829.9020561957 7.313081027787877 0.20890336942740437
0.4473687839644067 13.480377806499469 154959.2788897637 7.644689260356782 0.21163735785232463
0.4622192881085418 13.427086253517276 132299.11205890897 7.9711354955198495 0.21414171964293735
0.4773586652903291 13.37949238728985 115738.3680892184 8.318937849102015 0.21680863928278876
0.4927698818316083 13.33675494017162 100286.67475806108 8.684027407974249 0.21956990864496737
0.5084686399465251 13.298711013895264 87057.86958692998 9.049309350139948 0.22217830265522953
0.5244444684250928 13.264758668734176 75693.05290781135 9.438447857773463 0.22495705089133364
0.5406992343301915 13.23484925270863 65923.9669475888 9.840586188703032 0.22774422560200155
0.5572340651073028 13.208268683340844 57497.138857833634 10.249089100107975 0.23044139615988748
0.574054347711304 13.185076318395122 50223.85123346577 10.684038429423937 0.23331318113975108
0.5911381615129504 13.164715015658755 43933.714357392724 11.127910414522523 0.2361314922267361
0.6084998287560969 13.146896357712878 38481.35251774897 11.584349335161525 0.2389349323473207
0.6261470935899719 13.131734717144143 33750.606773808824 12.07010471704601 0.24191843367638877
0.6440414480788145 13.118752251377652 29406.40466003329 12.560567810820544 0.24479437269199741
0.662218197505241 13.10776955275473 26067.97507215348 13.07050529348467 0.24772256420777675
0.680650841980974 13.098611220747022 22773.956621904093 13.612974425571746 0.25083756077922076
0.6993402724252301 13.09117964553299 20230.530955470014 14.155243039454236 0.2537843898122557
0.7182900744893079 13.085373700598664 17854.385036167743 14.725136875894595 0.25684904498578504
0.7374837926839171 13.080966564925532 15775.949475498697 15.33115790500385 0.2601078238219048
0.7569183677318783 13.077649222006704 13953.519475954086 15.930809472679348 0.2631069440351135
0.7766097809595522 13.075583720338575 12354.989819857781 16.567795618916335 0.26629279083297774
0.7965327893390994 13.074488680478465 10951.424807458237 17.23846043743127 0.2696190463275782
0.81668384758169 13.074270305630339 9717.187931683786 17.909079832051052 0.272764140994559
0.8370687505671786 13.074864565659551 8630.257842003835 18.6213062151906 0.27610436559478124
0.857673002817227 13.076199666399676 7672.790040781404 19.36353846445915 0.2795281753479688
0.8784864487688369 13.078045467764316 6828.037828898493 20.11424428850012 0.28284339933583585
0.8995105118863903 13.080492694502656 6081.9971049108035 20.91142231236656 0.2863638511861977
0.920725028870216 13.083244180815733 5422.5922964008005 21.73291622727018 0.2898987970098728
0.9421398979470618 13.086473824383752 4839.122096358507 22.57435586403776 0.2934052006274081
0.9637304542827034 13.089897643201143 4322.065087876575 23.467839540504528 0.2971284794681899
0.9854774993079393 13.093566526141252 3864.4164337870698 24.37701034326807 0.3007619142010059
1.007414278256246 13.097306082556651 3457.5266578716496 25.321202152648315 0.3044516857391505
1.029505772554125 13.101189134837231 3096.3541722367945 26.323808558717197 0.3083697334751319
1.0517302534441237 13.104988624195606 2775.2574021593528 27.33116592432665 0.31212258049345726
1.0741123198369131 13.108876386360656 2489.576520551424 28.392095075747154 0.31604790954808193
1.0966006849352714 13.11253117693053 2235.143759716752 29.50971714206979 0.32015624293345674
1.11921347639614 13.11607020316799 2008.290254631454 30.635207248279556 0.32411205355824924
1.1419191287414356 13.119296320457032 1805.9049364665511 31.82963828802042 0.3283101739784285
1.1647083652440813 13.122266401423348 1625.47513813305 33.06664966843043 0.33257002124163626
1.1875852995902079 13.124979977169799 1463.9614346761716 34.33624416038463 0.3368187313817841
1.2105308861132944 13.127303473366624 1319.740262180443 35.683941678787754 0.3413288140487921
1.2335141015649504 13.129139901905226 1190.5957444394605 37.05366688852874 0.3457257813455324
1.2565437877105072 13.130563833360823 1074.9084173417916 38.48867754144627 0.35027379652691243
1.279583553131352 13.131380238269461 967.0863243196798 39.999864202217076 0.3550322426708987
1.3026359417662356 13.131666323767154 878.2474281248408 41.53144586162717 0.3596750574637449
1.3257035581998131 13.131472844995276 794.7590249095072 43.157080738906565 0.3646029838394802
1.3487305117522554 13.130536834400713 719.7808604674766 44.8314716358588 0.3695574761630274
1.3717323974093174 13.128995583400048 652.3309155047301 46.570469436972864 0.37461183417269484
1.394664855050807 13.126642236098514 591.6932104341238 48.41004734447812 0.37994255813316663
1.41752954652128 13.12359352274241 537.1029729209197 50.275211260192194 0.38514915800073374
1.4403172624387572 13.119685157757557 487.9089217216576 52.255373723697716 0.3906767759936553
1.4629704167120143 13.114940538679313 443.58961215635526 54.296240211858844 0.3962222237417225
1.4855341567223945 13.109433017373025 403.5661461480401 56.424729044464556 0.4019103009672541
1.5079368367354447 13.102955289189657 367.46075770701947 58.662346632115565 0.40784326202033355
1.5301933115650037 13.09558707612996 334.8456819381823 60.95593139711909 0.4137584931666717
1.5522672708926701 13.08718421926618 305.3316733366269 63.39227978904292 0.42004191643976635
1.5741466359230827 13.077854926294048 278.6535774845868 65.8821558380984 0.4262748858292558
1.5958209961636436 13.067465645599336 254.49717578688063 68.51435623023356 0.432838996068811
1.6172318124860376 13.056019391935767 232.63410931313575 71.24097964953191 0.43950463876756835
1.6384248648197706 13.04358937224395 212.80350404974737 74.09227927660484 0.44638678021609024
1.6593295322326664 13.029930009321347 194.81741157240512 77.07493464578039 0.45348860916528033
1.679941446277435 13.015192829547582 178.4962833617648 80.17122334226606 0.46071092802374214
1.70023364508505 12.99923753466989 163.68090014711538 83.43264152209362 0.4682661826843774
1.7202023590807853 12.98214157493823 150.19388555345796 86.80340044728432 0.47590989543707624
1.7398090597667897 12.963733055882324 137.94359434477389 90.36842958411106 0.48396120493873823
1.75905102632879 12.944187416638691 126.79265929187444 94.04756360381984 0.49208424958838437
1.777885614458024 12.923340445356875 116.64308156848737 97.94510341444035 0.5006616064092402
1.7963157550505975 12.90121574985473 107.39249126300749 101.97111615059544 0.5093191082737367
1.8143066692902046 12.877739284964925 98.9638979513429 106.23466950569544 0.5184500628305454
1.831850759267687 12.852980918691271 91.27213100722528 110.65124551088535 0.5276952420233056
1.8489188649681434 12.826848479219006 84.25030013925254 115.31972904921066 0.5374159591053185
1.8654788200037986 12.799355896293957 77.84109503265677 120.17707871119622 0.5473562671799644
1.881538198056177 12.770424975011636 71.97234277626637 125.29493614599315 0.5577451324867202
1.8970596574449308 12.740209318287 66.61776246915134 130.6510877786424 0.5684727931592937
1.9120302607322568 12.708478938865719 61.70994593953342 136.27026001976435 0.57958759607741
1.9264202059013704 12.675292286042675 57.21679531970328 142.19194508522776 0.5911934982848422
1.940229076404327 12.640761808850657 53.103555427132434 148.3729699794544 0.6030924601332533
1.9534126841510995 12.604677294782626 49.32892341651069 154.91586525453104 0.615610938756656
1.9659550924424891 12.567093472270189 45.872080222668345 161.75087279372258 0.6284786140314204
1.9778989931168895 12.528155447179671 42.69316577471193 168.96468218589445 0.6419427301086555
1.9891195254497827 12.48757919561209 39.77932878555026 176.57613995404753 0.6560191896592921
1.9996867133103802 12.445576009962672 37.10039161658129 184.55046178805827 0.6705283800314837
2.0095606492993343 12.402167727423574 34.63911795814579 192.9905516524759 0.6857608850386767
2.018706054521411 12.357085816243258 32.37340080215855 201.8901050913708 0.7016329411555995
2.0271211650036123 12.310565962348168 30.289404597054144 211.25420063703783 0.7181159901288974
2.0347846830023286 12.26246135626917 28.370175088830095 221.17057317326203 0.7354269592076439
2.0416922616308066 12.212933735221593 26.604102111491382 231.66125625576254 0.7535654999341531
2.047830172018376 12.16185303572797 24.97440983606292 242.7112149291124 0.7723822274580662
2.0531635493972415 12.109246594075096 23.473148618958938 254.4267272965951 0.7921417958804022
2.0577148808104213 12.055230129116195 22.090926326079764 266.85046716656365 0.8128924841647204
2.061444510042538 11.999666829252316 20.813343448154182 280.01391362920367 0.834644634048378
2.0643824279211245 11.942683572018343 19.633451695784828 293.9483358085051 0.8573870073928758
2.0664527499242107 11.884271204562195 18.54814669656501 308.7537809925139 0.8812970031558955
2.0676883663262915 11.824279297217092 17.54399484667547 324.49324899989506 0.9064442313006723
2.0680913367981346 11.763026859735254 16.61781954592527 341.2360904780912 0.9329125250375527
