M[M_sun], R[km], Lambda[1], P_c[MeV/fm^3], rho_c[fm^-3]
0.23848912294887037 16.21570186450063 2784644.0411725277 3.4469561053153734 0.1694538074003404
0.24848197899239993 15.872441405425347 2284945.5860044924 3.6327308774644296 0.17193464379986914
0.2587665082322949 15.568910097143279 1883801.8688657451 3.8173417997542543 0.174222077203403
0.26933815911878334 15.299315229873201 1559841.003181762 4.013559249014388 0.1766277397251674
0.2801904069733912 15.05943669495731 1296940.362964773 4.2177732717978955 0.17906025308269574
0.2913350971858515 14.845104465752154 1082261.8794248253 4.424789084573571 0.18139371469999377
0.30275820466588693 14.653454555178195 906276.6027432292 4.64682326926536 0.18389646190929887
0.31446620873174363 14.481889614647956 761613.4432456071 4.869424193265199 0.1862634520551923
0.3264667736210892 14.327869995214629 641960.7161391991 5.103113479702208 0.18870327454270716
0.3387428154606215 14.18957055788129 542784.4051115164 5.350436941563758 0.1912593626479005
0.35130114970161785 14.065124079009564 460229.5484234505 5.596489877705565 0.1936415967749111
0.3641480818271409 13.953211773193217 391267.38707180944 5.85960619633968 0.19618903507600227
0.3772713309499638 13.85248562348266 333514.1871679325 6.1302463901282085 0.1987139139569747
0.39068587493134216 13.76174071278635 284964.4232219163 6.4068137858453715 0.20118036069441228
0.40438451092911126 13.680068347632714 244037.05364082076 6.702311344667584 0.20381562790654298
0.41836110620780387 13.60662896430807 206866.54361400974 6.9991672919950245 0.20631526564773478
0.4326330915595452 13.540468781624703 180140.6744105077 7.309295890385419 0.2088721623558402
0.4471848826256115 13.481070312051173 155249.88260179092 7.640393481702748 0.21160194073066524
0.4620207613181961 13.427764002058145 134052.13752413847 7.96666574226734 0.21410744594521325
0.4771369097772201 13.38000879274275 115967.84965365517 8.313906502340956 0.2167700593325562
0.4925425112525514 13.33742036587913 100503.13857894232 8.678807653861762 0.21953263558602193
0.5082182155067416 13.299205167687218 87246.3404001057 9.043473480760996 0.22213663005941908
0.5241803362384558 13.265317835837555 75865.6874457509 9.431932088298772 0.2249105232859194
0.5404170597058785 13.235319178385089 65446.38329768676 9.833871860526568 0.22769989375572103
0.5569375721673521 13.208759839770916 57637.716244778894 10.241632824729013 0.23039216555255973
0.573738338751402 13.185467301254604 49896.422862666754 10.675765254808766 0.23325855689505343
0.5908090036276268 13.16504379163601 44045.782991020016 11.119428152797196 0.23607939431886973
0.6081494524642661 13.14726979258172 38584.20581364748 11.574979510206875 0.23887738304113107
0.6257768219497953 13.132011128820247 33843.66804407772 12.059759582535147 0.24185489403542212
0.6436577414987824 13.119015114177836 29726.017254415416 12.549996447596715 0.2447336692192099
0.6618120586728095 13.107955594863904 26142.861393028106 13.05887720271087 0.24765579273498625
0.6802269461588174 13.098824602643028 23017.480983744423 13.600187086179634 0.2507641326042183
0.6988955928072481 13.091398607519643 20292.205741132268 14.142205267821069 0.25371427802698626
0.7178289104005762 13.085516124668201 17908.580870557147 14.71084530151289 0.25677219076388236
0.7369979341319066 13.080948931985878 15823.607170106934 15.3155231381831 0.26002390001563497
0.7564163817941404 13.077680179150702 13996.5451236029 15.914869493942337 0.26302722121772204
0.776085929234978 13.075626624423284 12394.933930284707 16.55037275768941 0.2662056514705641
0.7959820008544289 13.074573697777632 10987.61601719714 17.220711113987395 0.26953580491977863
0.8161177731394655 13.074296147702274 9749.521529714975 17.889728587503342 0.2726733868402432
0.8364808055226912 13.074841997460767 8659.609520027578 18.60020551659076 0.27600540678868596
0.857054943379708 13.076105496382379 7698.881501880454 19.34205847199556 0.27943331663768045
0.8778502113360437 13.077937626244918 6851.960337363997 20.09087491551667 0.28274019685170015
0.8988485276137546 13.080391817104136 6103.889061508818 20.885991394519394 0.28625154462591745
0.9200471704929051 13.083173122328153 5442.221200389423 21.707035376663175 0.2897909476713963
0.9414427452842463 13.086351027896109 4856.769315042309 22.546247872027088 0.2932880704607731
0.9630076592954367 13.089782881945098 4338.470660561335 23.43730322011198 0.29700123009745427
0.9847414908645782 13.093422102642565 3878.848241421038 24.34594519929943 0.3006405158972872
1.0066478862561237 13.097134974188329 3470.8474626255816 25.28751327280571 0.3043200342370296
1.0287149767641033 13.100977322442057 3108.362032610428 26.287260589682937 0.3082269090462607
1.050927359832503 13.104874676880284 2786.2704774594195 27.29398750720791 0.31198502416302204
1.0732868140991716 13.108765799718018 2499.4524892594663 28.35182587812276 0.3158989176467567
1.095754741348487 13.112439045647761 2244.2658674347917 29.468654278846206 0.32001191744385177
1.1183344311259042 13.11586327598016 2016.5674520956898 30.590794565884114 0.32395595430875246
1.1410189388598306 13.119125800340875 1813.539956584103 31.78158104700324 0.32814126503505786
1.163802468165912 13.122161159935773 1632.2089172063882 33.01761399369262 0.332405922885974
1.1866597094564464 13.12492771803408 1470.3516454358219 34.28325194960744 0.336641392440331
1.2095859101756519 13.127213427893865 1325.358448022991 35.62664554115369 0.34113707197484655
1.2325355482543638 13.129034992086167 1195.8056036305552 36.9951768185925 0.3455404073028456
1.2555525938105718 13.13052217453206 1079.64755967333 38.42550840673022 0.35007359300709945
1.2785810540070872 13.131382772221388 975.5648280888148 39.935236081235665 0.35483632990693814
1.301625834691847 13.131753751206679 882.1650536514379 41.46171788756236 0.3594636850779016
1.324660401778318 13.131460912156383 798.31421151204 43.081809692515215 0.3643748082632635
1.3476768548664093 13.130597941780094 722.9999313098941 44.74150752319231 0.36925752051176935
1.370668836229724 13.129064537954442 655.284886117234 46.448763529137835 0.37414502540263395
1.393616248285733 13.12681636132736 594.3415052797178 48.260599369648936 0.3793319197530436
1.4164898674965172 13.12377328295958 539.4818652424499 50.18501101786139 0.38484109430561225
1.4367862674013272 13.118840255448312 494.7030206073772 52.30621294853288 0.6107865928833562
1.4476489683012381 13.105415444677847 468.7474792819637 54.83041391935011 0.9111779385962695
1.4523366670277724 13.081847457361693 452.1915650356901 57.79754348673087 1.1795887458924432
1.4521958768773693 13.049950539974397 442.1198670644163 61.0173095803361 1.4637087638973807
1.4483152179209238 13.009190772187536 436.1186821744544 64.91872552055757 1.6739595501111741
1.4419780920335064 12.960841089133963 432.19621145507006 69.16310356279305 1.9026928700242292
1.4335591772005911 12.90552605397062 429.8289680912955 73.84545116508097 2.106880474604395
1.4236472259526332 12.843430703422912 428.0369967132065 78.98519413456219 2.3093531175319204
1.4125419537004005 12.775434425622194 426.7105174003301 84.56291703226947 2.5260341265039568
1.4004879204865677 12.702095060946686 425.46292367400355 90.60518121282642 2.756423243716635
1.3877013150238506 12.623945383874512 424.18692163844474 97.15591057608377 2.978232961185488
1.3740906997871558 12.53894132878905 422.46955081445986 104.06009732199573 3.102709952593123
1.3601091634119424 12.447197191366753 419.5186495718919 111.58634641010721 3.2334876937023402
1.3460056694984899 12.348505999091923 414.8351436394761 119.16964999162404 3.275886352891421
1.332085419876767 12.24280561905791 408.02366490953784 127.45109612107044 3.322188364707345
1.318742645602284 12.13146540934584 398.78355788730573 135.70795687171304 3.3679255406886894
1.3062091132629525 12.015618575022199 387.21107559935024 144.67020145780992 3.417554349452283
1.2945909934368465 11.896081809338774 373.53059441947005 153.692109325341 3.467183711615005
1.284010089148009 11.77363310544369 357.926581662726 163.43959862092288 3.5207800361070225
1.2745085008287973 11.649113506200566 340.7824768267988 173.28510664758252 3.5744995027489708
1.266117857834618 11.523187654712224 322.46057294093487 183.8908324022302 3.632325653863284
1.2588280935019416 11.39650607452819 303.34800936574993 194.68017383998787 3.6907113862811167
1.2526103995185367 11.269465956028391 283.7992104316318 206.213711260752 3.753027173622224
1.2474454976879878 11.142892698681978 264.23030192968633 218.1020214712053 3.8168640172177435
1.2432889202072348 11.017067080339874 244.87231259665614 230.66970771858288 3.8841155069982434
1.2400422174136847 10.892246764106861 226.01694648086047 243.80999967869138 3.9540689448637747
1.2376769476527527 10.769091127157537 207.90681838416583 257.5406414732891 4.026784722696627
1.236086362251563 10.64753821239184 190.6524469945532 272.1099610714403 4.103730298219769
1.2352250881798146 10.528138273858655 174.41420715695895 287.1513771721222 4.182504845185247
1.2349704350581008 10.410644897062795 159.22200214775935 303.13301320568695 4.265949715116055
1.2352863439718307 10.295503848145495 145.12480221784514 319.8849666697077 4.352908965851322
1.236060036788377 10.182726855740379 132.12217383840206 337.4500751569762 4.443541749779051
1.2372437864929633 10.07226938661852 120.18295786593794 356.06949872315334 4.539233879147592
1.2387328153182027 9.964376652054439 109.30167384822728 375.5650871212762 4.638653331413531
1.2404718966926127 9.858787055365603 99.38132035536587 396.1215941469064 4.7428817241282495
1.2423632165037066 9.755570984707633 90.40743859072494 417.90422208469397 4.852814321486909
1.2443790722189962 9.654590383480329 82.27571406226727 440.83499444845233 4.967749356434192
1.2464169145467945 9.555952430176587 74.94533543834696 465.0125897351862 5.088004433170138
1.2484363194449988 9.459546016836576 68.33689255885226 490.653828196296 5.214810733834397
1.2503754541188354 9.365032837026792 62.382660447856004 517.8418089364479 5.3484697002955555
1.252185298642351 9.272536867097294 57.02924097058895 546.5233782794876 5.488285967029839
1.253807991115602 9.18199773059464 52.22291785380127 576.9380828603574 5.635496269415228
1.2551916468271012 9.093183918194736 47.901507177534015 609.2536153924863 5.790828833643092
1.2563172972164391 9.006028378716268 44.0204308430562 643.6025187822554 5.954727668698685
1.257116477005121 8.920532627444025 40.53519045862689 680.1339201473639 6.127702302129346
1.257567994951448 8.83641873595007 37.396174489126054 718.9437921359264 6.309840039407123
1.2576310454617883 8.753945538921574 34.58569743249418 760.2646973059086 6.502103048031885
