M[M_sun], R[km], Lambda[1], P_c[MeV/fm^3], rho_c[fm^-3]
0.23848912294887037 16.21570186450063 2784644.0411725277 3.4469561053153734 0.1694538074003404
0.24847485890550283 15.87285850495877 2285402.1737301666 3.6325971826972348 0.17193285843988165
0.25875147861465586 15.569338583922148 1884210.2451865643 3.8170792398434825 0.17421885816993046
0.2693160734446587 15.29986881841339 1560420.704271867 4.013136137226552 0.17662255229573973
0.28016026273410916 15.060025642285009 1297531.3745113497 4.217218661735993 0.17905400157333198
0.2912934969284132 14.845981722390485 1082960.7249702765 4.424045938890154 0.18138533803588747
0.3027089011480278 14.654222858348469 907004.221427616 4.645866327932407 0.1838856753619308
0.3144098747482426 14.482691675152553 762264.7915230258 4.868328071916819 0.18625200804954017
0.32639854612952945 14.328712163027742 642557.6108581189 5.101772028826046 0.18868926918515114
0.33866031871012436 14.190232975489673 543323.3743012194 5.348951711597465 0.19124498295559672
0.35121329548732205 14.066062684945685 460780.38456280204 5.594726098238934 0.19362452022340224
0.36404646562663845 13.954073268446836 391775.95661729935 5.857530537547894 0.19616893897275167
0.37716113143849267 13.85327403304023 333964.6869232947 6.128019703989045 0.19869405621940953
0.39056361042412197 13.762505324616061 285362.27721416316 6.404237751668403 0.20115738744742187
0.4042479168099089 13.680893340115686 244416.842657167 6.6993459342569786 0.20378918217597003
0.4182124301061101 13.607321508472769 209796.30397045222 6.996045163123062 0.20628952483867546
0.43247223450718997 13.541133226585252 180431.65124202386 7.305742239330621 0.2088428638044298
0.44701085566024223 13.481717402231208 155519.80654449642 7.636360654348163 0.21156869154616303
0.46183098393313654 13.42855650168907 134308.22997534208 7.962469649588183 0.21407527065409915
0.47694066237264193 13.380608616434403 116180.21451223776 8.309183474625735 0.21673384354723
0.4923262341988117 13.337957711666874 100700.92074776875 8.673907822316453 0.2194976470202628
0.5079914742952144 13.299799703840609 87423.40604498444 9.037995613678113 0.22209751387534687
0.5239356385043914 13.265794133982189 76023.90514618048 9.425816393895994 0.22486685252422167
0.5401584077004609 13.235771736201457 66219.53922342855 9.827569847404815 0.22765828424995535
0.5566600817161282 13.209147030065147 57768.14702276606 10.234634841122674 0.23034596085041287
0.5734436406217591 13.185805060165137 50463.824026493974 10.668001054688414 0.23320729319194264
0.5904966188300241 13.165379631651291 44151.7338288469 11.11146775839774 0.23603050171128082
0.6078303322027574 13.147628676444167 38349.096415475855 11.566186692860265 0.23882337770589815
0.6254323438911976 13.132360786606313 33930.37859489103 12.05005212120144 0.24179527097231035
0.6432855105497539 13.119237562434174 29805.295955598347 12.540076706774322 0.24467670752899817
0.6614310737120496 13.1082133901837 26208.610523266925 13.047966548352164 0.24759314096567947
0.679819031480147 13.09897042057773 23080.57780677795 13.58818947131721 0.25069523922955167
0.6984768515773053 13.091554030374517 20348.409892674394 14.129972658851232 0.25364849607608936
0.717387527040118 13.085709884700492 17960.783553201785 14.697437171152428 0.2567000873413691
0.7365448557252591 13.08110373117159 15870.370329635916 15.3008273889026 0.2599448723069959
0.7559388581703629 13.077800032197157 14039.515784077983 15.899915754352925 0.2629524310144053
0.7755847935378847 13.07562279981715 12432.587073078384 16.534028946676692 0.26612390891103216
0.7954679999503521 13.07454076739404 11021.328242317888 17.20406096171542 0.26945771844399946
0.8155819998596785 13.074217859163523 9779.763427892278 17.871576894160633 0.2725882583837941
0.8359266967576202 13.07478204564633 8687.044755624034 18.58041413157094 0.275912588447944
0.8564889833035744 13.076076536463209 7724.042375621614 19.321911173547264 0.2793443432942382
0.8772602022240852 13.077919484054023 6874.581233301652 20.06895691655988 0.28264340384226744
0.8982416363619523 13.080258526249143 6124.169519594439 20.86214151005952 0.28614622013456925
0.9194117529319494 13.083033255588868 5460.761194097239 21.68276331140322 0.2896898023797869
0.9407820883435759 13.086250247410858 4873.591883601615 22.519888903032577 0.2931782287321473
0.9623356504837544 13.089671605170336 4353.494096734453 23.4086690266751 0.29688190717152463
0.9840442641179356 13.093317662084322 3892.7870068511406 24.316814814261637 0.3005266783649767
1.0059393691007565 13.097132075964284 3483.463976010322 25.255924768303146 0.30419659071243194
1.0279773469731766 13.100841357792701 3119.7634122375744 26.252993706294696 0.3080929987858975
1.0501808216766857 13.104873235425766 2796.682827193167 27.25912911164462 0.3118560516744077
1.0724981772481996 13.10851851844946 2508.883516618721 28.31407228429632 0.3157592332214914
1.0949584419526013 13.112277571282174 2252.7318151955783 29.43015619182393 0.31987660648835187
1.1175258917853985 13.115787908896793 2024.2677394678392 30.54915888528203 0.3238096155121807
1.1401876176112975 13.11911190562547 1820.6339468260696 31.736532016491786 0.32798292918425775
1.1629458137429167 13.122071948137464 1638.7150931624874 32.9716472858924 0.33225209485759355
1.1857855189279816 13.124762295211424 1476.0821331522277 34.23358001127762 0.3364751648224576
1.2086959918689109 13.127116479871477 1330.5798182761434 35.572943421550754 0.34095735731670146
1.2316177357390556 13.128959779059734 1200.639868995273 36.94035506119881 0.34536665933491967
1.2546244097618413 13.130391190281523 1084.0357252217984 38.36630556051532 0.34988595994471144
1.2776388442195918 13.131380700172913 979.6015140081821 39.874665290336246 0.3546527164755064
1.3006610347794583 13.131772185971453 885.8926169764876 41.39637243074557 0.3592655977923232
1.3236898153749215 13.131483445290803 801.6503983808764 43.011275109723016 0.3641609907352311
1.3466850922791564 13.13068262616012 726.121041724744 44.682147486806564 0.3691234688811807
1.3696581617189998 13.129146522199706 658.138277937962 46.40942080897346 0.374143749956399
1.3925689943025112 13.126878552525973 596.9991566157289 48.24336241206687 0.3794740599918224
1.4154112306154043 13.123898276525939 541.9206800756428 50.09703025611262 0.38465176622490765
1.4381537272795948 13.120031997135227 492.3352679958081 52.0632334775981 0.39014041703267166
1.460812962992732 13.11550279152943 447.6387487651455 54.098816702526584 0.39569463809033684
1.4833460429700727 13.109987353324927 407.25063493053756 56.21197313599525 0.4013417417063253
1.5057297037515764 13.10363634826271 370.8655014458316 58.44326628747658 0.40727824654851297
1.527972397110366 13.096355216405852 337.94881897854833 60.719961069442085 0.4131499178686558
1.5500480538583012 13.088227244482969 308.2148825867951 63.137956762429134 0.4193860089227601
1.5719066082112059 13.078890038926675 281.2842967270354 65.61995285172064 0.42562101110419054
1.5935645261504137 13.068615026638502 256.92580086252326 68.23187548803658 0.43213455322400607
1.6150017639831016 13.057373725108475 234.8470288435585 70.94909782078153 0.43880012773946026
1.636170065940189 13.044954630054724 214.8272139157085 73.77792008337282 0.44562801589229767
1.6570710266241293 13.031453943648122 196.6881837810575 76.74946134729304 0.4527294189953653
1.677677670664507 13.016841210412093 180.21561822704027 79.82075911669551 0.45989344469654875
1.6979826673104355 13.001096326829176 165.2589092520559 83.06906837954155 0.4674417248314306
1.7179550323348975 12.984103224203341 151.65970409234234 86.41195597233131 0.4750222350639742
1.7375806579752386 12.96594545053842 139.28741437476808 89.96152312078696 0.4830628089161675
1.7568292658839915 12.946483542226067 128.03185046285543 93.60947213955092 0.49111700117997575
1.7757242486038445 12.925949176854632 117.78530485649235 97.48883723238008 0.49968045568251246
1.794155467467722 12.903897387086108 108.44931679680579 101.4798459014013 0.5082626851133789
1.8121698666917079 12.880630470202748 99.93883751634543 105.72210784334824 0.5173771220705153
1.8297369275589974 12.856035380655971 92.17060307813405 110.0992718389505 0.5265398004548312
1.8468461609450035 12.83014347590821 85.07891742663718 114.74281389326126 0.5362353328827613
1.8634494283794238 12.802881956580809 78.60724239782 119.55564853588385 0.5460845433347922
1.8795527969064085 12.774219425896389 72.68589734109183 124.64426270843198 0.5564419199704306
1.8951082258705403 12.744087359893435 67.27195718435928 129.94997095479988 0.5670685492368163
1.910124864999028 12.712597772146074 62.31287828008047 135.5348841820614 0.5781463340103228
1.9245795362222906 12.679711559683689 57.77652874374497 141.39922212683922 0.5896398416768098
1.9384443817227497 12.645323719532074 53.621334386704255 147.54013166163296 0.6014951206704925
1.9516893245038482 12.609520834209151 49.811926479936076 154.038846130466 0.613959308323908
1.9643063897530608 12.572254520013235 46.31910553182947 160.8055934157252 0.626699018616162
1.9763010117970967 12.533504145158574 43.109962774244686 167.9680465132937 0.6400995744137261
1.9876236628670545 12.493266951948415 40.164810911811955 175.50077331025076 0.6540304306692803
1.9982618155910015 12.451521335917901 37.45771316751059 183.41484279848575 0.6684663822541662
2.0082105942105577 12.408313307260395 34.971961865441656 191.78932505745442 0.6836185375539148
2.0174529172938924 12.363562801256865 32.68333235773535 200.59308232687633 0.6993197444042871
2.025948143213242 12.317288275435887 30.577448079461302 209.88007692618797 0.71570364356996
2.0337300064911585 12.26959259316593 28.638822577821355 219.72038235281195 0.7329249938381304
2.0406231279645493 12.220584204497056 26.868854406785314 230.3175134371786 0.8584766529305865
2.0447683810229407 12.173193964109036 25.47261926624609 242.07257230800332 1.2175877814392835
2.0450680765348994 12.12579834296334 24.459642383113593 255.22550859634478 1.586419500244232
