M[M_sun], R[km], Lambda[1], P_c[MeV/fm^3], rho_c[fm^-3]
0.23848912294887037 16.21570186450063 2784644.0411725277 3.4469561053153734 0.1694538074003404
0.24847644437286293 15.87275796341753 2285377.2533223745 3.632619918555457 0.17193316205454362
0.25875805331449014 15.569091587032835 1884144.6440153883 3.8171238893739807 0.17421940558150134
0.2693192755937325 15.299823284114042 1560358.453568435 4.013208087807049 0.17662343442327516
0.2801657152976983 15.059935915230465 1271212.5291171225 4.217312972122107 0.1790550646306084
0.2913026432649869 14.845729946360349 1082705.9139572578 4.424172306702536 0.18138676244127902
0.30271640462089683 14.654124200776584 906864.3345644794 4.646029046935486 0.1838875095143223
0.3144192798272323 14.482532110722438 762123.078060926 4.8685144545499535 0.18625395396904096
0.32641007372844516 14.328612409461552 642481.9818549316 5.102000121886608 0.18869165058049403
0.3386715761971769 14.190146133270375 543260.8541049903 5.349204248964933 0.19124742797065958
0.35122780166910383 14.065880807656459 460689.41012343985 5.595025991533964 0.19362742372885552
0.364068553645744 13.953970255000137 391697.56776855304 5.857883451390095 0.1961723558122821
0.37717830019662946 13.853169317108303 333895.4111692779 6.128398292485458 0.198697432497222
0.39058317931794445 13.762399412378318 285297.27864880254 6.4046757276802975 0.20116129334711336
0.4042711740592271 13.680784835613915 244350.57386272412 6.69985010023286 0.20379367836223636
0.41823895638389513 13.607163255416815 209727.70663393996 6.9965759695809275 0.20629390114351095
0.43249997954961544 13.541055982932034 180388.1944590227 7.306346396899677 0.20884784486231198
0.44703970780398844 13.481587524313744 155466.045169736 7.637046260744314 0.21157434411979367
0.4618646019464811 13.428355672692543 134256.0250176518 7.96318300803056 0.21408074062754998
0.47697438113127777 13.38053912055917 116147.81560343324 8.30998639608507 0.2167400002824766
0.4923632018338258 13.337855795057452 100667.31773774725 8.674740796717174 0.21950359509813566
0.508029825286555 13.299674687742689 87391.89992519496 9.038926832776344 0.22210416349592124
0.523977671035602 13.265711632837181 75994.83085190858 9.426856016618933 0.2248742762300511
0.5401982766526172 13.235661739184305 66199.91128690504 9.828641139631591 0.22766535753578093
0.5567085609136586 13.209077377867171 57743.63783228005 10.235824414447647 0.23035381509590044
0.5734939422405387 13.185740643854801 50445.898556106804 10.669320843320914 0.23321600719358823
0.5905522011797769 13.16529978687024 44132.30883484232 11.112820894870326 0.2360388126525795
0.6078861139009983 13.147564141774613 38662.63120528376 11.567681291135466 0.2388325575031928
0.6254918422102784 13.132266045857145 33914.47548506185 12.051702148851252 0.2418054054141916
0.6433499504259463 13.119126442979423 29790.291037666473 12.541762816366523 0.2446863896017432
0.6614962147372866 13.108128993778314 26198.824180451687 13.04982104238258 0.2476037899449574
0.6798946657525858 13.098987581432686 23069.839911236697 13.590228664822 0.2507069488004751
0.6985524864392437 13.091571276803842 20338.650390724364 14.132051795425568 0.2536596768193288
0.7174681077519048 13.085623237031076 17950.663890418153 14.699716049092794 0.25671234221170325
0.7366241920309308 13.081075983376044 15861.653063141996 15.30332504821225 0.25995830369374834
0.7560186370813042 13.077764033372157 14032.536716656472 15.902457266404392 0.26296514222967854
0.7756661012579505 13.075602526747963 12341.663964700092 16.536806640334866 0.266137801373998
0.7955574017887926 13.074498590257923 11015.22116536035 17.206890725939815 0.2694709895728132
0.815672508019778 13.074240884580853 9774.919702990213 17.874661771267135 0.2726027259500676
0.8360197315021599 13.074812807314082 8682.529132494958 18.583777584045933 0.27592836248687963
0.8565809376712149 13.076032121328456 7719.852695876352 19.325335122426882 0.27935946394082894
0.8773622820664932 13.077929372265322 6870.722121196491 20.072681689088757 0.2826598529689981
0.8983421668592148 13.080267276441221 6120.444395406771 20.866194478627897 0.28616411862181906
0.9195210895754494 13.083118330794841 5457.558922329036 21.68688803900036 0.28970699073072265
0.9408957951161652 13.086287349466087 4870.841417899359 22.524368150606566 0.2931968944203452
0.9624494784151674 13.0897132460017 4351.07451401314 23.41353477233205 0.2969021834544902
0.984167261766301 13.093346069371194 3890.413143691795 24.314572525998393 0.3005020610994604
1.0060690278210969 13.097096129652526 3481.083693562091 25.241296138510425 0.3040961666425406
1.0281315103336086 13.100969203695824 3117.677455213819 26.224732332828285 0.30791022018508757
1.0503292555313302 13.104800622957615 2794.417168212828 27.2692131321758 0.31196102258171576
1.071693770720185 13.107847576028037 2517.9299675931766 28.37187712415098 0.3860884259816515
1.0895448326802883 13.106556420536212 2304.3965063905534 29.54133494906171 0.49498016675597856
1.1043769875626561 13.099175581072847 2122.6084660195925 30.86568770101942 0.5852709645451474
1.1169383580201366 13.086239654107294 1990.0074106036138 32.28070931090983 0.6815797620415247
1.127343225210949 13.067767962891415 1869.548349656746 33.80687640442769 0.7750101238096146
1.1362890031911757 13.043702196851436 1762.380114635712 35.4719591606556 0.8532291842364474
1.1440784678125937 13.014869933877435 1665.4751217018445 37.25811022400725 0.9371355591197335
1.150837038916316 12.9813902411669 1576.9208909222887 39.157766594543745 1.0132668614722644
1.1568882561389973 12.943597739171398 1493.7913576931157 41.18766652195216 1.0867046617866654
1.1623456563853747 12.901809849421413 1415.340398135462 43.36889495429333 1.1652752271539257
1.167338665042732 12.85637386299494 1340.72165281221 45.633022050382515 1.2302738963875468
1.172008319512618 12.807330735121287 1268.9104355728798 48.0686864468258 1.3001970666645075
1.1764272699488425 12.755143318390507 1199.8669497515023 50.6312749449972 1.3684213303337864
1.180714194181884 12.699999323004533 1132.9962517001838 53.31998305734174 1.4337625346800835
1.1849014036262082 12.642038184985978 1068.323171637327 56.21489045837102 1.504114810996652
1.1890744316690385 12.581647057435017 1005.7087966605868 59.169619070401744 1.5674264062801102
1.1932955741924298 12.519026046234462 945.1801437139287 62.34779483155252 1.6354469411168515
1.1975635198759038 12.454298948897664 886.8285558151318 65.66365869300635 1.7027377794821472
1.201917723779963 12.387624976699673 830.5181059082284 69.1453102417855 1.7703552638279598
1.2064082006257928 12.31937028923457 776.4876851709165 72.85312795583376 1.841795753851669
1.211022019774315 12.249623048290719 724.6970948605691 76.66631314756047 1.9127649952759025
1.2157741400203361 12.178497441585009 675.3393419690816 80.7689271735672 1.9891209524724827
1.2206761786789182 12.106457679485288 628.3913823653371 84.98443879980991 2.073528053366843
1.2256768827747295 12.033392689199337 583.9670995453362 89.48622838670838 2.16465406419947
1.23078030739134 11.959581645316748 542.10377417871 94.17942478470843 2.2447516903569458
1.2360258227396865 11.884608242627474 502.41552218767185 99.11699232135132 2.3180257884362536
1.2414738508373948 11.809021091033003 464.9371106371121 104.31449046663899 2.380479915978856
1.2472069119176348 11.732185075587646 429.23099159119056 109.69512180446858 2.418269245356603
1.253297310266877 11.6547336234292 395.40020411565644 115.40698777084395 2.4582903757346344
1.259735047510924 11.576876494974975 363.5702326605894 121.25973316321587 2.498926319368546
1.266502429573103 11.49911982734477 333.7079074489209 127.5071377374722 2.5422447603784466
1.2735621311764271 11.421409205873957 305.8630891074039 133.89762194490055 2.5860916343788953
1.2808974772989048 11.343988996063906 280.02272851281157 140.73281309834493 2.6329540483031155
1.2884663645503251 11.267071865186226 256.11344425501574 147.7359710787825 2.6805026857494285
1.2962069970261731 11.19057797771558 234.10324427848101 155.2179450300186 2.7312450825210113
1.3041070366095298 11.11484055051618 213.88522901656938 162.91958057318334 2.7829260013016106
1.3120775406765843 11.039528926247334 195.36923900733473 171.12076639820634 2.837844852418914
1.3201305725698447 10.965102447988755 178.46578934026454 179.61875816484945 2.8942040725003486
1.328156370121049 10.891168994643943 163.04099791390448 188.6245626998718 2.953719972256212
1.3361695569998198 10.81792479455348 148.9849702727153 198.03197078320193 3.0154101637399355
1.3440959045386403 10.74546877011059 136.22536752865906 207.9420121701961 3.0799844728749135
1.3518864077261852 10.673337111837588 124.60588103364422 218.38950375583735 3.1476431637857227
1.3595142210716566 10.601938182074699 114.09088328776635 229.32320811738177 3.217839818396044
1.3669348794505451 10.530994516998065 104.53735828154082 240.94255025882055 3.292175784413457
1.3741058092820806 10.460567982819043 95.87869073026641 253.05866515457305 3.3687838765411637
1.3809999054012996 10.390516491249418 88.03854124229893 265.91608448339537 3.4496773193078316
1.387555636273552 10.32091026704375 80.93204123458814 279.4915655140686 3.5344716480201104
1.3937702689784797 10.25145776244129 74.48320705247086 293.76698153304517 3.622797595713946
1.3995984698125394 10.182432566429158 68.64427910747753 308.9306211142348 3.7160896974786453
1.4050033550878949 10.113570499472225 63.351240097734994 324.9310849086866 3.813554941670974
1.409959899297839 10.044788659457609 58.54692134175345 341.84386944940934 3.9156675008529134
1.4144611567467742 9.976131411245907 54.07067301315655 359.81910143444236 4.023496896698102
1.4184512485000587 9.907703382030109 50.2354135124215 378.8634715601349 4.1367411885339695
1.4219219385923918 9.83915562250139 46.63898225075906 399.0179020376128 4.255223844905827
1.4248594236606602 9.770650962732725 43.37521850076303 420.4682697278719 4.380346862496697
1.4272113957657873 9.702037308221106 40.40845551698547 443.3014754153988 4.512460532478148
1.4290099351496213 9.633420820916857 37.70797838130596 467.5430853521708 4.651201228371453
1.4302063384730344 9.564702636251702 35.25759989711244 493.3418708905642 4.7973448101593466
1.4308118935656584 9.495745714542842 33.01514006581697 520.8663425781373 4.951815668939941
