M[M_sun], R[km], Lambda[1], P_c[MeV/fm^3], rho_c[fm^-3]
0.23848912294887037 16.21570186450063 2784644.0411725277 3.4469561053153734 0.1694538074003404
0.24849195519669268 15.872359618096112 2284593.84741834 3.6329726217815796 0.17193787205360042
0.2587897705875697 15.568442954409466 1883119.9871622387 3.8178165868579303 0.1742278981818401
0.2693768934143918 15.298358560927879 1558820.417523965 4.014324417545445 0.17663712083405927
0.2802460343188007 15.058268189875541 1295601.5611689393 4.2187763037200074 0.179071559158593
0.2914058200687418 14.843833642312296 1080949.6997407682 4.42613318691962 0.18140886528772993
0.30285005826554595 14.652131953888484 905120.1808926554 4.648554185275695 0.18391597262212186
0.31456744929331976 14.48056268048365 760502.2328262171 4.871406953244731 0.1862841529716064
0.3265903991439054 14.326425288362222 640883.6820351458 5.105540192907731 0.18872861053281545
0.3388793096003994 14.188096512551448 541785.3075468971 5.353123866280061 0.19128537690262248
0.35146180025697943 14.063708827616047 459292.88569287775 5.599680960929882 0.19367249218903743
0.36432662599546045 13.951819237838528 390405.5053668482 5.8633618262171705 0.19622539631518465
0.3774695310166057 13.85113744104284 332741.52843239973 6.134275419682274 0.1987498451149946
0.39090775333133404 13.76032953921282 284236.258741213 6.411475288181023 0.20122193228746835
0.4046273783867299 13.678696526689844 243368.69268937796 6.7076778660152785 0.2038634869068242
0.4186265399037408 13.60530349153806 206279.28765644185 7.004817575349452 0.2063618501645571
0.4329178835429167 13.5391470715922 179604.12673052136 7.315727620253643 0.2089251896129614
0.4474965384124098 13.47987005163714 154766.02579535503 7.647621211587379 0.21166103890945248
0.4623545137490894 13.42664297714372 133614.81334539645 7.974260975086922 0.21416568556138366
0.4775019056184684 13.378964295430173 115576.17303184506 8.322456202918675 0.21683561772844032
0.4929278254082349 13.336350599061298 100146.39000835846 8.687677550400402 0.21959597346926318
0.5086421931472613 13.298292672811312 86920.58054299548 9.05339054551659 0.2222074455291204
0.5246263773626487 13.264412304733499 75570.95566267156 9.443004765058566 0.22498959071412725
0.5408938330380237 13.234464877533032 65811.38432539419 9.845281992710799 0.2277752299937984
0.5574406817195143 13.208009195502818 57400.34921529389 10.254304071182485 0.23047582839047803
0.5742699687686481 13.184765564159154 50134.9701054716 10.68982505431964 0.23335138775679706
0.5913695736849779 13.16444457262109 43854.30541152521 11.13384330354071 0.2361679319306099
0.6087545567337244 13.146762954731319 38411.84609657522 11.590903375561922 0.23897518715246457
0.6264027664964563 13.13148628203199 33686.020504058426 12.077341365513037 0.24196288104871763
0.644311806121161 13.118538837856207 29587.575677333265 12.567962714211742 0.2448368361195866
0.6625036969472404 13.107583015416377 25811.276030032306 13.078639843489153 0.24776927487549108
0.680951666645656 13.09853458150299 22904.218894013622 13.621920439054467 0.2508889310778764
0.6996533706493478 13.091118469140163 20187.711386742107 14.164364236816292 0.2538334398684188
0.718614074771573 13.085325578883936 17816.822028826246 14.735135787259813 0.25690281502765194
0.7378248284322521 13.080812214171633 15740.870996797203 15.34136110381111 0.260158854489432
0.7572754364499733 13.077642182088868 13922.850994682574 15.941962255178534 0.26316272398672186
0.7769735662571323 13.075528101010338 12327.164046561978 16.579986629332613 0.2663537634172747
0.796922561667078 13.074436277084397 10926.028275725686 17.250879813982596 0.26967729116104433
0.8170874540445957 13.074326104893245 9694.26304633402 17.922620858010177 0.272827646179275
0.837484258996905 13.074916973269904 8609.954873315342 18.636072281736322 0.2761736160183715
0.8580965928758427 13.076166124410912 7654.2718731403575 19.37856985595619 0.2795945561166616
0.8789307206355657 13.078095799258897 6811.198709270762 20.130598793619125 0.2829156231629914
0.899969890764832 13.080535024870306 6066.681462025152 20.929220604035834 0.28644245098067833
0.9211986288178934 13.083353435929288 5408.822266474922 21.751029268681293 0.2899742767367044
0.942622036153176 13.086513382987393 4826.680756004146 22.59402877313419 0.2934871805539637
0.9642333779337188 13.089983702703822 4311.040591943171 23.489213356343246 0.2972175473251134
0.9859945906415118 13.093677352987234 3854.290697509345 24.398754105924997 0.30084688583048486
1.007950592771987 13.097449470930966 3448.350665679208 25.344783819880693 0.30454383964655746
1.0300508140406244 13.101204032944565 3087.934025075554 26.349393149350448 0.30846971453130695
1.0523016366609075 13.105135591780362 2767.6527048263993 27.35719157634651 0.3122188727368199
1.0746868020933387 13.109028544975981 2482.77734069252 28.420286110867764 0.3161522134868423
1.0971997764542145 13.11268011715269 2228.8591001815744 29.53846352775225 0.32025727914628493
1.1198163696433183 13.11610242595194 2002.6307792862794 30.666300662991567 0.3242213389794184
1.142533190827852 13.119319138647544 1800.8205206327389 31.86328544232751 0.32842843514284714
1.1653461965079261 13.122394993114375 1620.6604944955427 33.10098155013018 0.3326849132129172
1.188234951610006 13.125059700800904 1459.7522935807938 34.373348584132174 0.33694290169161106
1.2112017462484497 13.127437610597054 1309.9067230592727 35.72406232457599 0.34146307817459765
1.2341891662859719 13.129226073877135 1187.037883341797 37.094623174324525 0.34585558512726283
1.2572385423267962 13.13062841174376 1071.6656974594682 38.53291319144218 0.35041399367968656
1.280287576198347 13.13144268882724 968.3140572449679 40.04512117098986 0.3551694340004022
1.3033617331686602 13.13173172178835 875.5388129562567 41.58027737962535 0.35982308463077584
1.3264315361269683 13.13146670097663 792.251034685732 43.20979779049924 0.36476278955761865
1.3494662102644255 13.130531510736978 717.5286808819435 44.88546021151858 0.3697143927443145
1.3724701132759598 13.128919174744006 650.2800191164074 46.62870331876263 0.37478108964079815
1.3954201395674202 13.126540707247257 589.8046776441713 48.46982991343917 0.38010944100764915
1.418296544432828 13.123447129731142 535.3585251519621 50.339646560973726 0.38532902896311366
1.4410865820856975 13.11955950472705 486.32160829971406 52.32486484431035 0.3908707602629898
1.4637594057214829 13.11482492623971 442.1277360863424 54.3676416321515 0.3964130336658413
1.4863119452289415 13.10920122165961 402.2598667617306 56.501684364002585 0.402115952880359
1.5087384427323642 13.1027024887977 366.236721034645 58.741589263797394 0.408047631394509
1.5309995738417004 13.09529086807457 333.70975485208265 61.04129298756788 0.4139786435383641
1.5530780210614108 13.08690148193282 304.3097365646204 63.484291192430646 0.4202792168994843
1.5749550458911097 13.077458014818673 277.7163623007631 65.97701805033238 0.4265114506518022
1.596634802313671 13.067104434341768 253.63980597180807 68.61656685097388 0.4330938861540026
1.6180674561353126 13.05566123024063 231.83662210426405 71.34659224438943 0.43975955438908126
1.6392402124701175 13.043059450810807 212.0743632148782 74.2060386452135 0.4466613595897996
1.660150471596446 13.029367192257636 194.13812914934377 77.19271682367551 0.45376334467220125
1.6807520827880211 13.014598296156711 177.88019068134352 80.29806477405614 0.4610067949000743
1.70104697228688 12.998552931336006 163.0942495562112 83.56140816954598 0.46855052264049657
1.721001340703084 12.981370739041752 149.67157239936114 86.93182834795236 0.4761658163158215
1.7406170040917472 12.962975748400359 137.46308039733745 90.51638804959323 0.4842649473973465
1.7539512389916563 12.94380287438804 129.10597774759947 95.2211796148772 1.2394001948210507
