M[M_sun], R[km], Lambda[1], P_c[MeV/fm^3], rho_c[fm^-3]
0.23848912294887037 16.21570186450063 2784644.0411725277 3.4469561053153734 0.1694538074003404
0.24848823730565808 15.872383864000167 2284895.6079838034 3.6328389459268218 0.1719360869461696
0.25877630947418684 15.568709579980524 1883566.9715726231 3.8175540417974134 0.17422467933043448
0.2693566612934336 15.298914359446455 1559358.2052121358 4.013901290194625 0.17663193321382653
0.28021455399608114 15.058941709761756 1296420.69366534 4.218221632082872 0.17906530695515932
0.2913669994046089 14.844545204576727 1081650.0748345186 4.425389889590984 0.1814004869142938
0.30279638765089695 14.653015296132196 905821.667402926 4.647596956986425 0.18390518284021073
0.3145113071858728 14.481316346009828 761122.0690318745 4.870310435488796 0.18627270482727903
0.32652226265363543 14.327177419568816 641437.0646257803 5.104198128876323 0.18871459877363966
0.3388001811752064 14.188839394646955 542357.7249048846 5.351637877618601 0.1912709898647875
0.3513746457806043 14.064480152796314 459816.8208902523 5.597916112742751 0.1936554052903956
0.36422588581096554 13.952574183350713 390876.6759177389 5.86128470664812 0.1962052860689878
0.3773614695165223 13.851815749761018 333157.9601914736 6.1320470698407705 0.19872997254041946
0.3907849023040841 13.761090875353867 284606.5165256852 6.408897078244908 0.2011989396369107
0.4044911188793526 13.67946748573339 243741.616032724 6.7047096537815465 0.20383701618940314
0.41848062437227657 13.605993550465385 209191.3449661099 7.00169239141339 0.2063360841676132
0.4327607751252514 13.539933897382772 179907.81997362617 7.312170137327372 0.20889585946917413
0.4473255767902173 13.480495293276617 155025.65148648334 7.64365546079331 0.2116288345535563
0.4621692191150135 13.427244947176048 133859.08817932036 7.970059822116838 0.21413347146837783
0.477304615285882 13.379574086452989 115790.53940902387 8.317726997197127 0.21679935457067329
0.49271735777898523 13.33696287751323 100342.32747562912 8.682771207834616 0.21956093840981017
0.5084114023902003 13.298823901258046 87099.720585177 9.047904842153452 0.22216827338798018
0.5243813148878843 13.264882441203554 75733.99538338826 9.436879682912258 0.22494585291672048
0.5406363982502085 13.234867396535812 65955.80681963464 9.838970221120704 0.22773355605702678
0.557162830465306 13.208408109682967 57532.35639134819 10.24729452307917 0.23042954733288817
0.5739758178421219 13.185143207225877 50253.46465991051 10.682047193526124 0.23330003385808565
0.5910617596947578 13.164770243433326 43957.34478829651 11.125868851348288 0.23611895298029467
0.6084177245636508 13.147044466033474 38508.799901569306 11.582094094221754 0.23892108069566204
0.6260587409501739 13.131826233560256 33773.4603742391 12.067614666280152 0.24190313982675488
0.64395023024662 13.118842197679738 29664.26234657325 12.558023306852816 0.24477976149908953
0.662117602549598 13.10783447584204 26084.05585986096 13.06770636951413 0.24770649207010798
0.6805465987825061 13.098719457814925 22967.640557006824 13.609896389460044 0.25081988590821414
0.6992304649918335 13.091313907271857 20246.458991371026 14.152104724705051 0.2537675132434682
0.7181804367479723 13.08547158052243 17867.519308375526 14.721696673460285 0.2568305449889187
0.7373687438142278 13.080911255027683 15786.827070984227 15.327417275458908 0.26008786180466686
0.7568050114195416 13.07766464372003 13963.687399976987 15.926972383677258 0.26308775307188353
0.7764826881370466 13.07556316574718 12364.435168455046 16.563601462113652 0.26627181401723615
0.7964103343705846 13.07459114928389 10960.306411974432 17.23418770211217 0.26959900790164937
0.8165608007515137 13.07445125416627 9725.050521350511 17.90442135333825 0.2727422934955552
0.8369307149132914 13.074841864476419 8636.800569676778 18.61622645323941 0.276080542346676
0.8575299995716621 13.076142352313287 7678.767780600667 19.358367407236877 0.27950533922175674
0.8783346099421544 13.078055227855904 6833.753141746318 20.10861823863604 0.28281855389722454
0.8993556693128405 13.08045908664342 6086.953963118096 20.9052997933745 0.2863368132691087
0.9205615378028489 13.083239608445611 5427.199630063274 21.726685408640012 0.28987283226560556
0.9419663403559314 13.08644529457993 4843.40718590244 22.567588680262816 0.29337700077012524
0.9635593589221525 13.089886073346339 4326.036313956996 23.460487519559095 0.2970978425077796
0.9853008796754404 13.093514135045705 3867.774124693531 24.369531032115376 0.30073268608322096
1.0072303225699641 13.097310611939596 3460.8548677531335 25.31309092315747 0.3044199881715405
1.0293106039378597 13.101135954542173 3099.3785200443454 26.315008702863523 0.30833534485054725
1.0515404385031446 13.105027455976053 2777.909969527261 27.322214313475897 0.31208946045135916
1.0738972047224904 13.108778341942054 2492.008681434592 28.382399011560192 0.3160120351049887
1.096393467847883 13.112470735703496 2237.2333095037725 29.499830019127103 0.3201214922183953
1.1190011731659697 13.116010841814793 2010.3418368467953 30.62451325395456 0.3240744668961019
1.1417058706285255 13.119267738565531 1807.8181949756586 31.818066397165232 0.328269501733918
1.1644920384602415 13.122273852726888 1627.0835358012766 33.05484222595169 0.33253050752217184
1.187364527150063 13.12499067106552 1465.5813107609665 34.3234836419367 0.33677602818445074
1.2103017026279885 13.127240974421841 1321.0605156906106 35.67014436486383 0.3412826412054576
1.2332802109273149 13.129090082353331 1191.791531941708 37.03958212734396 0.34568114215936036
1.2562980776803514 13.130526233390084 1076.073162330954 38.473465578558226 0.3502255848721677
1.2793456576969637 13.131386853249424 972.2736823488442 39.984300953031315 0.35498506445934175
1.3023963846203905 13.131724909380722 879.1516077914055 41.51465399976117 0.3596241548532364
1.3254598548412313 13.131487537277726 795.587315909462 43.13895343765941 0.364548032997083
1.3484825545485333 13.130646181435141 720.5787329147819 44.81290703182631 0.36950351855880975
1.371469093811777 13.128979638010138 653.0685287181559 46.55044580553622 0.3745536359381315
1.3943977218553545 13.126653476899781 592.3464672004936 48.38949113894702 0.3798851755427711
1.4172701103174932 13.123640615410546 537.708851344747 50.25305607612272 0.3850873118662089
1.4400486943597224 13.119764413173893 488.4613882434439 52.231481117841334 0.3906100798510591
1.4627118581117202 13.115078030152759 444.0631529047434 54.2716907419644 0.3961566188494316
1.4852514347266375 13.10945387530928 404.0220693154758 56.398271079964836 0.40183959590035434
1.5076675533690331 13.103035834973314 367.8698725634734 58.63510223375504 0.40777299781374987
1.5299197112964116 13.095688100238005 335.220594407678 60.92658443628282 0.41368280638175847
1.5519998030257631 13.087423494622731 305.7037747625652 63.36064797138422 0.41996033693336005
1.5738743717898025 13.077955788932519 278.96592287284074 65.84954395569055 0.42619355919778656
1.595536433392827 13.067624921092513 254.8056721485623 68.47921958810852 0.4327513732597552
1.6169700398550046 13.056232391249862 232.90115526217343 71.20467356494859 0.4394170072864108
1.638149572458237 13.04370072920671 213.0406520887053 74.05317428441963 0.44629239305137186
1.6590617453073857 13.030232295675367 195.05121604806118 77.03444691232293 0.45339416857864573
1.679655088258194 13.015332676629193 178.7027640376804 80.12762338775882 0.4606092279548748
1.699956327350373 12.999469220091774 163.8632877457923 83.38741039733839 0.46816361417301733
1.7199253752820125 12.982404515595448 150.37804937844854 86.75469801793402 0.4757994552102388
1.7395283765908278 12.964035107451462 138.1097046147286 90.31780288360711 0.4838494278340025
1.7587794071303322 12.944453577548032 126.94260267887474 93.99305244976661 0.49196389612044705
1.7776316957886373 12.923678131984055 116.78433408519396 97.88833003065 0.5005395214313153
1.7960513069755217 12.901542356891056 107.52759599713788 101.90998208713764 0.5091876461291645
1.8140465905288496 12.878133113754556 99.08564110270397 106.17088486049471 0.518316543001172
1.8315983914191694 12.853373491130482 91.38289687361035 110.58255045151623 0.5275514432677134
1.8486623460493585 12.82728084046648 84.35411248536997 115.24792851059686 0.5372690231168858
1.8652268100923048 12.79974224364458 77.93010602789387 120.09973124505194 0.5471979796989778
1.8812962401049749 12.770980767398715 72.06681606170115 125.2139469768931 0.5575829219326046
1.896822906362995 12.740650060946942 66.69275282947793 130.56381210483357 0.5682979915708016
1.9117977795585375 12.708977137097985 61.783700305248054 136.17871730072406 0.5794081816314812
1.9261897571197095 12.675904838926922 57.28904095949472 142.09325446549022 0.591000074678419
1.9400058898156225 12.641301170153067 53.16540787176406 148.26928202734075 0.6028935921727142
1.9531852619534618 12.60522557943413 49.3909242301299 154.80671897986042 0.6154054585414758
1.965762228145283 12.567750252302394 45.923376320493475 161.63317084520432 0.6282570267918957
1.977723091696534 12.528944012602635 42.74745345128429 168.84058093029378 0.6417132200255864
1.9889428176074364 12.488312455214825 39.82478042743223 176.44222200046255 0.6557715247947992
1.9995187022793155 12.446372740073445 37.145107978592215 184.40903461217547 0.6702715839361381
2.0093805534417917 12.402880172111702 34.68043346177474 192.84094717957905 0.6854940704613538
2.018551113821391 12.357878677352808 32.41192087533497 201.72855345219025 0.7013448192065084
2.0269693195642455 12.311349737966722 30.323917605859194 211.08303727373948 0.7178155038282763
2.0346561502372262 12.263327554427931 28.4019277356735 220.98894328907764 0.7351129185464667
2.0415572438018796 12.213815748887015 26.63570997245008 231.46493352542288 0.7532260551323418
2.0477177377050406 12.16277514510212 25.00248034145927 242.50255794996912 0.7720272036336436
2.053070975131801 12.110177822412668 23.499461199388733 254.20464262823143 0.7917696931676719
2.057645200530197 12.056289801563054 22.114796722797326 266.6137620965155 0.8125013370455731
2.0613853284632295 12.000703102261518 20.83481369306845 279.75769316980524 0.8342212384086485
2.064313510667496 11.943743875701823 19.656212139640573 293.67480702023687 0.8569410572267104
2.0664111256558764 11.885311250167499 18.567740134129124 308.4613857939049 0.8808271656067638
2.0676712612391377 11.82544797568916 17.562716339034512 324.18028286293617 0.9059481415190396
2.0680931892668113 11.764215536249393 16.63434583707149 340.90068202898135 0.9323874816600229
