M[M_sun], R[km], Lambda[1], P_c[MeV/fm^3], rho_c[fm^-3]
0.23848912294887037 16.21570186450063 2784644.0411725277 3.4469561053153734 0.1694538074003404
0.24849122500290466 15.872196615779538 2284533.5514457733 3.6328998139792463 0.1719368997781719
0.2587833549831237 15.568474705872811 1883333.3353430573 3.817673587711052 0.17422614498563055
0.26936481598344375 15.298670226759416 1559127.661308665 4.0140939521119465 0.17663429528486363
0.28023007309611553 15.058573807360414 1296019.5161334318 4.218474187031714 0.17906815372938145
0.2913837728160605 14.844257597169985 1081409.2026197196 4.42572832548096 0.18140430172992836
0.3028225585982778 14.652538432466379 905488.5478231371 4.64803279298685 0.1839100955401866
0.3145401340123241 14.480721102130156 760728.3888474979 4.8708096867892365 0.1862779172380331
0.3265511719202809 14.326879726261705 641187.5020960934 5.1048091701318175 0.18872097832239298
0.3388379367494557 14.188463328696036 542096.1194938802 5.352314442230924 0.19127754022477864
0.35141422159655417 14.064099051445247 459554.0349436962 5.598719629463662 0.1936631847746976
0.3642721125053948 13.952229895634296 390676.9798804938 5.862230383300816 0.19621444191662976
0.3774138657024946 13.851462373779801 332953.60704141227 6.13306159239616 0.1987390201211739
0.390839481697094 13.760750170300422 284454.46771826217 6.41007086780007 0.2012094075715393
0.4045543398428236 13.67919129301055 243580.88947783082 6.706060980498661 0.2038490674124477
0.4185476098718896 13.605661126361314 209038.7260096044 7.003115174828385 0.20634781449577072
0.4328307893943054 13.539570392046768 179768.1372884479 7.31378970654844 0.20890921222422928
0.44740499419360513 13.480148057233514 154895.98633631092 7.645493573582209 0.2116439891202859
0.4622541067285575 13.427065387322015 133749.68480752577 7.971972389928905 0.21414813687994858
0.4773981093956873 13.379339778299116 115683.66608299543 8.31987992705845 0.21681586305852923
0.49281175190779397 13.336713430492674 100256.97328927137 8.68500477072714 0.2195768877667257
0.5085153647633167 13.298666517709538 87024.24121117206 9.050402114982615 0.22218610583666615
0.5244934180267095 13.26465982508509 75659.78082618408 9.439667978189279 0.2249657634895134
0.5407491028768954 13.23476588701644 65894.95169527992 9.841843496431187 0.2277525270688746
0.5572869702502317 13.208223697580303 57469.63341105877 10.25048539364437 0.23045061529079547
0.5741123404913527 13.18491039754953 50198.65971883546 10.685587756719498 0.23332341068732454
0.5912005355270267 13.164630870737016 43912.92289266652 11.129498901426903 0.23614124868640113
0.6085648463785844 13.14691482654582 38464.39222158312 11.586104102629161 0.2389457100993892
0.6262144410016779 13.131674675461433 33735.265470721155 12.072042212964215 0.2419303337435061
0.6441147301442178 13.118648442610228 29628.466732247976 12.562547676700971 0.24480574158852011
0.6622999398363806 13.10775679699549 25848.85177555405 13.072683152117577 0.24773507002934947
0.6807358781731279 13.098667812855583 22939.196206268178 13.615369496603615 0.25085131388997184
0.6994191287460786 13.091192705357972 20220.37107603375 14.157685013059362 0.253797521744142
0.7183786759382588 13.085370789877175 17844.84226755245 14.727813790705161 0.25686344033505665
0.7375758418159349 13.080906126111703 15766.690849706707 15.333889514145632 0.2601214857960133
0.7570163455773443 13.077692254034593 13945.919344618087 15.933795255250944 0.2631218772419046
0.7767077289646304 13.07553875787534 12347.437006240603 16.571059296106032 0.266309113912507
0.7966341522392041 13.07448331131001 10944.812396695366 17.24178525607719 0.26963463918020947
0.8167902588798925 13.074224737565189 9710.722601963547 17.912704867855552 0.27278114181628854
0.8371796656651694 13.074837325123122 8624.813951231148 18.62525913424693 0.27612290413503643
0.8577907533826358 13.076236449667828 7667.650635467877 19.36756241994369 0.2795459457093024
0.8786055732100576 13.078084093168084 6823.306243004002 20.11862236925881 0.28286273356488695
0.899632932812554 13.080505675800563 6077.863898554824 20.91618680723949 0.28638489187508936
0.920849844486582 13.083295746133315 5418.9042777647655 21.737764990347625 0.2899190025239138
0.9422670917197263 13.086480982234542 4835.6612653082675 22.579622100485132 0.2934271458148262
0.963864341094808 13.08995278429574 4319.265066436419 23.47356098668249 0.29715232158199023
0.9856206802748535 13.093595060639641 3861.41226082978 24.382830834872763 0.3007846598804829
1.007555041103142 13.097365399995264 3455.1250825804727 25.327514508236355 0.30447635355532515
1.0296494507373803 13.101231103407779 3094.118930993642 26.33065692841078 0.3083964959606004
1.0518891507712878 13.105017831095305 2773.2685428101195 27.33813237712879 0.3121483556543672
1.0742592069926769 13.108827224824795 2487.7254682018274 28.39964100740615 0.31607582872133266
1.0967592699503839 13.112554814417692 2233.5112140828824 29.517411746643546 0.3201832875057355
1.1193714012549136 13.116047920677396 2006.7721594811815 30.643529928728643 0.3241413056570155
1.1420844267187085 13.119371464443178 1804.6364585758054 31.838644344653087 0.3283418279701592
1.1648793944922988 13.122272293578106 1624.1457394163415 33.07583902624873 0.3326007735156824
1.1877664957638325 13.124979198217405 1462.8579862055597 34.34617542939032 0.3368519664687323
1.210704104369033 13.127309318584002 1318.7044956057193 35.694680046055645 0.34136475009781314
1.2336808245040225 13.129124337403997 1189.7061442678848 37.064628947950624 0.34576052367484444
1.2567171510832886 13.130522302726325 1074.0921749419263 38.5005170926462 0.35031131991288067
1.2797759511166593 13.131455899225067 970.4546684566719 40.0119771364544 0.355068961646943
1.30284423157921 13.131823885429952 873.8496956579897 41.54451525127804 0.3597146758250851
1.3259001664205308 13.131470122289436 794.0841809455269 43.17118976886549 0.36464575375161873
1.3489298487229882 13.130543096928342 719.1355551630467 44.84592100489841 0.36959947292926437
1.3719310392646231 13.128954174844557 651.7803578876741 46.58605468237028 0.374657132338027
1.3948704942267003 13.12662287045166 591.1823562394874 48.42604709358682 0.3799872213881699
1.4177310981531754 13.123531157734265 536.6600161533948 50.29245586573153 0.3851972962689904
1.4405194304460027 13.119667599652374 487.47376737893217 52.27397099788944 0.3907286902326817
1.4631823565613247 13.114917308801695 443.18362338587366 54.31534874761936 0.3962732885278786
1.4857495712530155 13.109360153396906 403.200793654739 56.44532346979784 0.40196533657745637
1.508151823020162 13.102876559115074 367.1411400861329 58.683553191874836 0.40789795444099697
1.5304107500745623 13.09550487410072 334.53623587755925 60.97877497813259 0.4138174075194206
1.5524773852236629 13.087082465780693 305.0514388339639 63.41690236342787 0.4201054188753978
1.5743663050897614 13.077744379424137 278.39991226915714 65.90754130291768 0.4263381914157355
1.596039240890395 13.06737182228971 254.26756734059248 68.54170752418953 0.43290720398689275
1.6174673787056084 13.055943115000376 232.42018838246724 71.26924128411613 0.4395728534739178
1.6386424696895336 13.043445765666753 212.60478359019817 74.12272025190413 0.44646025516619775
1.6595426714638957 13.029775130949343 194.63976876705505 77.10645204303407 0.45356212578949345
1.6801597068085878 13.0149835518988 178.32373578100004 80.20516410177075 0.46079009731687665
1.7004446966372369 12.999060735078022 163.51986367447938 83.46785214667152 0.4683460281749894
1.720413819640263 12.98190691686149 150.0535925012453 86.84131411185139 0.47599587048536196
1.7400374761010895 12.963605570659276 137.81183597995627 90.40784135220551 0.4840482209458306
1.7592597989939152 12.943944230572177 126.6728277573643 94.09000020973616 0.49217794404006543
1.7780977544478564 12.923074440817219 116.53108898595552 97.98930130459591 0.5007566491578614
1.796530139607758 12.900934029997938 107.28876056581682 102.01870981921826 0.5094214532740742
1.8145203299153994 12.877475530316387 98.86976825524319 106.28432689551397 0.5185540102021241
1.8320553477309889 12.852725153368182 91.18706974327773 110.70472689195286 0.5278071941216879
1.8491095121608243 12.82650058405884 84.17002275931101 115.3756284287677 0.5375303542163659
1.8656777008802938 12.798993374623103 77.7597171730911 120.23729790918644 0.5474795025699788
1.8817276911840481 12.770067621560656 71.90289443042539 125.3579909779901 0.5578714229444633
1.8972527971124664 12.739780300235587 66.54997330275653 130.7190385628125 0.5686088895592851
1.9122185318668732 12.708067417958736 61.65033428743652 136.34153350678815 0.5797272848840986
1.9265938430548186 12.674873430909688 57.163559027015104 142.2687855829873 0.5913440978680198
1.9403929254549648 12.640282596279889 53.05256454658141 148.45370201693203 0.6032472998741881
1.953585425082191 12.604193446037144 49.28328467909984 155.0008478955947 0.615770928196745
1.9661263007344376 12.566602324272717 45.82692170309267 161.8425191861805 0.6286511487377086
1.978023734051861 12.527596633994888 42.65689085182715 169.0613121922272 0.642121435478501
1.9892743027612465 12.487054286042444 39.74046617102298 176.6804161947183 0.6562120358036977
1.9998533411940616 12.44509942945019 37.06570113845341 184.66058629360384 0.6707283383694019
2.0096689046024956 12.401460774795826 34.60567217257336 193.10704485485695 0.6859686467716813
2.018814748666323 12.356415644177977 32.34168285183412 202.0159044763983 0.7018573001543223
2.027231152074838 12.309889010995352 30.261344988697214 211.3874862633423 0.718349980066945
2.034885457016263 12.261788987724731 28.344726691297115 221.31201098927872 0.7356715072095149
2.0417900671186233 12.212240680489648 26.57895191773874 231.81413969363243 0.7538298375795098
2.0479100201003466 12.161111624455557 24.953315475485326 242.87370580508252 0.7726587009911228
2.053246126267208 12.108523893646879 23.45280395695164 254.59967755719362 0.7924315739259121
2.0577877648260503 12.05443940811931 22.06985707540931 267.03480613478325 0.8131970980724452
2.0615020253149403 11.998835454478423 20.795154730927415 280.2134562617454 0.834974371496967
2.0644087637087996 11.941790912525931 19.61767048436556 294.16136170769107 0.8577343161194672
2.06647596196383 11.883328533200622 18.532748018773997 308.9815042848654 0.8816629221383812
2.0677149509296253 11.823425892539806 17.529676856733232 324.7369979732899 0.9068306033732538
2.0680660618911975 11.762042969769508 16.603699954979064 341.4973234880752 0.9333214552903482
