M[M_sun], R[km], Lambda[1], P_c[MeV/fm^3], rho_c[fm^-3]
0.23848912294887037 16.21570186450063 2784644.0411725277 3.4469561053153734 0.1694538074003404
0.2484869743959383 15.872493342733277 2284809.4677025825 3.632836043781384 0.17193604819091798
0.258777701101625 15.56856709157466 1883549.7118649988 3.817548341997127 0.17422460944981996
0.26935605655774625 15.298825745629767 1559254.436267968 4.01389210442743 0.1766318205946076
0.28021504747236 15.05889054046091 1296355.5190206172 4.218209590843586 0.17906517122750973
0.29136627389616976 14.844548376741503 1081667.8406152902 4.425373753943844 0.1814003050348868
0.30279497975227354 14.65302389800834 905903.9157942239 4.647576177845461 0.18390494861980394
0.3145091527130859 14.481344516181725 761127.0999270289 4.870286633121306 0.1862724563197315
0.3265205273951022 14.327211738410698 641474.5365546213 5.104168997163519 0.188714294625302
0.33880069900202175 14.188781509504922 542321.3396605154 5.351605622273894 0.19127067757514712
0.35137325577854295 14.064475521998705 459800.2844379359 5.597877805412732 0.19365503440667312
0.3642235669598159 13.952536456679548 390898.2721318788 5.861239622483126 0.19620484957333723
0.3773595936857715 13.851826771860498 333176.5778404941 6.131998703794621 0.19872954120874922
0.39078009266648 13.761148447960927 284649.72302336537 6.408841120070023 0.201198440598123
0.40448814239708275 13.679479019848912 243748.01191128083 6.704645232712504 0.20383644167795306
0.41847625751972434 13.606023350548803 209208.3136889255 7.0016245641288615 0.20633552495649424
0.43275537710456086 13.539986081896533 179915.18962724577 7.31209292983611 0.2088952229216862
0.4473197459591799 13.480585989094378 155038.08933663415 7.643567836160052 0.2116281121205479
0.4621644438651064 13.427283487870508 133863.487324715 7.969968648441325 0.21413277235618566
0.4773009506759258 13.379571707898352 115792.79092797417 8.317624366646369 0.21679856760811064
0.49271094659483106 13.33691639366318 100343.8763273148 8.682664733784206 0.21956017810319964
0.5084035840727488 13.29883581493025 87104.16778583483 9.047785798632795 0.22216742332568473
0.5243750408046263 13.26490171383137 75733.89274476493 9.436746768352933 0.22494490380454055
0.5406270762848328 13.234952346908514 65961.63928698652 9.83883325591175 0.22773265173414747
0.5571558041628292 13.20842392618538 57536.68496280133 10.24714242061236 0.23042854306514907
0.5739720507632667 13.185104149919534 50255.37597069065 10.681878424281892 0.23329891954672113
0.5910546054411456 13.164765281783732 43960.42112756771 11.125695816650683 0.2361178902041124
0.6084082223178706 13.147059389519189 38510.68079917272 11.581902950615394 0.23891990669486887
0.6260507080974488 13.131798251563188 33775.94276725471 12.067403623067454 0.2419018436029166
0.6439475226059942 13.118722126382295 29664.565977009053 12.557807648495105 0.2447785231336137
0.6621117867612318 13.107797330198137 26086.726356879288 13.067469149878052 0.24770512989425436
0.6805390451668405 13.09868418206021 22968.0789540068 13.609635516226806 0.2508183879073528
0.6992229654978583 13.091302289664354 20247.832771294663 14.151838742585696 0.2537660829007868
0.7181675082276278 13.08538097393097 17867.82890547159 14.721405107895237 0.2568289770689655
0.737358872121628 13.080912259670257 15787.87507342076 15.32709768389151 0.2600861431723746
0.7567907826001055 13.07775406704392 13965.44743706288 15.92664718363433 0.26308612660399006
0.7764737513682671 13.07552393848445 12365.113218061319 16.563246003056275 0.2662700362107541
0.7963974712770764 13.074616387947575 10961.002242208462 17.23382558315941 0.269597309623317
0.8165527218945535 13.074433230901384 9725.71008763523 17.904026545661306 0.27274044191248253
0.8369165246848443 13.07484711847838 8637.897338852958 18.615795945518737 0.27607852333626975
0.857518245913617 13.076156175252727 7679.2532938874365 19.357929161826192 0.27950340386751876
0.8783232181820608 13.07803580996136 6834.237720863455 20.108141437012755 0.28281644827325264
0.8993413661350417 13.080459351781025 6087.600845138347 20.904780921292396 0.28633452185599034
0.9205477225101235 13.083261556967498 5427.875273263432 21.726157357720602 0.28987063179919875
0.9419532866389883 13.08643359269347 4843.741676709464 22.567015178601707 0.2933746109037447
0.9635444073809416 13.089882045262186 4326.423276089535 23.459864460293577 0.29709524612752003
0.9852871449099959 13.093503396902493 3868.202842698714 24.368897184525075 0.30073020909414416
1.0072165878948576 13.097301904751818 3461.1213403965157 25.312403528988888 0.30441730192981126
1.029293126888823 13.101158696793489 3099.680374891031 26.314262957572087 0.3083324305806672
1.051524451533727 13.104996396770984 2778.2296148898067 27.321455706473117 0.3120866536832493
1.073883387521267 13.108811291471449 2492.304977071881 28.38157732357444 0.3160089949437112
1.0963789197789713 13.112447062337694 2237.371657103158 29.49899213877129 0.3201185472826775
1.118982310932333 13.116014261820817 2010.4558239689675 30.623607004383494 0.32407128166003263
1.1416910401975162 13.11930645000636 1807.9264382632928 31.817085761063744 0.32826605504816936
1.164473696152816 13.122264831628197 1627.245819528056 33.0538416270769 0.33252715900844365
1.1873544722534806 13.125011834762594 1465.605678402627 34.32240228727129 0.336772409420695
1.2102850464960448 13.127237086026676 1321.171451856949 35.66897516180861 0.34127872845622303
1.2332532175617732 13.129043396277568 1191.921511477167 37.03838856386897 0.3456773593687635
1.256278796586184 13.130476776017566 1076.1105721238512 38.47217650759883 0.35022149938730995
1.279319155703362 13.131398841127343 972.3547046451498 39.98298211220051 0.3549810665440618
1.302378466350854 13.131732740681077 879.2687616429121 41.51323106013871 0.3596198413743645
1.3254372792825588 13.13149334360557 795.6660910986359 43.137417349416204 0.3645433765210963
1.3484703614304754 13.130594351410187 720.5562221138294 44.81133388521731 0.369498946243561
1.3714441443637757 13.129007282257803 653.113218139924 46.548749040493185 0.3745487043286836
1.3943816519487844 13.126633098463314 592.3742919278412 48.38774924315063 0.3798803130455148
1.417253121418784 13.123633315617292 537.7495706360996 50.25117870602531 0.3850820711928192
1.440022662070037 13.119740131637043 488.479259109295 52.22945654573636 0.390604428263676
1.4627005596082865 13.115223944608996 444.1621409438324 54.269610508184655 0.3961510597268254
1.4852231298692211 13.109445823968755 404.0644733125551 56.39602915228031 0.4018336046742749
1.5076461140796227 13.10308884301773 367.9143768505197 58.63279366642858 0.40776704394208085
1.529898406728551 13.095685413219943 335.2453691132854 60.92409773544214 0.4136763930978507
1.551965660885478 13.087307954425548 305.7117010400242 63.357967695369716 0.4199534244126616
1.5738519864606972 13.077982915375278 278.99707308074767 65.84678063509303 0.42618666810352046
1.5955102108934087 13.06763195372905 254.83897127610814 68.47624237066114 0.4327439487553026
1.6169455738049525 13.05628292923453 232.93068078777642 71.20159725868993 0.43940958204964853
1.6381215327897507 13.04372398887205 213.06954972283003 74.04986085920493 0.44628439548395027
1.6590395388978525 13.030263815714227 195.0753868417356 77.03101632785702 0.4533861664905614
1.6796348118492075 13.015423220597537 178.72916916507285 80.12392914512237 0.46060061086490794
1.6999262977212894 12.999483091035263 163.88662023741304 83.38357794937467 0.46815492350957194
1.7198973904256984 12.982374724947817 150.3946599030449 86.7505714961967 0.475790097689417
1.7395068461349557 12.964045955741094 138.12047722390605 90.3135133267283 0.4838399570558609
1.7587590162988687 12.944522696748647 126.96010015746683 93.98843382467774 0.4919536988029218
1.7776013136585596 12.923683419195617 116.79367909589747 97.88351974128337 0.5005291774279825
1.796028863859319 12.901549887113214 107.53344547681225 101.90480239321525 0.5091765077615712
1.8140249631234455 12.878124862864146 99.09475086619409 106.16548060509788 0.5183052303215105
1.83157292594028 12.853409194109501 91.39281683625026 110.57673023006733 0.5275392598500221
1.8486348906214032 12.82725480423601 84.35773672414174 115.2418451945336 0.5372565739336909
1.8652197946220148 12.79984950930568 77.93510490434943 120.09317805265675 0.5471845689388279
1.8812704047771402 12.77104352300133 72.07117492775376 125.20708526920075 0.5575691788430122
1.8967918592095239 12.740751536819007 66.70438301171465 130.5564178829087 0.5682831819258946
1.9117697285976951 12.709050645855124 61.790897541844465 136.17096159563047 0.5793929812360076
1.9261613322232585 12.67586153243567 57.2924364978987 142.0848932927384 0.5909836876277359
1.939986869720685 12.641347558089574 53.169936981661834 148.26049751635554 0.6028767439492866
1.9531975177566177 12.605481251185141 49.39898480012146 154.797472084165 0.6153880502137707
1.965739852970068 12.567837082437727 45.93210532733593 161.623199256894 0.6282382541483228
1.977676780823131 12.528832705806796 42.749383233659294 168.83006725996754 0.6416937762791209
1.9889234544485717 12.4883673443865 39.8305155076237 176.43087684536212 0.6557505433190121
1.9994973827726477 12.446399261736108 37.147550007577784 184.3970533731549 0.6702498290267391
2.0093611318009392 12.402900634526752 34.68448004544879 192.82827327451028 0.6854714669752515
2.0185350589483733 12.357923122442976 32.413423657221294 201.7148676442304 0.7013204110254198
2.0269544416525314 12.31142008712538 30.32657453209276 211.06853732000627 0.7177900483956855
2.0346362131459226 12.26340851278276 28.40678070484894 220.97355679709452 0.7350863150822995
2.04156238362348 12.213921708481108 26.63664487534789 231.44830262339502 0.7531973000654526
2.047720654906834 12.162887466089485 25.006017995299523 242.48488234256328 0.7719971290980783
2.053059040999075 12.110305084184809 23.50319226441647 254.1858297174516 0.7917381721482917
2.0576324153108225 12.056336993163354 22.11706531894716 266.59371087945834 0.8124682030878354
2.0614267640344677 12.000966707183503 20.837587928297356 279.7359891848822 0.8341853733079351
2.0643089398595738 11.943826627062668 19.658432777900583 293.6516371204522 0.856903281968302
2.0664182871911376 11.885436763725076 18.568818844907153 308.43661804362415 0.8807873673503466
2.067666926829002 11.825566828317175 17.564587059856553 324.1537729285839 0.9059061200157814
2.0681143308118224 11.764383241598667 16.635339863424562 340.8722714523502 0.9323430081676242
