M[M_sun], R[km], Lambda[1], P_c[MeV/fm^3], rho_c[fm^-3]
0.23848912294887037 16.21570186450063 2784644.0411725277 3.4469561053153734 0.1694538074003404
0.2484720023799454 15.872881575068773 2285668.4547417383 3.6325421365720767 0.17193212335389896
0.25874493498217815 15.569598555190192 1884728.440211507 3.816971139676425 0.17421753284172206
0.269306242834792 15.300149304116937 1560785.7863123526 4.012961941599127 0.17662041662486067
0.28014807137824943 15.060285826733557 1297777.7784084906 4.216990334729011 0.17905142789405673
0.2912804173143447 14.846134680940521 1062440.1563163786 4.423740004900897 0.1813818895784398
0.30269298132182526 14.65441718193368 907218.1583447623 4.645472394494803 0.1838812349834684
0.31438370642593655 14.482992418696787 762508.3680990258 4.867876854660844 0.18624729713606755
0.32637281729979783 14.329005614683183 642824.2639686546 5.1012198424773425 0.18868350410840584
0.3386285962224673 14.19056212040385 543575.2148554169 5.348340353751837 0.19123906391416398
0.35117778182685633 14.06632773100589 460974.08269440895 5.594000109376733 0.1936174913479477
0.36400946588747235 13.954415872311456 391961.34540172445 5.856676208711466 0.19616066753595543
0.37711335060466633 13.85367491255866 334157.67113057745 6.127103228704549 0.1986858830308472
0.3905126474953093 13.762860517592168 285527.8255597395 6.403177529532055 0.20114793231471406
0.4041955827318604 13.681148421889205 244548.12682820478 6.69812550367097 0.2037782982934743
0.4181518940618369 13.607583986416923 209929.93904864026 6.994760251085511 0.20627893120952914
0.432405579148491 13.541496313912292 180568.8881867417 7.3042797912394795 0.20883080645554478
0.44693734892164694 13.482007540503396 155635.0600982478 7.634701075294637 0.211555008924693
0.46175897353822165 13.428602533863721 134390.0528247478 7.960742900879351 0.2140620300880212
0.47685402732948295 13.38090023290718 116274.00283646445 8.307239962393233 0.2167189408564064
0.49223772025922585 13.338168345537957 100783.84788324 8.671891572130852 0.2194832494432128
0.5078967860455954 13.299962255159445 87500.6688421428 9.035741594808151 0.22208141844701945
0.5238343045120863 13.265994824304308 76091.79625540228 9.423300025910955 0.2248488837214364
0.5400542307127808 13.235992057990082 66284.41749871886 9.824976830159676 0.22764116366262435
0.5565463480275382 13.209308795925153 57821.29976906922 10.231755577615116 0.23032695030105285
0.5733246397591452 13.185900885154135 50513.472637848296 10.66480667064014 0.2331862020360046
0.5903702670051056 13.165534166504404 44195.155649839595 11.108192663476567 0.23601038613374004
0.6076971416662595 13.147782812535691 38719.34076763403 11.562569269422351 0.23880115955240502
0.625291001806942 13.132436855886175 33966.07348927545 12.04605857718806 0.24177074269261245
0.6431426810113966 13.119282537346363 29836.54912821587 12.535995834542401 0.24465327411636872
0.6612778172568358 13.10826604496501 26239.496765447395 13.043478215577812 0.24756736781034835
0.6796551373544055 13.099075637237931 23106.55333881275 13.583254208806746 0.2506668996893089
0.6983080561820155 13.091615320052851 20371.870858319842 14.124940722728411 0.25362143638867807
0.7172134246470458 13.08568435396006 17981.250730400712 14.691921918655847 0.2566704285768481
0.7363563578980828 13.081135979920585 15889.777983669926 15.29478276110301 0.25991236677934576
0.7557456371963399 13.077770673688613 14056.506599733015 15.893764988896596 0.2629216683415446
0.7753774341200455 13.075611835549635 12448.156656687292 16.52730671628707 0.2660902880916662
0.7952566507414285 13.07449044001778 11035.316265294476 17.1972127052394 0.2694256012474292
0.81536241502207 13.07424152099989 9792.804093433584 17.86411138036644 0.2725532463519192
0.8356971119546643 13.07480539474118 8698.989561922946 18.572274607824873 0.27587441542024616
0.8562504743600968 13.076024019976957 7734.472026810877 19.31362523108981 0.2793077513905692
0.8770140962749894 13.07789886749936 6883.963269106931 20.059943150718727 0.2826035977667308
0.8979841839477001 13.08028520367946 6132.766207169842 20.85233371420024 0.2861029075092245
0.9191460629460305 13.083050880310157 5468.693184232541 21.67278184003582 0.28964820810994074
0.9405051694652847 13.086208492434816 4880.926103578631 22.509049733001447 0.2931330603049096
0.9620576186428461 13.089687012982408 4360.005464455549 23.39689481549843 0.2968328422893162
0.9837564979614462 13.093316488217383 3898.66799363727 24.304836485177248 0.3004798687048091
1.005648701047307 13.09706482831156 3488.5166500708165 25.24293628832594 0.3041458335217133
1.0276813555475117 13.100862643094127 3124.5637439027373 26.238904627822013 0.308037940607855
1.049865280454201 13.104795697121112 2800.967749586417 27.24479671261524 0.3118030232678858
1.0721885371865998 13.108520551626192 2512.677207915166 28.298550255398844 0.31570180330646225
1.0946276376928035 13.112199593148654 2256.2909472841084 29.41432795703127 0.3198209742806416
1.1171754045838465 13.115662261956714 2027.5903670911757 30.53204149163359 0.3237494522399407
1.139850135561011 13.119070180232445 1823.5048954339063 31.718012249692038 0.32791783692811893
1.1626029208465558 13.122010937245939 1641.2629244944624 32.952750121915194 0.3321888553171585
1.1854272414165727 13.124771639873249 1478.5376735039165 34.213160640818145 0.33640683120343484
1.2083240254486658 13.127131823325387 1332.945457057942 35.5508684515789 0.3408834832180367
1.2312690193792462 13.129053788081372 1202.6512212198609 36.917819681263644 0.3452952373912185
1.254237763777275 13.130357280419231 1085.8698977444992 38.341970532098536 0.3498088343300313
1.2772444953248407 13.131330988436769 981.2671209793341 39.849767816108205 0.354577242627318
1.3002663923725177 13.131749604997788 887.3990763281219 41.36951375208963 0.35918417877701053
1.3232800498541115 13.131487281384068 803.0530387338321 42.98228512601331 0.3640731109121836
1.3462736051275634 13.130642132561855 727.3607243500968 44.65245762715087 0.36903717597163216
1.3692489192753508 13.129202068966112 659.3066730240504 46.377402840422015 0.37405069045068967
1.3921490027465953 13.126923875429364 598.0157955626732 48.208813919329764 0.3793736455744632
1.4149816623951628 13.123916438588806 542.9093674183683 50.06160935767769 0.38455288888573835
1.4377280610171592 13.120127668366734 493.22945798293665 52.025041360952024 0.39003380384559666
1.4603743362069135 13.115544903063753 448.44418144546046 54.05957418178831 0.39558976815394603
1.482912306639909 13.110160287358333 408.01852586314675 56.16968715444508 0.4012287385630011
1.505294822539336 13.103809327696316 371.547077932909 58.399723165103524 0.4071659473923623
1.527536225364234 13.096517235208069 338.5804880424772 60.6730657195522 0.41302897320660553
1.549587299428566 13.088269734036325 308.7721438788075 63.08741932631994 0.419255671199607
1.5714628889596978 13.079117123077769 281.8148977343192 65.56784952202608 0.42549107722796103
1.5931191712150756 13.0688396403648 257.3967175850851 68.17574856785708 0.43199458542650643
1.6145376120490649 13.057603753987864 235.29728317362967 70.89110314401336 0.4386601468111179
1.6357043116789274 13.045229392076356 215.25065367734382 73.71546596720933 0.4454772712783685
1.656612494853574 13.031747247812937 197.0603910081639 76.68479959868841 0.4525785907580312
1.6772325606607728 13.017205473803921 180.55878303758732 79.75113994880716 0.45973105291773264
1.6975420793326208 13.001466516133158 165.57089513681422 82.9968458860305 0.46727794925241883
1.7175128347745867 12.984557804422044 151.94959269294893 86.33420549665006 0.47484592393770175
1.7371439504701987 12.96641924197993 139.560940257086 89.88070268204257 0.48288436800343965
1.756391147281033 12.946968149359085 128.28309512689003 93.52246744871273 0.4909249062509459
1.775271184071512 12.92638386250779 118.01376007497295 97.39611024747107 0.49947740073539115
1.7937071410634184 12.904389584415476 108.66290521174108 101.38229293774911 0.5080529080907874
1.811736589187569 12.881156041611286 100.12575701534206 105.62032930241767 0.5171640699577984
1.8293193584580991 12.856695709425713 92.34818638281784 109.98968016170289 0.5263103931734895
1.8464323388236594 12.830792582079239 85.24220273132842 114.62827331987864 0.5360009316834035
1.8630422375172149 12.803527387971332 78.75480299792494 119.43228476481329 0.5458320859300292
1.8791537098526951 12.774923663612668 72.8264692574273 124.51509780740462 0.5561832198207594
1.894729109795707 12.744880180406133 67.39958679174212 129.81080967788787 0.5667898276733015
1.9097523687654683 12.713467813482561 62.43829378788442 135.3889283578549 0.577860275396327
1.924199927547782 12.680557412827504 57.891009022288074 141.24190403481168 0.5893315141701378
1.938082405760412 12.64628772680219 53.72914517709451 147.37485942976502 0.6011781373468245
1.9513421992901037 12.61051772098272 49.91195160241389 153.86061757878545 0.6136174754700418
1.963994062702557 12.573329593067943 46.40884549894041 160.6180409588566 0.6263459298890273
1.975980640922205 12.5345851607461 43.195028998925295 167.77031464024296 0.6397338935155786
1.9873159303541936 12.494354872316567 40.24075228413301 175.28744989513066 0.6536359151223761
1.9979914017031803 12.452744618263477 37.53006188939886 183.18957975069938 0.6680573613518105
2.007940623335689 12.40953791987341 35.037321167655335 191.551062597773 0.6831936044202935
2.0172007939254977 12.364842667675951 32.74443758326612 200.33585462041012 0.6988609873868826
2.0257300223963495 12.31865896129028 30.63439192538075 209.60757668359187 0.7152252550396219
2.0335015123290083 12.270883851748964 28.691686335870518 219.42337130359593 0.7324060222466144
2.0405567868491543 12.221759824329602 26.902020450339858 229.77296095888607 0.7503006104244125
2.0468138327243364 12.171060101850022 25.253752248454802 240.70442423620372 0.7689677310461214
2.0522746214097904 12.118771249268821 23.732626900701383 252.2643279880081 0.7884814981281206
2.056957586972076 12.065069066934589 22.33065608236013 264.4821161582616 0.8088522553599997
2.0608096240427956 12.009971984665057 21.040598667029666 277.57996202784375 0.8820117796499204
2.0627717059624016 11.956475320957095 19.97486553976666 292.10675028576446 1.2255769299022563
