M[M_sun], R[km], Lambda[1], P_c[MeV/fm^3], rho_c[fm^-3]
0.23848912294887037 16.21570186450063 2784644.0411725277 3.4469561053153734 0.1694538074003404
0.24849805910164852 15.871771247185784 2284247.4089411166 3.633010187965164 0.17193837371243464
0.2587970492012175 15.568142080118895 1882849.8340130334 3.81789037065795 0.17422880278498876
0.2693828638786657 15.29828546901679 1558631.02287672 4.0144433341834995 0.17663857877421935
0.28025674645436843 15.057916904462992 1295395.8024029164 4.2189321939513 0.17907331633774928
0.29141546277696945 14.843665509726055 1080850.9999690354 4.42634209720497 0.18141122010365332
0.3028638486961164 14.651832474808835 904875.2582791845 4.648823231876188 0.1839190052885984
0.31458558001207704 14.480262722851407 760279.9735535351 4.871715156450962 0.1862873707533231
0.32660726596564826 14.326159174237485 640692.4950852414 5.105917425662797 0.18873254901443295
0.3389022281657945 14.18785348020907 541628.9339023515 5.35354156189648 0.1912894209460212
0.35148567334698155 14.063447162355903 459128.29251124425 5.600177057695944 0.19367729529630753
0.3643551520796461 13.951505287491937 390269.98581854586 5.8639457223260605 0.19623104947770748
0.37750439692438065 13.85077323018809 332592.7338513181 6.134901837540122 0.1987554315518114
0.3909436978741176 13.760124641127904 280314.9694719135 6.4122000812191535 0.20122839604079537
0.4046646090470807 13.678520561005088 243272.80822250055 6.7085123271036275 0.20387092868723922
0.4186684091562126 13.605070054074389 208769.71556268152 7.005696176768566 0.20636909391146702
0.4329645501132695 13.539033765587561 179522.7981643393 7.316727791753514 0.2089334356606617
0.4475458125780666 13.479695895361518 154683.98255488602 7.648668192986917 0.21166906707610583
0.46240899959883525 13.426492193406936 133543.6856560449 7.975442165095549 0.2141747428285354
0.47756251842865993 13.378801816373487 114257.46642240643 8.323785907501653 0.21684581379304718
0.4929894638106397 13.336156377552658 100086.09218484598 8.689057070455988 0.21960582430346728
0.5087033392022643 13.298115526601014 86871.92833915836 9.054933020387717 0.22221845998603817
0.5246958106514669 13.26426816766653 75524.76899256404 9.44472708467645 0.22500188940085786
0.5409653035212747 13.234395201707153 65777.90140847024 9.847056816215442 0.2277869483966996
0.5575249986461158 13.207854580396958 57359.79552726359 10.25627517684717 0.23048884276079667
0.5743580811594218 13.184519547704445 50099.88722582874 10.692012294478996 0.2333658291710346
0.5914564789471788 13.164329737989208 43824.42512209529 11.136085833054796 0.23618170550890727
0.6088495263358528 13.146680299809145 38383.458520462336 11.593380764201223 0.23899040323153156
0.6265006305124056 13.131423907491186 33663.71686863806 12.080076860596535 0.24197968241319373
0.6444144079620759 13.118506525114466 29566.359192032836 12.570758031217952 0.24485288754514317
0.6626105258975176 13.107515741025273 25995.681731836386 13.081714846038677 0.24778693232700744
0.6810647926550284 13.098484641408755 22886.528093718567 13.625302296021857 0.2509083505659826
0.6997620294847999 13.091073484514604 20174.036210022925 14.16781231453502 0.2538519822153328
0.7187335113037671 13.085210701141428 17802.57297220248 14.738915785604531 0.25692314230747554
0.737951794413988 13.080800421804232 15728.60686569824 15.345218324891318 0.260178146142005
0.7574086047775588 13.07765138538582 13911.22158672371 15.946178589887369 0.2631838117238889
0.7771171674278587 13.075541865049901 12316.417647703414 16.584595617251754 0.26637681498517823
0.797069104108943 13.074612726531814 10844.37263994759 17.255575125345548 0.2696993113991196
0.8172371390646544 13.074294255031788 9685.299118753166 17.9277403888599 0.27285165593697375
0.8376374697736698 13.074875626765724 8601.723681922158 18.641655155003743 0.27619979877580536
0.8582646040864155 13.07625256410278 7647.153337065926 19.384253023726078 0.2796196537960913
0.8790970134791785 13.078094447793205 6804.509386513441 20.13678241704595 0.28294293092597933
0.900134428736497 13.080514420653504 6061.206107727028 20.935950349718155 0.2864721704974368
0.9213769235342882 13.083375526981564 5403.801364589195 21.757877994152263 0.2900028163903142
0.9428059015059156 13.086537459188461 4821.910062480334 22.60146755228465 0.29351817904866667
0.9644237900811278 13.090029954432392 4306.606796570632 23.49729556806212 0.29725122709864726
0.9861917165986595 13.093654349274216 3850.2980978050537 24.40697616465044 0.3008790165034781
1.0081444551644012 13.097338704222294 3444.669075754757 25.353701162821043 0.3045786873944942
1.0302656567908806 13.101362092300985 3084.848821556496 26.359068236993885 0.3085075234411716
1.052509040086576 13.105124969733634 2764.7953305531305 27.367033398285557 0.31225528646864736
1.074898475939318 13.108922890400457 2479.974156859429 28.430947171186393 0.3161916583166557
1.0974127550878894 13.112612832134186 2226.3552531701457 29.549334548989492 0.32029548801287144
1.1200462721393114 13.116159450698753 2000.404971314441 30.678059680850332 0.3242626689276127
1.1427719032503951 13.11945681541859 1798.9237446781804 31.876010709201317 0.32847316120985115
1.1655732051784455 13.122401200150893 1618.971529309089 33.11396571045608 0.33272836482993945
1.1884852319026658 13.125038140301362 1451.3856239515342 34.38738182388432 0.33698986406299175
1.2114464048709062 13.127359678761515 1314.2667789430998 35.73923690059138 0.3415138600387264
1.2344352706593096 13.129218446099943 1185.6854409835548 37.11011372537915 0.3459046797184571
1.2574895858011799 13.130540679487158 1070.388474553161 38.54964470368587 0.35046702128023927
1.280556451687859 13.131490402600452 967.1561915553646 40.062238903364204 0.35522132445012083
1.3036338821280196 13.131781985308594 874.4855189273452 41.59874783401246 0.3598790757027061
1.3267093741987765 13.1314567140184 791.3008749578557 43.22973872326445 0.36482323821672646
1.349737352117239 13.130473335795587 716.638771929522 44.90588202954862 0.36977374829925885
1.3727476040520763 13.12885506603086 649.4947350833162 46.650731843235356 0.3748451150518933
1.3957011330323277 13.126502144361714 589.0925952514068 48.4924442022695 0.38017256873183314
1.4185867194701123 13.123390532551994 534.697107951316 50.364021835617564 0.3853970724742835
1.4413749636670878 13.119458995925674 485.73389849679194 52.35115376178425 0.39094414570278135
1.4640444533704426 13.11471145177959 441.59151469210155 54.39465315994541 0.3964852180502354
1.4866231577219255 13.109128695115102 401.73820376520285 56.53079816201749 0.40219375527654755
1.5090374120870615 13.102631944721196 365.77787031953227 58.7715683608798 0.4081249484797577
1.5312928840991533 13.095177563481402 333.2998184539679 61.07358835986302 0.4140619343741761
1.5533891400989652 13.086782441795798 303.9078248076179 63.519103919473366 0.4203690000766461
1.5752698751529324 13.077400845019977 277.36292688600366 66.01290937695781 0.4266009554726803
1.5969249300294877 13.066899553907719 253.31948915962226 68.65524014251852 0.4331903285638526
1.6183774404072113 13.055491241794732 231.53772765753843 71.38655278605069 0.4398560065814293
1.6395521353345675 13.042861882646644 211.79283371931052 74.24908357099747 0.4467652565163357
1.6604545892710332 13.029157110984515 193.8858836435884 77.21890613408002 0.45379893016668943
1.6810624292717762 13.014295359245024 177.63745319211256 80.2845800853693 0.46089167933742214
1.7013764990454248 12.998375799704114 162.87927018605987 83.54303788974872 0.4684304536027546
1.7213286244123567 12.98109736849079 149.46934467038633 87.00938429452462 0.47645019933520827
1.729681931673409 12.96373496327413 143.10826913410926 91.4458719209104 1.828529357122243
1.7194462863253581 12.937081706223983 145.56279185410926 99.36248541560958 2.8638678506744264
1.7024148820309748 12.901746815834302 150.8415137887994 108.19561540291296 4.00808709525916
1.6802048858414766 12.859739178544489 158.5750098054169 119.80771915613319 4.732073092704521
1.6530405518238667 12.805276629000279 168.41348135635286 133.8515466077696 5.293104242414703
1.6226234927163536 12.73955314652845 179.73717984203836 148.83219117704996 5.527025252984413
1.588391852249423 12.657649963577393 192.63292804548655 165.25123554636266 5.568634716928097
1.5522233111896528 12.561346232486613 206.20561994015478 181.72008374980453 5.609269977453212
1.5151846371330822 12.452079343828798 219.9086701198124 199.5203840169996 5.652795947072985
1.4780256049936087 12.33074697284289 233.12337195661394 217.08480445233943 5.695291618425459
1.4412248139798651 12.198308610061199 245.40256128205826 236.1045830948812 5.741187396344505
1.405243136266732 12.055471677086706 256.1028614999963 255.19712346605752 5.786762545065343
1.3704863257355422 11.903160394068484 264.70501977305497 275.40570058963846 5.834775992076149
1.337280619809468 11.742419829067726 270.6988901157245 296.36936486894905 5.884244546277953
1.3057692242233052 11.57403096015506 273.77648026420843 317.90121486394287 5.93459095073261
1.2762750494460189 11.399003523708634 273.5036601816576 340.7327306857641 5.987728752888351
1.2490042073386185 11.218883336285554 269.77605461453186 363.9627129293459 6.041215401059959
1.223847369069622 11.034067880388955 262.8315242468803 388.3456333419468 6.097014827461206
1.2011154288647645 10.846584436425296 252.7942907438061 414.0126815823265 6.155427731880342
1.1807692871411746 10.657575533281797 240.08897383448868 440.1380057781025 6.21411335012611
1.162711806854405 10.467730968356626 225.30451340068302 467.6517985136642 6.275556141092924
1.146988878722329 10.278699584732129 208.98784453686608 496.52740988195325 6.339621882269152
1.1334906961748954 10.091791405906005 191.83455811523697 526.2154790641114 6.404759615290241
1.1221220904297946 9.907758054938197 174.3973579305003 557.2987600171604 6.472390575922491
1.1127156015519355 9.7273599715524 157.19049653182728 589.8817427612355 6.542726849398852
1.1051711379557252 9.551534057779033 140.61971117321258 623.914353779317 6.615564035189396
1.099338285686908 9.381127894736068 125.0239027084818 659.1559894521004 6.690139334172856
1.0950123978754307 9.215923177722082 110.57387061386835 696.095897870529 6.767652415884957
1.0921094226196197 9.057032999810769 97.41509340327353 734.7900177195061 6.84812314233334
1.0903940402802328 8.903780778775193 85.53726909687089 775.3046406587855 6.931586131581185
1.089761858658352 8.756952363285668 74.95531973938763 817.6882217801411 7.018016809924702
1.0900929753164255 8.616534547088698 65.61801285687221 861.8650366929768 7.107064980250876
1.0912090228177025 8.481796761045048 57.402471241863665 908.1891121647819 7.199519404610726
1.0930139625728423 8.353420261438329 50.2382154477394 956.772536550988 7.295494861855642
1.0953858616025094 8.230321806657875 43.98305461149352 1007.7369814374462 7.39511588725961
1.098192054700782 8.11321403626645 38.579245876086425 1061.2195527527913 7.498531448702805
1.1013686036331882 8.00120532908515 33.891372008246655 1117.3718588125519 7.605910991398481
1.10481230852264 7.894261784248364 29.836704173773597 1176.360556052431 7.7174444449171276
1.1084353967168885 7.791926960099005 26.27085066165101 1238.364945132361 7.833333531074658
1.1121718651234795 7.694249382909114 23.294205303138646 1303.5836883771697 7.953808595176888
1.1159687829253393 7.600675157797575 20.66429690099984 1372.2327146590942 8.079120493555818
1.119721775361631 7.510961954074493 18.34966553338641 1444.5481310919338 8.209545741806025
1.1234255345152522 7.424903507001617 16.373178598023603 1520.784187341206 8.345374479375293
1.1270016661744893 7.342404523890914 14.686537458424269 1601.2201728297991 8.486897899293211
1.1304240892570998 7.262895496151367 13.184194591844518 1686.1596921961936 8.634490727573148
