M[M_sun], R[km], Lambda[1], P_c[MeV/fm^3], rho_c[fm^-3]
0.23848912294887037 16.21570186450063 2784644.0411725277 3.4469561053153734 0.1694538074003404
0.24849113752170343 15.872158376737866 2284713.523728462 3.6328988066541084 0.1719368863263515
0.2587832012882796 15.568484604595337 1883372.7765465423 3.8176716092861653 0.17422612072977248
0.269364520045356 15.298673520480305 1559211.373202838 4.014090763617042 0.17663425619332146
0.28022978824749245 15.058569823615569 1269871.0156493231 4.218470007287318 0.17906810661571904
0.2913839152345629 14.844258643069063 1081355.341986896 4.425722724356086 0.1814042385946068
0.30282263196564546 14.652510901190892 905399.8810170789 4.648025579801481 0.18391001423387976
0.3145382439310245 14.480839453285977 760776.658118175 4.87080142400298 0.18627783097078474
0.3265510193966397 14.326907363901034 641202.1803301157 5.104799057062666 0.18872087273734925
0.33883676345067204 14.188544155433393 542123.58635042 5.352303244639669 0.19127743181199378
0.3514131823646648 14.064061860287818 459562.53363077284 5.5987063305746565 0.19366305601757836
0.36427141003851565 13.952220481262005 390664.67456269055 5.86221473135387 0.1962142903776855
0.3774101599360802 13.851504086048113 332955.4951975468 6.1330448008866805 0.19873887037335686
0.3908387721686743 13.760747841421423 284461.1540400654 6.41005144000521 0.20120923431315096
0.40455477776179016 13.67913367985945 243570.88059568687 6.706038613947856 0.20384886794603513
0.41854563921642274 13.605684080364533 209040.99114489323 7.003091625460391 0.20634762033985665
0.43282977684686363 13.539535683527966 179765.13919449216 7.313762899726062 0.20890899121179685
0.4474033170829427 13.480187410446053 154903.60177256414 7.645463149079496 0.2116437382814041
0.46225637368883554 13.426996587600872 133743.47567992334 7.971940732945981 0.21414789413682556
0.4773961708810631 13.379335305825654 115690.5065388062 8.319844291132727 0.2168155898052024
0.4928117454128832 13.33659383198316 100245.3293110561 8.68496780004491 0.21957662376761994
0.5085131369105493 13.298655086884906 87020.23363087674 9.05036077876519 0.2221858106642815
0.5244915593718494 13.264670923809682 75660.71924143893 9.439621824213809 0.2249654339146309
0.5407471439280687 13.234775336098448 65896.03590522222 9.841795935722773 0.22775221304579457
0.5572850900963052 13.20822544266864 57475.22660701503 10.25043257517034 0.23045026655293072
0.5741116645126355 13.184888122625303 50197.09734488425 10.685529149009612 0.23332302372560368
0.5911995306953068 13.164626325816432 43912.48450678453 11.129438812372719 0.23614087962044797
0.6085629316716971 13.146914393221248 38465.97173868938 11.586037723163763 0.2389453023978369
0.626210725522222 13.131688070559067 33734.98473898883 12.071968920810361 0.24192988358433834
0.6441140423891846 13.118650278578897 29627.54493262145 12.562472781760757 0.24480531152260818
0.6622960658715127 13.107715796654483 26053.45097143383 13.07260076697532 0.24773459695278072
0.6807329143348474 13.098667979858169 22939.427308951726 13.615278894104433 0.25085079362723683
0.6994157577526174 13.091242725236084 20221.399231809457 14.157592636315014 0.2537970249799214
0.7183748794210635 13.08539288331642 17844.842622772707 14.727712525837651 0.25686289577415733
0.7375720691529244 13.080917788502655 15766.910951323447 15.333786180280715 0.2601209689780815
0.7570115308968073 13.077709709625385 13946.338033445469 15.933682305611335 0.2631213123312707
0.7767053262015385 13.075544191167129 12347.73864117307 16.570935833201787 0.2663084964204305
0.7966324904923641 13.074456797607093 10871.611066518502 17.241659480297756 0.2696340493124897
0.8167844347527404 13.074242255891395 9710.928347670815 17.912567734225362 0.27278049868211673
0.8371770493606264 13.07482766285415 8625.082038921904 18.625109596002503 0.27612220282526395
0.8577910799428545 13.076179293064644 7667.420409243618 19.36741019451214 0.2795452734600857
0.8786021561686623 13.07805859669096 6823.36124536019 20.118456746316593 0.2828620021503523
0.8996298069861743 13.08050729857451 6078.138219973029 20.9160065650971 0.2863840959000816
0.9208467960199359 13.083258270723222 5419.061889601922 21.73758156047057 0.28991823814444273
0.9422612913316003 13.086492682175408 4835.875963200144 22.579422876228605 0.2934263156178361
0.9638588326313452 13.089949435423621 4319.330152258547 23.473344540217806 0.2971514196175074
0.9856167003545774 13.093588568182525 3840.3679839395354 24.382610641664265 0.3007837993957535
1.0075494647987908 13.097368346663137 3455.324579072792 25.327275705923295 0.30447542034877834
1.0296463760118837 13.101218938977734 3094.2417101755277 26.330397846456993 0.30839548350401097
1.0518786605326398 13.105086373204145 2773.3807245136086 27.337868828240396 0.3121473805505089
1.0742513933034168 13.108866849114069 2487.808967574727 28.399355534264686 0.3160747724999865
1.096750934860707 13.112544462820727 2233.516348031652 29.517120649284077 0.3201822643727723
1.119376513353455 13.116225605165738 2006.952575369095 30.6432150682985 0.3241401990029205
1.1420787754825248 13.119369612424906 1804.7027900870364 31.838303628662782 0.3283406304403657
1.164870894517453 13.122283823372998 1624.1663946794072 33.07549137597522 0.3325996101007088
1.1877597919315246 13.125036552373318 1462.9928888718373 34.345799708668004 0.33685070911573267
1.210697568281732 13.1272968438647 1318.7284810307283 35.69427378824654 0.3413633905521598
1.2336740443519947 13.129131968934388 1189.7188754156512 37.06421422775821 0.3457592092917579
1.256713441228994 13.130539080975526 1074.0770417175133 38.50006917172194 0.3503099003058837
1.2797662322912258 13.131388156967697 970.4525309004504 40.01151887313814 0.3550675724740637
1.302834977459699 13.131766200670254 877.5324238141607 41.54402079927439 0.35971317695033506
1.3258921725479065 13.131470047268625 794.1190419341696 43.17065598041914 0.3646441356329375
1.3489219744807424 13.130557137521862 719.189038983415 44.845374340796695 0.36959788406234384
1.3719217285626917 13.128953212169357 651.8084917093876 46.585465040220406 0.37465541855637574
1.3948619814984295 13.126633164780458 591.2010184407196 48.42544176971087 0.3799855316282589
1.4177195355538257 13.123523460600598 536.6494800556728 50.291803439926525 0.3851954750241758
1.4405116049849345 13.119669536217671 487.4938945028095 52.27326739036599 0.39072672611424275
1.4631682507485708 13.114915025472724 443.2145647656313 54.31462579741335 0.3962713565484672
1.4857389939160097 13.109347321580854 403.21132046616566 56.44454429660076 0.40196325435026814
1.5081459587020491 13.102892220295423 367.1479309361973 58.68275085926765 0.4078958851986039
1.530402839397916 13.095507762667935 334.54203710386196 60.97791070343468 0.41381517852632205
1.5524707059831875 13.087089422308669 305.0671212172784 63.41597077400892 0.4201030162754021
1.5743606270796324 13.077750642011791 278.41774616797045 65.90658084976835 0.4263357962636145
1.5960346894983617 13.06734517332371 254.26746263296482 68.54067268595614 0.4329046233352583
1.617453758685304 13.055929035846644 232.4242967420242 71.26817200282868 0.4395702725648479
1.6386362695683896 13.043446402420395 212.61421617500918 74.12156850559208 0.4464574752124682
1.6595352863864907 13.02980447214995 194.65070772981076 77.10525956926972 0.4535593442576013
1.680144715166901 13.01501276789401 178.33613246465328 80.2038799283369 0.4607871018888278
1.7004394153901823 12.99906658608718 163.5235814161338 83.46651992590427 0.4683430071601099
1.7204025934897607 12.981931179344087 150.06209444652464 86.83987960727579 0.4759926175262623
1.7400199128598541 12.963631940311393 137.8270742137761 90.40635016358809 0.4840449285972357
1.7592576509346398 12.943999346123658 126.67841654319514 94.0883945590107 0.49217439897417087
1.778092487035232 12.923152334842976 116.54200191300038 97.98762901069719 0.5007530530719833
1.7965203347050644 12.900947085445788 107.29807609620792 102.01690902492234 0.5094175808620883
1.8145158312811178 12.87749624048414 98.87220301905117 106.28244801319406 0.5185500771545077
1.8320494562071563 12.852706518444723 91.18959007378672 110.70270330323403 0.5278029581614563
1.8491114890129023 12.826577610459902 84.17121602363302 115.37351334516052 0.537526025810111
1.8656665393850698 12.799007810452705 77.76192794885739 120.23501935397172 0.5474748396277622
1.8817159652772477 12.770090748482476 71.91069093802092 125.35560512303447 0.5578666443937177
1.8972478707912919 12.739807714715166 66.55320284521858 130.71646743137836 0.5686037399243491
1.9122067356717836 12.708127394162794 61.65398501109709 136.33577702994157 0.5797153649677904
1.9265888121968067 12.674926156047844 57.16773358843397 142.2571723726815 0.5913195602900536
1.9372479158039668 12.643125172176767 53.74681465809385 149.6171989619842 1.306481011121976
