M[M_sun], R[km], Lambda[1], P_c[MeV/fm^3], rho_c[fm^-3]
0.23848912294887037 16.21570186450063 2784644.0411725277 3.4469561053153734 0.1694538074003404
0.2485078057021269 15.871713400593872 2283828.499087063 3.6331854197874516 0.1719407137582765
0.25881551043163564 15.56763751521424 1882162.2835236334 3.818234556615829 0.17423302256902176
0.2694117344950496 15.297500730565885 1557783.4623981419 4.014998078157917 0.17664538003880342
0.2802952404005378 15.057218515509879 1294568.5340859725 4.219659442834441 0.17908151381470663
0.291467946247932 14.8427059415386 1079868.317604232 4.4273167316712625 0.18142220608625773
0.3029270879510231 14.65085358376511 904035.7979855757 4.650078474746556 0.18393315426117743
0.31465900032620386 14.479267036947446 759371.7081280345 4.8731531244252215 0.18630238379330202
0.326690335631727 14.325113120303984 639912.554802666 5.107677535198544 0.1887509253588999
0.33900487421678593 14.186750419909405 540874.7111557012 5.355490510960714 0.19130829027164448
0.351595882007213 14.062429468330237 458499.4677863234 5.602491919882216 0.19369970731782588
0.3644864916548456 13.950483713966399 389635.4780755291 5.86667038675352 0.1962574291205824
0.3776427711638193 13.849786109987543 332055.7251816817 6.1378249792149076 0.19878150032693997
0.3911002900170368 13.759108266274925 283591.9376133688 6.415582429838287 0.20125856005450676
0.40484051378523916 13.677526915188128 239673.4813836366 6.712406628800002 0.20390565833311347
0.41885974099681755 13.604102190957192 208340.54210834616 7.009796535385531 0.20640289986649402
0.43317509064551085 13.538099105864859 179124.54319543656 7.32139571255148 0.20897192095799952
0.44777114967861953 13.478821503887808 154334.6800608034 7.653554642074616 0.21170653596298053
0.46265325020056586 13.42570001381754 133233.41107542242 7.980955230691098 0.21421701655889155
0.4778239248478493 13.378006003253308 115219.58076220509 8.329992426187331 0.2168934048642618
0.493273994186365 13.335388265362456 99828.96044527284 8.695496166298796 0.21965180440017917
0.5090078912019852 13.297425374213871 86636.00441707259 9.062133051911795 0.2222698737487601
0.5250177557928205 13.263645409626468 75318.65910028502 9.452766972855205 0.22505930038603908
0.541311755456132 13.233747888419138 65584.35110770517 9.855341844634177 0.2278416509070083
0.557882131771178 13.20738427087869 57195.02360123166 10.265476888440745 0.23054959773927894
0.5747415115678411 13.18410555620097 49948.62410752238 10.702223466672658 0.23343324918747346
0.5918609099862192 13.163855264873378 43687.157622529056 11.14655515476577 0.2362460079055538
0.6092759669051352 13.146319026277567 38261.52101593542 11.604947074910521 0.23906144331602786
0.6269470575110305 13.131086249714771 33554.564235120444 12.092848820055714 0.24205812757189366
0.6448935089795347 13.118147187633033 29464.743280112307 12.583809302482985 0.24492783128449871
0.6631100461856908 13.107254757537172 25908.594090847757 13.09607265047023 0.24786937851414012
0.6815843537196858 13.098257657316658 22804.618269940027 13.641093641871748 0.25099902851477507
0.7003095500161969 13.09087888923871 20100.975337863485 14.183912845172317 0.25393856426160016
0.7193081516416046 13.085109105645303 17736.03133286565 14.756567059118444 0.25701806361252366
0.738541948314641 13.08069889946776 15668.318026322904 15.3632301560452 0.2602682312010668
0.7580282210764174 13.077533693226055 13857.244043045632 15.96586831508605 0.2632822886661985
0.7777651228306923 13.075491621944385 12268.04538331162 16.60612006113988 0.2664844681594928
0.7977337732337619 13.074415080251017 10800.373828492744 17.27750260932006 0.26980214769264443
0.8179367301844082 13.074267306932272 9645.820950465255 17.951650209569056 0.27296378906375796
0.8383628494910021 13.074926867836616 8566.17767530327 18.66773027042325 0.2763220867786647
0.8590052165200667 13.0762160353055 7614.680391383492 19.41079641275122 0.27973687318775897
0.8798720704416374 13.078167590098294 6775.653085887692 20.16566467994504 0.28307047911825456
0.9009534720227629 13.080621350071327 6034.192642911183 20.967385077152546 0.28661099073714347
0.9222025367863607 13.08349713162627 5379.694843401468 21.789868253961362 0.2901361245419856
0.9436657369660073 13.08670048010155 4800.2190797319745 22.636215769857266 0.29366298001890334
0.9653090627343599 13.090211097512954 4287.056354252491 23.535051442737622 0.2974085614215869
0.9871094530411638 13.093849956046695 3832.417507827483 24.445385017654555 0.30102911301058544
1.0090944618620405 13.09767624573303 3428.6528318973897 25.395360244318677 0.30474148534686796
1.0312253771227737 13.10146182038545 3070.0790358918694 26.40426977252914 0.30868416481598704
1.0534948475865178 13.105313604083777 2751.4079832237444 27.413013488652574 0.3124254080874287
1.0759246840414456 13.109150138431932 2467.810384642854 28.480757431208097 0.3163759511703489
1.0984599749058737 13.112798001767143 2215.372781449628 29.600125366941484 0.32047400478186644
1.1211205545401404 13.116375544202178 1990.407000403026 30.733002389878003 0.3244557785346429
1.1438685884082678 13.119584247139853 1789.7420397582564 31.935471501044145 0.32868215072546986
1.1667069567334287 13.12256113759664 1610.6246487104984 33.17463572362324 0.3329313976107051
1.1896269534921196 13.125243507711044 1450.5270020913551 34.45295753880988 0.3372093138217276
1.212616873521565 13.127585611251957 1307.497203880239 35.81015011217653 0.3417511717812093
1.2356303588465014 13.129297435389393 1179.411676135575 37.182502930485086 0.3461341046381401
1.2587079675404258 13.130695243289837 1064.7262044693473 38.62783768390187 0.35071484024965016
1.2817885566989584 13.131422315606164 961.8800153420012 40.14223626711074 0.35546382731734255
1.3048871499971562 13.13173628393261 869.7453300762405 41.685072084613445 0.36014075780447924
1.3279814612780714 13.131387397895907 783.7105866011327 43.32294113510273 0.3651057706783507
1.3510361011733938 13.130407926013373 712.6687771832874 45.00133143977344 0.37005116986401226
1.374093517564567 13.128973430248873 645.9138761902541 46.75369714764705 0.37514438139411505
1.3970404889916193 13.126362914598056 585.7720336667161 48.59814698139365 0.3804676377448848
1.4199349579743759 13.123169710417042 531.6453647595749 50.477962800601055 0.38571513836017984
1.442737701171626 13.119210703423981 482.9375818704062 52.47404775578848 0.39128720394421335
1.4654266171271237 13.114420436568945 439.05232198831845 54.52092468128665 0.39682266034909636
1.488009516611012 13.108776901247253 399.4073261230605 56.666905959459896 0.40255748359449306
1.5104323602842853 13.102173974824728 363.6504312283493 58.91172117467653 0.4084864072329144
1.5327059298112373 13.094669897003808 331.32480732640846 61.22457961191398 0.4144513458189086
1.554799485370576 13.086191408109698 302.1263412935175 63.68142137169274 0.420786753660961
1.5767027168719785 13.076880145140239 275.7315249015573 66.18072397355459 0.4270194469808341
1.5983646225876746 13.066200012438259 251.80677523534098 68.8360743903016 0.4336412881264611
1.6198084252916807 13.054676383561386 230.14833358465708 71.57340651097255 0.440307012765727
1.640989841975952 13.041995815331639 210.5189771776259 74.45037353955358 0.44725110725703593
1.6618708134206093 13.028196523653119 192.7326768008946 77.44569356126112 0.45435343133456274
1.6824749410570343 13.013217587748809 176.57165067593237 80.57052715191101 0.46164233323732173
1.7027713105934603 12.997143663508766 161.89607325856807 83.84688863802799 0.4692055515425811
1.7227309697130386 12.979820064872227 148.57416582533992 87.24949088121576 0.47692147390185946
1.7423165311167308 12.961260418513113 136.4353320963628 90.83215244859309 0.48498504411205207
1.7615391926033974 12.94150471266139 125.40734957510735 94.54692553880824 0.4931867751480718
1.7803531175602572 12.920485833757178 115.37105402807819 98.46519923251518 0.5017800158157141
1.7987519030730652 12.898116562169006 106.22129845190418 102.53122715366209 0.5105235659769692
1.8167243300429603 12.87447740547522 97.87335276058103 106.81907918313902 0.5196734024002936
1.83423742317105 12.84960200327964 90.27144048639406 111.28072299156136 0.5290129216239327
1.8512457377264033 12.823089352367582 83.32119196425242 115.97768195794188 0.5387624247844486
1.8677812818385329 12.795376209698833 76.9770573362011 120.8859508714668 0.548806936402684
1.8838023848339733 12.766327395981623 71.18298786545353 126.03720860501818 0.5592318056829154
1.899263791670066 12.735829550262668 65.88080857245335 131.4510799197793 0.5700750712162719
1.9141703251543127 12.703743415653381 61.02927167887135 137.10939742411833 0.5812322202926237
1.9284924929778804 12.670315009948244 56.58564488625028 143.0967245799872 0.5929667743404553
1.9422169609042623 12.635411566033444 52.52108137603552 149.32360571872476 0.6049157287660167
1.9553515398785033 12.599128785309627 48.785506305394165 155.91659273043786 0.6174949214918127
1.9678237406766093 12.561310643933307 45.3704661386457 162.83019222752787 0.6305105550223138
1.9796495285991782 12.521981954784518 42.23100593857207 170.10274435273922 0.6440474367950315
1.990824087938133 12.481256206577738 39.34750261672764 177.79710821804252 0.6582659925769961
2.0012838721712978 12.438853281872952 36.70119359723161 185.84767044012628 0.6728837838965497
2.011049454724018 12.395028979850133 34.266576477830995 194.36285315544617 0.6882083389040907
2.020100714926779 12.34971019934343 32.026975526890844 203.37221337884287 0.7042762317512042
2.0284084311950523 12.30285223405212 29.967796107284755 212.82459945177274 0.7208729079718637
2.035963237983085 12.254542296548973 28.07281462851695 222.83712632282823 0.738308453380957
2.0427629013853794 12.204599203310257 26.323977941574096 233.44196044184164 0.7566108586252186
2.048797640442486 12.153244714371878 24.716276515966186 244.6262051636573 0.7756405280411156
2.0539756875460924 12.100259546225956 23.233970384713494 256.465129066657 0.7955571366775094
2.0584044581217418 12.045846503233214 21.864781250786294 269.0232606543926 0.8164829518851331
2.0620054825719327 11.989996892188591 20.60335259628379 282.33924507266175 0.8384469444162815
2.0647825809623424 11.932643681475037 19.440351575849977 296.34204823815315 0.8611274338072544
2.066719538825553 11.873783419135453 18.365816383374085 311.36893508279604 0.8854666424379367
