M[M_sun], R[km], Lambda[1], P_c[MeV/fm^3], rho_c[fm^-3]
0.23848912294887037 16.21570186450063 2784644.0411725277 3.4469561053153734 0.1694538074003404
0.24846528790151215 15.873106116012849 2285890.6051984034 3.632428141478259 0.1719306010633595
0.2587319435796098 15.569936325136679 1885165.2817099886 3.816747281542333 0.17421478829924936
0.2692880384224305 15.300427110198044 1561256.2778168065 4.012601222123399 0.17661599413681536
0.2801208618802551 15.060893304674485 1298362.007251224 4.216517533763911 0.17904609852868175
0.29124523277387504 14.846845973425673 1083783.4101016389 4.423106522319214 0.18137474902589085
0.30265147171934276 14.655132594571128 907787.1882683276 4.6446567230618445 0.1838720408163388
0.31433379867444855 14.48367228168265 763057.2607211508 4.866942592560074 0.18623754301461234
0.32631243674840954 14.329736649888432 643313.2797277097 5.100076558241115 0.18867156770074378
0.33856245603226537 14.191241223264882 544051.1944689011 5.347074580581406 0.19122680895760488
0.35110280373876374 14.067010945262403 461414.799772136 5.5924970507281175 0.19360293904199363
0.36392430476957227 13.9550932194078 392368.5435833757 5.854907500493907 0.19614354326528968
0.37702048234585095 13.854258291850838 334514.1483501939 6.125205888087177 0.19866896241891685
0.39040603399003426 13.763483940336757 285878.68367956084 6.4009826704835815 0.2011283584132959
0.4040783689359291 13.68189203397369 244880.90926243353 6.695599071430362 0.20375576739990658
0.4180259861591772 13.608223082822327 210218.45670935535 6.992100366066134 0.20625700143173603
0.4322710002340605 13.542063388176878 180822.12698276032 7.301252495844324 0.20880584751376866
0.4467910550943559 13.48259533742624 155859.67767132833 7.631265838034607 0.21152668665165106
0.4615961261540171 13.429161726780185 134603.08126893756 7.957168657416277 0.2140346230851901
0.47668713727269935 13.381447769479205 116464.72901230582 8.303217177635863 0.21668809447608198
0.492053616306836 13.338668362305128 100955.83137372005 8.667718260717846 0.21945344878997464
0.5076967945123 13.30041952495651 87651.33727862709 9.03107630626868 0.2220481046987122
0.523625468771537 13.266409434995497 76227.21641524654 9.418091926288827 0.22481169388451575
0.5398298450263399 13.236410945520284 66403.36102243382 9.819610115530729 0.22760572953404007
0.5563111783270156 13.209697556210546 57935.20128837456 10.225796641275934 0.23028760598501094
0.5730761900803135 13.186288547202901 50614.758014369276 10.658195805889221 0.23314255331461112
0.5901003447147439 13.165771510340317 44285.36865154433 11.10141478075347 0.235968756492841
0.6074217356769841 13.148057375804553 38799.231961413025 11.555083208019166 0.2387551802900462
0.624996082135161 13.132688390512222 34039.52733649588 12.037794469641845 0.24171998468401967
0.6428424878563944 13.119548478101905 29900.213318017708 12.527551015177794 0.24460478180259226
0.6609536209834722 13.108467197421813 26300.4088462866 13.034190563746602 0.24751403573687228
0.6793228807148616 13.099270560063301 23160.75803673498 13.573042128768643 0.25060825931251246
0.6979576868495743 13.09177441964169 20419.463248890923 14.114528590247943 0.2535654442132353
0.7168372947179447 13.085776473962111 18024.7555821812 14.680510146453377 0.2566090607492227
0.7359736422933854 13.081202587247871 15928.148722997199 15.282276141442345 0.25984511131140486
0.7553418324026441 13.077843378957015 14092.064147713372 15.881038725435882 0.2628580187222639
0.7749643092809967 13.075703553712211 12480.034524256227 16.513398614213934 0.26602072757968986
0.7948203464177543 13.074527979876354 11064.225535932574 17.183043807770627 0.2693591514485961
0.8149083337565796 13.074227297769998 9819.13766717695 17.848666003347454 0.2724808100739325
0.8352288280569399 13.074773063629062 8722.223565041644 18.555435459159657 0.2757954425824661
0.8557658512329817 13.076017313671 7755.839406316457 19.296483088737517 0.27923204924505524
0.8765087935075042 13.0778486282843 6903.405741412641 20.041296029021318 0.28252124941778206
0.8974633541419392 13.080215568244881 6150.205635035839 20.832044798117476 0.28601330876211034
0.9186116800848785 13.08299343708778 5484.485769699233 21.652133534992 0.28956216356397696
0.9399521509996973 13.086056512815771 4894.97358093841 22.486628072474996 0.2930396259239442
0.9614846333000756 13.089582891892501 4373.026115187783 23.372539991109157 0.296731352128155
0.9831713225061437 13.093143652808477 3910.1284879951077 24.280059284304386 0.3003830428166079
1.0050281538012147 13.096897510619211 3499.2892681321546 25.216070736756677 0.30404084664663983
1.027046369582529 13.100722372979805 3134.2582230563403 26.209763860928124 0.30792406250468085
1.0492054514367846 13.104603276984452 2809.843238264813 27.21515246532334 0.3116933425931286
1.0715302025208493 13.108468309076446 2520.892239575096 28.266446860725125 0.31558302403859495
1.0939441147919706 13.112081529829377 2263.602825446056 29.38136575191948 0.3197039765040637
1.1164960317089443 13.1156836258848 2034.2371935745473 30.480780284271216 0.32349022763075896
1.139156532162899 13.118937548141073 1829.3877026632695 31.6466601434405 0.3275053773313259
1.161904055526346 13.121941696839794 1646.5553954621316 32.88402467918466 0.3317667116412996
1.184710433122091 13.124734076568261 1483.4308959432894 34.19385953541614 0.34124036695484766
1.2065395106246277 13.12614428025523 1343.079683619713 35.53949388464294 0.4017635554309681
1.2267007318887435 13.12479785780652 1224.2005039506953 36.9710419510494 0.4569942085739749
1.2456176189797983 13.12054737848977 1121.0283580111109 38.494568946903435 0.5100295938017723
1.2633065870193212 13.113129136602318 1030.758211382649 40.116168557779325 0.5664789775554482
1.2799577610373185 13.10235120634186 950.5771139546841 41.82221150425321 0.6144700243710214
1.2957821427443152 13.088604934904318 878.5219740954454 43.640201156269406 0.6655047071169874
1.310799030084219 13.071837385481842 813.5657854386003 45.55741020627096 0.7153010456070844
1.3252012772757134 13.052216734009356 754.3063584028937 47.57221286459515 0.7619968791412468
1.3390338764013805 13.029855439649449 700.030843874239 49.722995063870414 0.8118442262899408
1.3523860675277972 13.00483005310685 649.9976244680801 51.94588653623477 0.856010698238059
1.3653667798501246 12.977486677338907 603.7780266776776 54.313624522402016 0.9024347717099267
1.3779707154296408 12.947721675682889 560.9558141956376 56.79400475868497 0.9478840736006388
1.390300902558169 12.91584343906734 521.1758055603234 59.38970535803523 0.9919379281942724
1.402363160091331 12.881892544174196 484.1154501130204 62.150795030773125 1.038144142480373
1.4142522934821837 12.846054116105417 449.58831224112924 64.98995457402228 1.0802971004089548
1.4259521351905886 12.808384275555778 417.39212201717265 68.02500302273818 1.125358417894311
1.437480589347365 12.768961820066716 387.37513096511475 71.15685590064379 1.1680208495984556
1.4489134844107623 12.72802619912629 359.34069022718245 74.47353501276967 1.212112775281699
1.4602182437983238 12.685642104012814 333.22584938453156 77.9373149592726 1.2560012840100192
1.4714054986306204 12.641805746264529 308.87274037325056 81.56341693983956 1.299920065164795
1.4824892873815572 12.596608484151169 286.17602174064814 85.38541864004425 1.3452160433776934
1.4934744453683224 12.550284686042861 265.06611729878165 89.3549640745126 1.3901847691272808
1.5043694614260896 12.502876125088077 245.4547174810368 93.56444527570494 1.4373408333825122
1.515130716410307 12.454305924877223 227.22455717715826 97.91741365876698 1.4839542853664969
1.5257849262359435 12.404766486988086 210.28686042191333 102.54873665882322 1.533220384517972
1.536299287719234 12.354225191736838 194.59818173906345 107.3307314787256 1.5818807525775893
1.546648749917245 12.302651817836717 180.0451846703122 112.42404533137798 1.6334888442378594
1.5568881804589463 12.250463790401398 166.58632893875912 117.68839720745841 1.6850718898406356
1.566897849090463 12.197247994228041 154.13598283697465 123.28845557932948 1.739641907789621
1.576753321461041 12.143312869012936 142.6260375943722 129.09722497598247 1.7945836925772316
1.5863991463078426 12.088694650875093 131.99877729719634 135.25792472472892 1.8524226025004378
1.595761196786835 12.03284679464452 122.16693297479219 141.68222363518692 1.9114447312940916
1.6049099606605295 11.976613688138801 113.11161469269581 148.46630763581877 1.9732154508485251
1.613769255779922 11.919623006099668 104.7677137000402 155.58880558199405 2.037229936252528
1.6223526518676066 11.861911241934186 97.0740608879289 163.06915697901388 2.1037681219156874
1.6306064370160396 11.803443758029363 89.98226186542408 170.98553702603175 2.1737327290776993
1.6385193589027591 11.744265133053736 83.45498423604765 179.2491079400177 2.246510086105009
1.6460895876791435 11.684519751658552 77.44057747985039 188.02545276778446 2.3240488379400475
1.6532389483101924 11.623859750980715 71.90713259459848 197.21860941511375 2.4066106601443833
1.6599925473824173 11.562632271478261 66.81927546236804 206.93637960553187 2.4989257020853697
1.6663226665859872 11.500724676849241 62.13788532219169 217.23088658692956 2.601341075148051
1.6721930303742736 11.4381923880991 57.83406269464951 228.0232577839902 2.714209041036196
1.6775685890936143 11.374791559022505 53.877396496693926 239.47929806470066 2.8143312566027143
1.682473375789168 11.310670293127204 50.22508581317157 251.59055553935636 2.8846368451306628
1.6869215786468084 11.24584629266218 46.86030382511669 264.33458700894573 2.957002740023787
1.6908674035739129 11.180250149228623 43.7566686425378 277.8599514828575 3.0331976553052815
1.6943161531772335 11.114006527761687 40.89559725137543 292.19524140381606 3.1134149076370203
1.6972023503513853 11.047179938297447 38.27943096219381 307.3067472384808 3.1970251235176255
1.699575581481429 10.97953607423544 35.76074418412288 323.3647043781073 3.2852716888616893
1.7014046211650453 10.911341595482977 33.60081190912727 340.4298772445254 3.378383306854331
1.7025934992997056 10.842528936852078 31.545743071653142 358.5382519267791 3.476319366073858
1.703172456767079 10.773171189287883 29.65745251137738 377.74926498155156 3.5791799312924533
