M[M_sun], R[km], Lambda[1], P_c[MeV/fm^3], rho_c[fm^-3]
0.23848912294887037 16.21570186450063 2784644.0411725277 3.4469561053153734 0.1694538074003404
0.24848224120036555 15.872418894160155 2285038.646890915 3.632728908316626 0.1719346175038684
0.2587655994291768 15.568956677711162 1883926.9458977312 3.8173379325031918 0.17422202979018372
0.26933878497158087 15.299254190725641 1559854.7965820264 4.013553016832487 0.17662766331745502
0.2801916123552207 15.05933019189292 1296793.929074559 4.217765102560363 0.17906016099986416
0.2913356299919335 14.845048183560527 1061430.2614408971 4.424778137986292 0.18139359131115254
0.3027574138649842 14.653464390242133 906323.5591025542 4.646809173085575 0.18389630301856472
0.3144656140771464 14.481917299862538 761645.1560502286 4.869408046629047 0.18626328347696355
0.32646495128024505 14.327910800751821 631340.5140617952 5.103093718676543 0.18870306822860722
0.33874118810089926 14.189597557830488 542860.865506321 5.350415062196076 0.1912591508163443
0.35129869788039214 14.065205822216107 460253.6135983705 5.596463894269026 0.19364134520860088
0.3641456876047491 13.953253759918804 391293.585532553 5.859575617582025 0.19618873901873432
0.37727252588698307 13.852465012616136 328877.6458249943 6.130213586037116 0.19871362140787202
0.3906830274759955 13.76176452805002 284978.4427737245 6.406775834065991 0.20118002223787734
0.404383442978046 13.680047394544502 244027.3636063173 6.702267655157566 0.2038152382805382
0.41835855942494576 13.606648573998944 209468.4440752302 6.9991212931240865 0.20631488640389115
0.432629921285203 13.540462265189023 180149.67131638128 7.309243532401382 0.2088717306834381
0.447181041512037 13.481083527871924 155250.77863705874 7.6403340620807905 0.21160145083764484
0.46201862423044276 13.427738741100125 134050.67214333895 7.96660391667447 0.21410697187168795
0.4771354236137895 13.380031227667116 115967.95026900985 8.313836910908858 0.2167695257112189
0.49254110819687447 13.337401645087647 100504.46193166822 8.678735456906745 0.21953212004423547
0.5082154582785816 13.299207577352506 87248.39961030711 9.04339276446304 0.22213605368297168
0.5241764937574792 13.265319831096843 75866.12191454782 9.43184197106333 0.22490987977954796
0.5404135956659701 13.2353155148333 66079.97415681231 9.833778997469983 0.22769928062055078
0.5569341890246097 13.208762013693146 57637.954180419234 10.241529703309832 0.23039148468579493
0.573735373355252 13.1854250187581 50347.912330877574 10.6756508391932 0.23325780145752517
0.5908050669420227 13.16504432726402 44046.60035603053 11.11931084579525 0.23607867382125042
0.6081423988750253 13.147266607956878 38585.76045009129 11.574849932595537 0.23887658717763666
0.6257703890716056 13.132030208749155 33845.90653416507 12.059616521787198 0.24185401535873102
0.6436545811573857 13.119005672107713 29726.65795317353 12.549850258413068 0.24473282976350835
0.661806260453308 13.107924420178708 26141.452829988688 13.058716405478728 0.24765486939613215
0.6802212450736402 13.098819789858938 23018.47048222607 13.600010264348677 0.2507631172480172
0.6988892657616693 13.091392252865752 20291.87605901522 14.14202498282577 0.25371330852826873
0.7178207283911245 13.085532310917475 17909.452072735494 14.71064768562052 0.2567711280667128
0.736993533296502 13.08092052481575 15824.079894179738 15.31530653797053 0.2600227352285823
0.7564089018340203 13.07772115685538 13998.075516938323 15.914649091757324 0.26302611888983074
0.7760776047308484 13.075601107570895 12394.942766646607 16.5501318598655 0.266204446635003
0.7959766868971447 13.074551148601032 10988.085098204581 17.220465701568028 0.26953465397589366
0.8161095316357027 13.074271819576436 9749.916251161929 17.889461035068795 0.27267213206332835
0.836472317969897 13.074853917475588 8660.093898493622 18.59991378616174 0.27600403862095346
0.8570477661136814 13.076125695856776 7699.847382335077 19.341761496395694 0.27943200515107547
0.8778442620580393 13.077924201792769 6852.063925418439 20.090551829163864 0.2827387700562862
0.898842533145761 13.080322572386445 6103.954252239027 20.88563981941903 0.28624999202013107
0.9200379498701152 13.08319069992667 5442.555899068093 21.706677579674782 0.28978945667834155
0.9414294349666488 13.086407782661162 4857.351688067128 22.545859299150962 0.293286451220035
0.9629971549487468 13.08977144662248 4314.28054375907 23.436881092761123 0.2969994710302492
0.984730394525668 13.093415919713566 3879.048413993834 24.345515759228043 0.3006388377046393
1.0066424256559137 13.097230216979735 3471.052842643961 25.287047579615116 0.30431821437218526
1.028701413045478 13.100997833623435 3108.5036035855683 26.286755393244974 0.3082249348081669
1.0509181041210653 13.104836328830158 2786.3653849557986 27.29347359301165 0.31198312273320133
1.0732806266288002 13.108849810464454 2499.748035863426 28.35126926122142 0.3158968582213067
1.0957409260636184 13.112403050800577 2244.309337838581 29.468086688440152 0.32000992250835975
1.1183261154638715 13.115879772210246 2016.707327920186 30.590180695795546 0.32395379671198177
1.1410120467399225 13.119125667656466 1813.5326075796434 31.780916827629603 0.32813893047339365
1.1637885443879274 13.12216031509076 1632.3181473803722 33.016936247196575 0.3324036548008268
1.1866412570940754 13.124843800150886 1470.3268147708463 34.282519546237936 0.33663894144543266
1.2095713058765494 13.12722734264756 1325.4622879023561 35.62585368483515 0.34113442202008426
1.232527512538433 13.129076845456805 1195.8669254549573 36.99436845702992 0.3455378453423116
1.2555384261857123 13.130483184759939 1079.6545422607232 38.424635413051185 0.35007082620638097
1.2785691146496658 13.131369757633468 975.5969013761551 39.934342920090735 0.3548336223909852
1.30161195621258 13.131759088565717 878.5180697741775 41.46075428513183 0.3594607640272404
1.3246458202412326 13.131462320898791 798.3546989305634 43.08076953071298 0.3643716551316151
1.3476688218764945 13.130606043137094 723.0414350641428 44.753319233340896 0.3693303279622718
1.3706421677992013 13.129053795434908 655.3635690550417 46.48617755643814 0.3743668417171221
1.3935649391868927 13.126776704811492 594.468899534379 48.32351332019222 0.37970099864577195
1.4164425964583875 13.123858477113139 539.6243726770842 50.18194910635466 0.3848888169584647
1.4391904342569928 13.119918098248853 490.2127787009533 52.154801193004396 0.39039602805478674
1.4618465514136532 13.115223424540211 445.66491723127973 54.192902496822796 0.39594606870889787
1.4843858968661887 13.10971322302217 405.5072803020862 56.313361461492335 0.40161268727877103
1.506796811770305 13.103445943879958 369.2606890784334 58.54766865108522 0.40754750370542825
1.529033767712755 13.095980225635468 336.45731332727286 60.832407380885265 0.41343992063371104
1.5511115134618285 13.087691137420515 306.81925990284145 63.25914317403917 0.41969855269589923
1.57298275313012 13.078426462753344 280.02814580885735 65.74489415035042 0.4259325863399247
1.5946385223587194 13.068111093016578 255.76134113031353 68.36647310873485 0.43247020913488776
1.6160489216467377 13.056692486516665 233.7942772638382 71.08817472991345 0.4391358157014622
1.6372514347629739 13.044290344969973 213.8561641430164 73.92770013941633 0.44598953788811724
1.6581435599083725 13.030744525259204 195.79085606071368 76.90453640653384 0.45309114286371877
1.6787584889198064 13.016055921111759 179.39442450338913 79.98773348050061 0.4602829245593141
1.6990458336364498 13.000186619400868 164.4960060957675 83.24228755014356 0.46783452586310553
1.7190273423993434 12.983155494090534 150.95182932564225 86.59844507930549 0.4754451277112546
1.7386470068979112 12.964884937169295 138.6417148461414 90.1553772925408 0.4834908134640424
1.7578901218380227 12.94539519164306 127.43828226857565 93.81817292519901 0.49157778510117955
1.776745030482774 12.924654649298171 117.23865208685027 97.70619443445567 0.5001478586704197
1.795190710455659 12.90266588591479 107.95011612406054 101.71386672168454 0.5087659213971935
1.8131898064098773 12.87929461894473 99.47549157569958 105.96626858139938 0.5178882215676069
1.8307590218344973 12.85459356367326 91.73657117196224 110.36219319349124 0.5270901713832327
1.8478421862379906 12.828618472701747 84.68487377965498 115.01761235150434 0.5367976933310428
1.864425142198312 12.801164804169373 78.23711178345182 119.85163505977997 0.5466902640339828
1.8804890367904359 12.772497098470296 72.34954890588244 124.95417344814744 0.5570626300403599
1.8960485248180363 12.742179808701346 66.95626269329655 130.28388956107094 0.5677373438763292
1.911044393520889 12.71067510969443 62.02393666855357 135.88511360290317 0.5788327481582418
1.925471501954671 12.677734545352404 57.51276084278226 141.77674282517597 0.5903797439609978
1.939278122867329 12.643128994920215 53.37616078774493 147.93674941760094 0.6022558123674073
1.9525072514092836 12.607244509645174 49.58105020874297 154.4566882905615 0.6147464861525976
1.9651022703417502 12.569816715463967 46.10385668338284 161.25572365465783 0.6275464397364351
1.9770611175057535 12.530949471025309 42.91204420391716 168.4426213284152 0.6409772424495076
1.9883547989605879 12.490613955058715 39.977918629400904 176.01280798803242 0.6549773761362149
1.9989457927792769 12.448713860123751 37.2873970443756 183.95555316191945 0.669448175952414
2.008858669863302 12.405322791665908 34.81010892264813 192.36125832592558 0.684638561423049
2.0180569019403762 12.360468846307212 32.53331541176039 201.21058890668408 0.7004210467510366
2.026516312709375 12.314074484225983 30.437661365732495 210.53427177972063 0.7168521170962759
2.034247727663758 12.266213493647097 28.508184512613607 220.40663935536813 0.7341061067370035
2.041193203515521 12.216738835226568 26.73288518631258 230.83556431373407 0.7521378667857439
2.0473955153287418 12.165899951859611 25.096157070634224 241.83367038317948 0.7708891107548654
2.0527866924794007 12.11342303556471 23.585607763735382 253.49273571129922 0.7905768936063433
2.057379843548671 12.05950831911524 22.194474430250093 265.8550172690122 0.8112475368908687
2.0611958228125955 12.004221487832934 20.91056701966085 278.93644792324 0.8328641584261964
2.064158519675387 11.947276520759642 19.725591897885135 292.79812033086495 0.855511743050036
2.066327945807939 11.88900055376556 18.63155744729579 307.5242705097508 0.8793213544632994
2.067614399070425 11.829201044180511 17.622923642769866 323.1772835065862 0.9043582642994004
2.0680964339319203 11.768109249853989 16.690719676007117 339.82580960323116 0.930704892415992
