M[M_sun], R[km], Lambda[1], P_c[MeV/fm^3], rho_c[fm^-3]
0.23848912294887037 16.21570186450063 2784644.0411725277 3.4469561053153734 0.1694538074003404
0.24849613223363937 15.872102083052717 2284472.8907378153 3.6330032053268706 0.1719382804662794
0.2587935113084197 15.568269159490557 1882986.0601011752 3.8178766559734822 0.17422863464039945
0.2693829902118452 15.29822149163886 1558645.8948311843 4.014421230228455 0.1766383077756082
0.2802542450326209 15.058000438772616 1295490.3757800967 4.218903217292514 0.17907298971573832
0.29141324163104326 14.843711062806301 1080853.191844795 4.426303265023971 0.18141078239117783
0.30286001269272145 14.652003598096401 904966.0750596655 4.648773221272 0.18391844157405038
0.31458431512308754 14.480254712586637 760303.0715473095 4.871657867160758 0.18628677262706467
0.3266054357670385 14.326182826286104 640722.5991400363 5.105847304629752 0.18873181691894034
0.338897613187537 14.187860744968699 541672.7723955452 5.353463919254725 0.1912886692258678
0.3514815938200818 14.06349087483331 459180.8081545769 5.600084841034827 0.19367640247348397
0.364351475458424 13.951553062430687 390278.74805543514 5.863837184463378 0.19622999863635354
0.3774961373420655 13.850944817740304 332659.3930627264 6.134785395178231 0.19875439311095386
0.39093314231728543 13.76025771252589 284149.94947272755 6.412065351450305 0.2012271945116059
0.40465837910889796 13.678536882232498 243289.2006294905 6.708357210462163 0.20386954534654111
0.41865905907247913 13.605144906956781 208789.89339982593 7.005532854603542 0.2063677473800337
0.4329568324577283 13.539025973850528 179533.63746352715 7.316541869899334 0.20893190280306848
0.44753715513151787 13.47972521719032 154701.24011179715 7.6484735692934835 0.2116675747177447
0.46239840929485415 13.426540946993498 133559.40850446257 7.9752225919436235 0.21417305915979304
0.47755060289556617 13.378867794260055 115518.78519978718 8.32353872516147 0.21684391841933603
0.4929800382858991 13.336169946336996 100095.75116011909 8.688800627447721 0.21960399310315454
0.5086914644585026 13.298100851188442 86876.48401717286 9.05464628339027 0.22221641246334317
0.5246837007727319 13.264314860276237 74795.74315007827 9.444406913485347 0.22499960313230546
0.5409507885290238 13.234420254045398 65783.77663379688 9.846726884515958 0.22778476999835504
0.5575105742098677 13.207959314530875 57371.40157168322 10.25590875476802 0.2304864234320329
0.5743404765530913 13.184591114052044 50107.443601707346 10.69160569095988 0.23336314454135418
0.591439998516973 13.164335872785843 43445.066370434455 11.135668951184362 0.2361791450275191
0.6088304283794556 13.146708962167677 38390.47584467278 11.59292021937884 0.238987574573032
0.626478443267122 13.131484757288803 33670.282203029055 12.079568330453773 0.24197655902966908
0.6443949231180937 13.11851589731461 29572.827145822834 12.570238380117827 0.24484990357555028
0.6625913693979143 13.107558991067318 25999.983196693087 13.081143197295491 0.24778364977364217
0.6810438635427816 13.09850223458058 22889.70486770629 13.624673598025693 0.2509047404212081
0.6997401043659431 13.091090276620005 20177.42835728507 14.167171306052648 0.2538485351347782
0.7187117755926483 13.085219440683009 17805.094065627483 14.738213067086186 0.25691936337567267
0.7379262778831496 13.08079620559489 15730.973774703823 15.344501250583681 0.26017455973922327
0.7573841604887843 13.077651967226709 13913.566742617402 15.945394749275545 0.26317989139356773
0.7770942578299562 13.075540932941374 12318.683878461015 16.583738773997812 0.2663725295366595
0.7970356414157557 13.074578412342898 10919.081428402204 17.25470223452414 0.2696952176847277
0.8172187124560265 13.07444264728801 9687.622346221968 17.92678862585875 0.2728471923250306
0.8376081194859443 13.074876952724015 8603.168656809206 18.640617245166695 0.27619493114937
0.8582333050113421 13.076249795069414 7648.550472130659 19.383196469076488 0.2796149879000684
0.8790644253561191 13.078113929780965 6805.915875682726 20.1356328144822 0.28293785411709654
0.9001070011701267 13.08053359955675 6062.217217431002 20.934699207652795 0.2864666452756329
0.9213415961583593 13.08337926942786 5404.630220339297 21.756604733567812 0.28999751052483763
0.9427762444840324 13.086547941383468 4822.806697977901 22.6000845831581 0.2935124160114429
0.964388515438318 13.09003407299293 4307.559552774593 23.495792964514305 0.29724496552706736
0.9861581458034275 13.093626099738769 3850.8376531611125 24.40544756325579 0.30087304293977724
1.0081112487520787 13.097412459781722 3445.4986252242416 25.352043285026024 0.3045722086364272
1.030227431275199 13.101351989253887 3085.3793355737525 26.357269467933985 0.3085004940994478
1.0524733368270083 13.105182191826396 2765.311135868068 27.365203632784848 0.3122485165239499
1.0748608983427381 13.108969758069811 2480.562475168691 28.42896507926406 0.3161843247798203
1.09737212084949 13.112636129094914 2226.9093216581177 29.547313423748122 0.320288384273212
1.120002502208111 13.116160617517693 2000.8971317715007 30.675873443042516 0.3242549848594003
1.1427278983292768 13.11945411708502 1799.2221173895166 31.873644806900685 0.3284648456667767
1.1655363345839531 13.122390539844375 1619.2830822199899 33.111551677114456 0.33272028624421607
1.188446000064068 13.125124326581162 1458.3632433651173 34.38477272276752 0.3369811326810884
1.211395934515967 13.127384255155397 1314.5071928094826 35.73641557510088 0.34150441844592166
1.2343945703928445 13.129209046740216 1185.9220490069931 37.10723365586287 0.34589555184204945
1.2574370664252406 13.130576582865858 1070.6824444268766 38.546533882996876 0.3504571620783641
1.2805168525028499 13.131478383168872 967.279705059582 40.05905627766018 0.3552116766839649
1.3035719822388085 13.131708869050728 874.6947709571162 41.5953136732892 0.35986866543688123
1.326658099474513 13.13146400226138 791.4662674825959 43.22603112813224 0.3648119990657351
1.3496850357612955 13.130454763934823 716.8104177108437 44.9020850275221 0.36976271239823977
1.3726950775021463 13.128843518341904 649.6277476846419 46.6466360722851 0.37483321078571485
1.3956518032932368 13.126558909682945 589.2342017485752 48.488239522777846 0.38016083138076173
1.4185276592436606 13.123381502479749 534.8360950227506 50.35948969535392 0.38538442101738063
1.441318441536022 13.119482562103059 485.83794765446055 52.34626576977708 0.3909305008867291
1.4640065322204059 13.114853215534486 441.7009150530115 54.38963081324101 0.3964717965582029
1.4865579634996093 13.10908380761603 401.8115749551276 56.525384883062735 0.40217928907486195
1.5089792055986149 13.102628625874084 365.8516596710065 58.76599419400077 0.4081105725185808
1.5312367641239555 13.095194882967359 333.36641144538606 61.06758346007487 0.4140464475385468
1.5533312012918887 13.086786198901915 303.98254585299884 63.512630888785196 0.4203523059159061
1.5752082222017658 13.077396084054984 277.424670510752 66.00623579337751 0.42658431307020783
1.5968674816190178 13.066944137448042 253.3826432459893 68.64804921453474 0.43317239602188073
1.6183179127975102 13.055500128581818 231.5910760391559 71.37912250416831 0.43983807221548915
1.6394853090237569 13.042895953121326 211.8470150420376 74.24107969851633 0.4467459376829068
1.6604035663816885 13.029269658703688 193.94465599302592 77.22899710745398 0.4538479710760702
1.6809880893457487 13.014326998572743 177.68670102552642 80.33713722870452 0.4610979342458251
1.7012951321270677 12.998380720111486 162.93257963584168 83.60476349129634 0.4686564956436289
1.7212534861609552 12.981158961543848 149.51009145233007 86.98874221525305 0.4763301863172228
1.7408629296775815 12.962785168024848 137.3193344196878 90.5610957362644 0.48438658649538535
1.7600868870247774 12.943098013790806 126.217225609014 94.25502409567724 0.4925422951038148
1.7789193336792546 12.92216232119989 116.11368439248537 98.16117558789341 0.5011262460830634
1.797340855638963 12.8999313989882 106.9035393299293 102.20379776297719 0.5098194647368295
1.815316175857058 12.876374674979347 98.50906731631912 106.47744221993399 0.5189582567897596
1.8328446973192785 12.851515374420913 90.85415406279039 110.91272313579817 0.5282425908053431
1.8498785725822309 12.825250809406093 83.86399651538586 115.59303092069433 0.5379752568682913
1.8664409680666596 12.797682908937949 77.47909934326879 120.4715119919352 0.5479588092495378
1.8824665792644544 12.768655496640157 71.64439904297397 125.6032369432612 0.5583626180556527
1.8979696732045404 12.73834104962441 66.31045490769273 130.98333967893143 0.5691382496079855
1.9129210722600112 12.706513943320207 61.42511770620372 136.61876260461852 0.5802706258019126
1.927285126232869 12.67323780743855 56.95195897988459 142.56768327331963 0.5919299070297154
1.9410496119963014 12.638534963946642 52.860357200564835 148.76774233560457 0.6038496124517672
1.9542177081954064 12.60235349196634 49.103417174268564 155.33142868554322 0.6163932839487674
1.966735081434926 12.564691784045992 45.661281727322596 162.1990401199416 0.6293223397463488
1.9786204276229966 12.525560188953934 42.500814992869 169.43722788947662 0.6428166455509947
1.989850168104763 12.48506369067543 39.60107938464136 177.0860991515947 0.6569622967795579
2.000376495218876 12.442859293685757 36.93170486389275 185.08903129502727 0.6715062864741359
2.01018155481919 12.399241323359325 34.485210046303465 193.56027854066213 0.6867769739023146
2.0192791581528886 12.35399465035191 32.22660691156747 202.5053720722454 0.7027302492525037
2.0276512350042433 12.307321993295307 30.15708905541145 211.9060954443131 0.7192604258028492
2.035286057817385 12.2591263261539 28.243089194207002 221.86235555371226 0.7366230608135164
2.042143076102404 12.209462857960764 26.486943062878947 232.4059553288107 0.7548481258431199
2.0482662742389217 12.158391479012096 24.865596577522265 243.50602483348268 0.7737345735578564
2.053522710484408 12.105533881789054 23.37262610853689 255.27272017115226 0.793559256373703
2.0579983223091047 12.051294338211301 21.99424130119633 267.75219289682923 0.814382555423365
2.0616691794191846 11.995611998468615 20.726350031395697 280.99005773662526 0.836257679157267
2.0645610293551453 11.938539440151997 19.55305720012613 294.99046932797256 0.859086059324906
2.0665637099551137 11.87988889375966 18.471298458034536 309.8678491816949 0.8830871524813996
2.0677659472584122 11.819891901941668 17.473519923832207 325.661168537974 0.9082687616953098
2.0680964119554366 11.758404208224848 16.550065925388772 342.49279516686204 0.9348911024005374
