M[M_sun], R[km], Lambda[1], P_c[MeV/fm^3], rho_c[fm^-3]
0.23848912294887037 16.21570186450063 2784644.0411725277 3.4469561053153734 0.1694538074003404
0.24847357689845254 15.87293558475668 2285599.9098027945 3.6325734467207447 0.1719325414696398
0.2587476740506354 15.569528544132329 1884645.7680393634 3.817032626623659 0.17421828668316222
0.2693117295036415 15.2999258171152 1560512.2452614363 4.013061022928638 0.17662163138043876
0.2801555874204556 15.060079211506729 1297560.673282502 4.217120205158616 0.1790528917806007
0.29128921057592294 14.845960042382709 1083024.5085094708 4.423914016717184 0.18138385102229673
0.30269846178679605 14.654368508940504 907111.0107611779 4.645696458355211 0.18388376060898018
0.31439689009631583 14.482847681777441 762372.3066349975 4.868133499982449 0.18624997663000806
0.32638684691687875 14.328822172480407 642683.8606829629 5.101533915969807 0.188686783178582
0.33864632628502245 14.190360353933285 543434.5682167554 5.348688081992381 0.19124243054776136
0.35119799058147844 14.066164224003582 460874.42285782995 5.594413035543976 0.19362148921451644
0.36403208658254765 13.954154730181884 391842.1258217128 5.857162129443045 0.1961653721209441
0.3771412695206092 13.85345947515 334041.4586201522 6.127624495661651 0.1986905317248205
0.39053947146703716 13.762667727189955 285441.55696397554 6.403780553023314 0.20115331011898763
0.40422712668708094 13.680963406068502 244453.8364730342 6.6988196456541065 0.20378448869862018
0.4181861720141771 13.607452593855037 209852.0011025742 6.99549106685446 0.20628495651788042
0.4324450682003736 13.541291849164647 180495.8020277008 7.305111579616653 0.20883766424606934
0.4469790768462588 13.481822909468276 155563.71089548187 7.6356449799949315 0.21156279107323872
0.46179799205281646 13.428602378163726 134350.04701883448 7.961725007887293 0.21406956080321313
0.47690378410880696 13.380741692668337 116218.6173779011 8.30834535046845 0.2167274168806112
0.4922860362521342 13.338074790163459 100738.4392365116 8.67303832933034 0.21949143817160335
0.5079523292430832 13.299936613179439 87458.78227631756 9.037023578315294 0.22209057279525102
0.5238939671451963 13.265863474630057 76053.85334459123 9.424731214346135 0.22485910350760965
0.5401148448164019 13.235849834614095 66247.03201996812 9.826451612017266 0.2276509010184535
0.5566100468387029 13.209198406560459 57791.36723600083 10.233393154049313 0.23033776252006352
0.5733934265324 13.185909508191337 50486.73056251776 10.666623461856362 0.23319819753381235
0.590443298536613 13.165451028687736 44169.610693369046 11.110055358036186 0.23602182677217973
0.6077747853319064 13.14763658083947 38694.95930827611 11.564626650959548 0.23881379595496388
0.6253699883891275 13.132377630506657 33944.86050268082 12.048329862227472 0.2417846928868594
0.6432275352020795 13.119212910970163 29817.552160989297 12.538316786473978 0.24466660161627923
0.6613676761786632 13.108267790088531 26224.426355623364 13.046030892670297 0.24758202593543008
0.6797542459478308 13.098957427979535 23090.7345287245 13.586061055629221 0.25068301732202086
0.6984047068341687 13.091564908831838 20358.40001339978 14.127802551595597 0.25363682612985927
0.7173117996768281 13.08569563542802 17968.52679258382 14.695058608447226 0.2566872964072794
0.7364653664868189 13.081159278752056 15878.47071400903 15.298220503278834 0.25993085354595163
0.755855892359437 13.077776258380997 14046.579564650334 15.897263095951757 0.262939163907541
0.7754989663604486 13.075597389313495 12438.405394850113 16.53112980958845 0.266109409056265
0.7953777604888339 13.07450700266 10953.436448320694 17.20110747456207 0.2694438670749971
0.8154882726615583 13.074218842308255 9785.080688036314 17.868357175213013 0.2725731584314626
0.8358245157800824 13.074761842977265 8692.016615777493 18.57690369985202 0.2758961251005273
0.8563820619519095 13.076030545539727 7728.418378510464 19.318337597164437 0.2793285618712527
0.8771475341081497 13.077905289657973 6878.992435632944 20.065069413909434 0.2826262360761107
0.8981360066416607 13.08024237288165 6127.680065594979 20.857911521446137 0.2861275399015533
0.9193064471961526 13.083059254600705 5464.134596321549 21.6784584229891 0.2896718632720378
0.9406623497813463 13.086227373080881 4876.6941139842975 22.515214063420746 0.2931587479829526
0.9622176739190132 13.089702588486412 4356.352187017731 23.40359087175205 0.2968607457476809
0.9839220910481783 13.09326903616518 3895.2098353620013 24.311648630578222 0.3005064896307317
1.005810011608486 13.097041734535926 3485.797211061638 25.25032286803894 0.30417469925780477
1.027845276059133 13.100933900524812 3121.8958136583014 26.246917071174316 0.3080692521328424
1.0500321646644173 13.104737313111896 2798.6531072831926 27.2529475403973 0.3118331804947556
1.0723713048750871 13.108548846175744 2510.532444296917 28.307377570609034 0.31573446346743766
1.094823826384977 13.112289271604208 2254.1498696385047 29.42332941849815 0.31985261212153676
1.117373002761433 13.115697573115623 2025.6527130448137 30.541776033004805 0.32378366666970004
1.1400431779106606 13.119022367805341 1821.8376037157614 31.728544244025624 0.3279548542016207
1.162789298586969 13.122046576678125 1639.8664658765358 32.963496747863836 0.3322248190039339
1.1856309719437348 13.12480355770369 1477.185676961389 34.22477285626988 0.3364456915937815
1.208535184394994 13.127150584375256 1331.6581798923082 35.56342210179369 0.34092549412884443
1.2314722629318364 13.129023061566151 1201.5190419583625 36.930635170604006 0.3453358538423635
1.25445779706229 13.130422362845238 1084.8410277713479 38.355809360312584 0.3498526940746834
1.277479737852393 13.131372881383152 980.24778293935 39.863926507023265 0.3546201630809705
1.3004913435948433 13.131717895609956 886.5127276360162 41.38478763955048 0.3592304798215626
1.323512315783946 13.13150638649163 802.2645573751266 42.99877092407766 0.36412308572525004
1.3465133678020735 13.130691336425791 726.6631402023801 44.669341437523606 0.3690862483868684
1.3694775272197326 13.129157523298122 658.6099942352013 46.39561045843171 0.37410361048305846
1.3923863687441047 13.126885983422936 597.4446060624153 48.22846043002053 0.3794307477160578
1.4152215838527267 13.123853415627492 542.3453911048358 50.08175198745258 0.38460911698056416
1.4379712008647627 13.120067697904105 492.7100186909643 52.04675973266868 0.3900944306196571
1.4606305766133614 13.115542021145373 447.97673916418455 54.081889887214544 0.3956494036351674
1.4831631576021325 13.110065000434696 407.5978418465603 56.19373338700261 0.4012929986266083
1.505550588462832 13.103704937691813 371.1520678280461 58.42448428557938 0.4072298071429553
1.5277778902754795 13.096387200031002 338.2331899417008 60.69973291670587 0.41309774879214123
1.5498466399776718 13.088178756490333 308.4510063302532 63.116157395386146 0.41932978763245915
1.5717184751218032 13.078978620556693 281.50677204416536 65.597478036717 0.4255649640176016
1.5933779010248903 13.068732150733402 257.1159032752741 68.20766485459923 0.4320741774002933
1.6147923233705472 13.0574408721249 235.03410520496087 70.92408151400815 0.43873974623479506
1.635974738057637 13.045101352671153 215.01517703916463 73.75097990378971 0.4455629907631323
1.6568757129536957 13.031563443066243 196.84463964263296 76.72156886729647 0.4526643577546234
1.6774872458655232 13.01701789751958 180.37119712168857 79.7907278988594 0.4598233946940517
1.6977968880101308 13.001259264317545 165.39418586632917 83.03791415009114 0.46737107783879905
1.7177635687200377 12.984289245545892 151.78692565711015 86.37841681852662 0.47494617988965254
1.7373888419802803 12.966103179842431 139.40672953218237 89.92665963226337 0.4829858349129367
1.7566400704489051 12.946685465736143 128.14413635208322 93.57194055457761 0.4910341363702469
1.7755089349079225 12.926084954633948 117.88893511161812 97.44940656783578 0.49959507201011644
1.7939805487567166 12.904155084306739 108.53776677694759 101.43776353383511 0.5081721915656573
1.8119825191490229 12.880890537244799 100.02257885258413 105.6782025531439 0.5172852155177984
1.8295493751988845 12.856284315623705 92.24974495671457 110.05199559044267 0.5264408375051383
1.8466654207043118 12.830411642736461 85.14995819998438 114.69340263658523 0.5361342153705593
1.8632851885650534 12.803245942989003 78.6755763858213 119.50243046846258 0.5459756353866071
1.879376405170978 12.774505428750206 72.74826018441732 124.58854191583431 0.556330318619985
1.894950409058516 12.744446849370005 67.32657994391059 129.88993710217423 0.5669483093997083
1.9099683290783966 12.71296672630451 62.36566616696568 135.47191895948276 0.5780229285594015
1.9244073312277246 12.680082443268807 57.830489715967765 141.3313544228469 0.5895068278594808
1.9382914607267092 12.645741439508857 53.666179172294115 147.4688322280751 0.6013583721606588
1.951534610333355 12.609941742313435 49.85551435466416 153.96195632147064 0.6138118377722244
1.9641767636248968 12.572723988058758 46.35743568400973 160.7246808128989 0.6265466914836995
1.976169263594643 12.534014823804652 43.146776403253135 167.8827419626659 0.639941814088047
1.987487845832896 12.493756187101424 40.1993737584331 175.40874116525478 0.6538602284812297
1.9981431112024302 12.452022376855862 37.48816442810194 183.3176591281051 0.6682899212103157
2.008101490409747 12.408836517064014 34.99882102941943 191.6865325469231 0.6834352105469189
2.0173330951816686 12.364106506555016 32.711184376858405 200.48210626572418 0.69912182230827
2.0258730647743035 12.31790364420192 30.600973875628352 209.76251107386892 0.7154972505232124
2.0336306652952847 12.270174717347011 28.663022016817234 219.58775861376984 0.7326902502513175
2.0406427999284413 12.220835331796419 26.874000304307373 229.95059979706454 0.7506077505101029
2.0469165945107686 12.170183667784107 25.226199555276636 240.89319708740962 0.7692889226010717
2.0523875486008034 12.11795111566299 23.707429485975045 252.49184205989303 0.7888998969654362
2.0570669215683193 12.064243096487635 22.308068738314013 264.78834690678826 0.8094849002089479
2.06090974326072 12.00905114599033 21.01746674843252 277.78205454684496 0.8309565624315369
2.0639304090572095 11.952250104733718 19.824915793857713 291.5658872802118 0.853502760605547
2.066170737387344 11.894167681001079 18.723647373410788 306.2072052330616 0.8772050176541107
2.0675531401158835 11.834623340583159 17.708178265424102 321.7537683866431 0.9020823940699924
2.0680864354579036 11.773607804208007 16.770961390089845 338.24829996188504 0.9281456657465206
