e[MeV/fm^3], P[MeV/fm^3], rho[fm^-3], v2[1], mu_q[MeV], mu_e[MeV]
94.94636686167317 0.4413807512378042 0.1 0.017144926874012978 317.95915870970356 100.14194102836514
96.25345916895651 0.46438280173863955 0.101370130672262 0.018050828425997673 318.0353072753812 100.71622101815169
97.57878587396496 0.4889147289631433 0.10275903392511473 0.018978478741635052 318.1154229041463 101.29329266428593
98.92261831843756 0.515056838407001 0.10416696696744283 0.01993741618724143 318.1996431681447 101.87339086851273
100.28523268360438 0.5428925939764973 0.1055941905322288 0.020928058904412294 318.28810773703464 102.45675835314887
101.66691010052308 0.5725087295449669 0.10704096892483764 0.021950831429947915 318.3809584218137 103.04364540530885
103.06793676350163 0.6039953672078681 0.10850757007196328 0.0230061667702052 318.47833922847735 103.63430959173816
104.48860404674332 0.637446142746121 0.10999426557124542 0.024094508557870375 318.580396421961 104.22901544452033
105.92920862436137 0.6729583388134567 0.11150133074156637 0.025216313272774044 318.68727860074745 104.82803411806668
107.39005259391891 0.7106330263661252 0.1130290446740369 0.02633262324504132 318.79913678245373 105.43164301794738
108.87144324503501 0.7504575631563305 0.1145776902836806 0.027379788949089157 318.9157811809634 106.03519591929809
110.37369030315959 0.7923452566411414 0.11614755436182667 0.028443750710363952 319.03680960138246 106.63104446790136
111.89710961867719 0.8365427599700687 0.11773892762922022 0.029602860408452614 319.16278568932495 107.22541138144616
113.44202400071198 0.8832022893798355 0.11935210478986052 0.03081675379852644 319.2939817061478 107.8202800772041
115.0087626359432 0.9324608268054214 0.12098738458557669 0.03207653840153257 319.4306135301825 108.41678515399795
116.59766107274434 0.9844526059126987 0.12264506985135126 0.0333788555828351 319.572877575836 109.01574285226425
118.20906130059554 1.0393129083643178 0.12432546757140178 0.034722164226582586 319.72096181198486 109.6178072901194
119.84331186574134 1.097179786861498 0.1260288889360307 0.03610575918483372 319.87505053699624 110.22353627590667
121.50076800626537 1.1581950535431216 0.12775564939925427 0.03752939680139894 320.0353269087984 110.8334244903535
123.18179180011872 1.2225049517695847 0.12950606873722095 0.03899312228419011 320.2019744838251 111.44792217954804
124.88675232321675 1.2902606752037458 0.13128047110743032 0.04049717991058882 320.37517825776854 112.06744650108215
126.61602581622238 1.361618808667125 0.13307918510876326 0.04204196213713013 320.55512543226473 112.6923887791011
128.36999585934686 1.4367417283704906 0.1349025438423348 0.04362797879016134 320.74200602035336 113.32311931570828
130.14905355487275 1.5157979820600824 0.13675088497318028 0.04525583735167221 320.9360133519554 113.95999066088581
131.95359771732294 1.5989626609987286 0.13862455079278757 0.04692622968453386 321.1373445144712 114.60333986649957
133.78403507131554 1.6864177710342154 0.14052388828248494 0.04863992261842359 321.3462007494494 115.25349004662196
135.64078045723807 1.7783526073010185 0.1424492491776985 0.05039775088765619 321.5627878181266 115.91075144995241
137.52425704491307 1.8749641354652484 0.14440099003308907 0.05220061149805344 321.78731634373486 116.57542218065164
139.43489655547157 1.9764573813647432 0.1463794722885824 0.05404945893201141 322.0200021353826 117.24778866062358
141.3731394916697 2.083045830182228 0.14838506233630352 0.05594530080258542 322.2610664963014 117.9281258984746
143.33943537689754 2.1949518357853512 0.15041813158842832 0.0578891936898025 322.5107365178817 118.61669761198014
145.3342430031443 2.312407040480186 0.15247905654596478 0.0598822389718191 322.76924535997193 119.313756238407
147.3580306881816 2.4356528051264106 0.15456821886847674 0.061925578515716895 323.03683251723027 120.01954285838335
149.41127654223357 2.5649406493030553 0.15668600544476283 0.06402039012815364 323.31374407080983 120.73428705289062
151.49446874439718 2.7005327009964972 0.15883280846450362 0.06616788269125529 323.6002329242818 121.45820670855176
153.60810582907197 2.8427021550743365 0.16100902549089094 0.06836929092671873 323.8965590223958 122.1915077831944
155.75269698265143 2.9917337396216346 0.16321505953425178 0.07062586974489937 324.2029895510543 122.93438404130187
157.92876235071572 3.147924189027033 0.16545131912668123 0.07293888814634031 324.5197991166839 123.68701676721646
160.1368333559542 3.311582722530232 0.16771821839769796 0.07530962265178998 324.84726990304495 124.44957446265052
162.37745302703036 3.483031526758055 0.17001617715093623 0.07773935024399081 325.18569180339756 125.22221253408111
164.6511763385809 3.66260624060152 0.17234562094188846 0.08022934081146915 325.5353625258525 126.00507297487326
166.9585705625237 3.850656440604008 0.17470698115671374 0.08278084909070982 325.8965876696714 126.79828404643985
169.30021563082028 4.047546124855926 0.1771006950921248 0.08539510610913514 326.2696807702228 127.60195996234462
171.6767045098178 4.25365419321003 0.17952720603637126 0.08807331013729802 326.65496331028777 128.41620057898425
174.08864358625897 4.469374921459542 0.18198696335133058 0.09081661716551281 327.0527646953988 129.2410910962777
176.53665306502424 4.695118426948568 0.18448042255572536 0.09362613092559324 327.4634221909173 130.07670177168117
179.02136737862796 4.931311122916572 0.18700804540947988 0.0965028924862753 327.88728081859597 130.92308765076032
181.54343560845712 5.178396158724471 0.18957029999923283 0.09944786945729844 328.32469321044726 131.7802883175264
184.1035219177003 5.436833842957312 0.1921676608250214 0.10246194484455995 328.77601941782854 132.64832766772795
186.7023059958707 5.707102046267467 0.19480060888815343 0.10554590560734001 329.2416266737851 133.5272137083043
189.34048351478077 5.989696580702984 0.19746963178028315 0.10870043097556015 329.72188910684457 134.41693838621924
192.01876659578394 6.28513155216587 0.20017522377370764 0.11192608059426701 330.21718740464917 135.31747744991566
194.7378842880429 6.593939682573202 0.20291788591290028 0.11522328257098802 330.72790842603064 136.22879034663245
197.49858305753736 6.916672598244364 0.20569812610729854 0.11859232150941268 331.254444760397 137.15082015882766
200.30162728647443 7.253901081021378 0.20851645922536285 0.12203332662240762 331.7971942335924 138.08349358291213
203.14779978270525 7.6062152786506765 0.21137340718992417 0.12554626002513847 332.3565593597251 139.02672095345017
206.03790229870845 7.97422487101053 0.21426949907483864 0.12913090531688942 332.932946738833 139.98039631587767
208.97275605963816 8.358559188871052 0.2172052712029651 0.13278685656762157 333.5267664006589 140.9443975506967
211.95320229989505 8.759867282019684 0.22018126724548684 0.13651350783185046 334.138431095253 141.9185865518261
214.98010280761576 9.178817933783291 0.22319803832259236 0.14031004331829666 334.768355531599 142.9028094617232
218.05434047644283 9.616099619228022 0.22625614310553732 0.14417542834684327 335.4169555659666 143.89689696545923
221.17681986388018 10.0724204046151 0.2293561479201033 0.14810840122835245 336.08464734222235 144.90066464569247
224.34846775550957 10.548507786057039 0.23249862685147524 0.1521074662029518 336.7718463868946 145.91391340006604
227.57023373430096 11.045108465720485 0.23568416185055527 0.15617088757153552 337.4789666623489 146.93642992212156
230.84309075422277 11.562988064397524 0.23891334284173335 0.16029668515257334 338.20641958201674 147.96798724632671
234.16803571733496 12.102930769778695 0.2421867678321344 0.16448263118950246 338.95461299219335 149.00834535727213
237.54609005352904 12.665738920328916 0.24550504302236242 0.16872624882707177 339.72395012549293 150.05725186250152
240.97830030207166 13.252232525277945 0.24886878291876183 0.17302481226331912 340.51482853159905 151.11444272781222
244.46573869411006 13.863248721880725 0.2522786104472169 0.17737534867077653 341.32763899146863 152.17964307320295
248.00950373530299 14.499641171781702 0.25573515706851063 0.18177464196441262 342.162764421631 153.25256802695756
251.61072078776104 15.162279399011274 0.25923906289526366 0.18621923847491373 343.02057877565136 154.33292363466364
255.27054265051086 15.852048072851947 0.2627909768104763 0.19070545456502286 343.9014459501977 155.42040781926136
258.99015013772936 16.56984623951489 0.2663915565876935 0.19522938620322217 344.8057187034414 156.51471138753368
262.7707526540526 17.316586507263548 0.2700414690128177 0.19978692048454105 345.7337375937395 157.6155190777877
266.6135887663111 18.09319419028743 0.2737413900075891 0.20437374906129868 346.6858299466582 158.7225106428518
270.51992677112264 18.900606417257457 0.27749200475475955 0.2089853834196389 347.6623088584275 159.83536196194274
274.49106525784066 19.73977121107202 0.2812940078249792 0.21385388587310805 348.66347224382025 160.95374617444665
279.08090228312375 20.734789406027634 0.2856793887378523 0.2197206351717833 349.0 161.32223640654
297.9925501226558 20.883172428154364 0.35042677861621924 0.009224402648619956 350.0 162.41049644846333
386.7174815341713 21.92337084314338 0.6539179466899345 0.014223311504338254 351.0 163.4783485994121
464.47890100203426 23.199740154428834 0.922323717119201 0.019340777889583105 352.0 164.52674036075354
532.1658044742396 24.681301297367483 1.158694796391474 0.02521296758095168 353.0 165.55658854961555
591.209388253539 26.341191338675493 1.3676968359123154 0.03193935006580362 354.0 166.56781331863417
642.5891211283233 28.153306896277957 1.5522376023065017 0.038712930027525905 355.0 167.56023642653295
688.9780837344226 30.09339851639809 1.7220745636917243 0.04421479640515591 356.0 168.5363211398076
733.4051989721668 32.15953224248239 1.8889636460041213 0.047647032393909106 357.0 169.49688484267628
778.2942466573829 34.35010813280074 2.0631086594222303 0.04768394556526828 358.0 170.44271012268118
828.3236531763613 36.673490189459905 2.265331913429552 0.04230168877768101 359.0 171.3745442786088
896.1214410834048 39.161206313285234 2.5535328801228325 0.07263165225499635 360.0 172.2916016608145
926.1551748493912 41.82075451832144 2.679737439067284 0.44966786342084664 361.0 173.19271270097593
931.4035126932412 44.51195609148289 2.6951345470356283 0.5298073053155647 362.0 174.08167723008737
936.356881381649 47.215925893552914 2.709256388539678 0.5557207553220023 363.0 174.9591318458806
941.1630973129274 49.93270811643848 2.722692584185565 0.5703217512281764 364.0 175.82522528260012
945.9077013768788 52.66234707376298 2.73579030946415 0.5773440792566413 365.0 176.67568622756338
950.6413679481539 55.40488720086805 2.748759803318264 0.5790029399189098 366.0 177.51624753604267
955.4341521748261 58.17814652972966 2.7617895737017957 0.5792237259857602 367.0 178.34743435378095
960.1868041483384 60.93378304393201 2.774757437782201 0.5786998310297502 368.0 179.16660278440034
965.0174424554432 63.723820373713345 2.7878436729012672 0.5772330934835201 369.0 179.97413892719072
969.8721949578036 66.52449479778555 2.8009665095914986 0.5768933478504774 370.0 180.77367585867728
974.7269474601641 69.32516922185775 2.81408934628173 0.5764404502171674 371.0 181.56373895837805
979.6140123279781 72.14004302279211 2.8272609178856953 0.5750085811406498 372.0 182.3417775824483
984.5724771001014 74.98629286614768 2.8405401779280735 0.5740183653935249 373.0 183.113035723863
989.5309418722246 77.83254270950324 2.8538194379704516 0.5740183653935311 374.0 183.8756803869025
994.4894066443478 80.67879255285881 2.8670986980128297 0.5728083994729243 375.0 184.62741291408136
999.5383888975408 83.56467137739085 2.8805136187576728 0.5713808599698194 376.0 185.37343265337012
1004.6021927265815 86.45703915790502 2.8939507529508726 0.5711848006288438 377.0 186.11029201281738
1009.6659965556221 89.34940693841916 2.9073878871440724 0.5706118434193392 378.0 186.8385833323916
1014.7733453701042 92.26076920415169 2.920889872218052 0.5692181019889784 379.0 187.56208621768963
1019.944130089303 95.19980244835044 2.9344863314146488 0.5683921114113044 380.0 188.27473512296038
1025.114914808502 98.13883569254921 2.9480827906112457 0.5683921114112991 381.0 188.98213785668221
1030.285699527701 101.07786893674796 2.9616792498078426 0.5670900084093198 382.0 189.6832528772925
1035.5602087502893 104.06198469259499 2.975429213639789 0.5657007987233751 383.0 190.37549397297113
1040.8396312388277 107.04823593583588 2.989186448743936 0.5656397550535353 384.0 191.06426636715048
1046.1190537273658 110.03448717907676 3.0029436838480827 0.5649547908598773 385.0 191.74341627231462
1051.4539082231 113.04474623307398 3.016782439987946 0.5635983285855026 386.0 192.41841008682437
1056.8436404059578 116.07877301971996 3.0307019019531682 0.5629271889048262 387.0 193.08711233993236
1062.2333725888154 119.11279980636596 3.0446213639183903 0.5628587316297526 388.0 193.74913665510493
1067.628732744787 122.14925564310938 3.058549050901797 0.5615344157063742 389.0 194.4077367470912
1073.1304615926051 125.23162052669457 3.0726321907288914 0.5602538708914189 390.0 195.05755727798646
1078.6321904404235 128.31398541027974 3.086715330555985 0.5602538708914047 391.0 195.70533422849687
1084.133919288242 131.3963502938649 3.100798470383079 0.5594645481608733 392.0 196.34473274787123
1089.7036388046774 134.50796027049853 3.1149803556375417 0.5581445031443675 393.0 196.98139267269755
1095.3190663336288 137.6392308138874 3.1292286243725886 0.5576192600198464 394.0 197.61167484125832
1100.93449386258 140.7705013572763 3.143476893107635 0.5574270479395231 395.0 198.23787031597547
1106.5667407711226 143.90898229630528 3.1577494373196946 0.5561381327276305 396.0 198.85934778990693
1112.297584042786 147.08973107184528 3.1721642860521717 0.5550228168457245 397.0 199.475693825992
1118.0284273144493 150.27047984738525 3.1865791347846484 0.5550228168457245 398.0 200.08866981057037
1123.7592705861127 153.45122862292524 3.2009939835171255 0.554136391378 399.0 200.6957453872934
1129.5713520650181 156.6666894705728 3.2155253563487602 0.5528518930167152 400.0 201.30051467927814
1135.419343186255 159.8974940602389 3.230108236209733 0.5524640039095647 401.0 201.89886428982257
1141.2673343074919 163.12829864990502 3.244691116070706 0.5521559635888789 402.0 202.49571333711043
1147.14400362007 166.3713175284243 3.259314876084309 0.5509016016225079 403.0 203.08584853825403
1153.1108897429094 169.65276052396084 3.2740672382447293 0.549942286140876 404.0 203.6750555154176
1159.0777758657487 172.93420351949737 3.2888196004051498 0.549942286140876 405.0 204.25745647114007
1165.0446619885881 176.2156465150339 3.3035719625655697 0.5489656335476703 406.0 204.83929136948632
1171.1067399716972 179.5375039989136 3.318459181815733 0.547715806694022 407.0 205.41440837990046
1177.1942832932223 182.87017300196786 3.3333824774848084 0.5474571312322531 408.0 205.9891331107018
1183.2818266147476 186.20284200502212 3.348305773153884 0.547040788324237 409.0 206.5573881187232
1189.4105915821417 189.55295747785607 3.363287107911181 0.54582012843081 410.0 207.12525662830706
1195.6205693443824 192.93744510010666 3.378382788334825 0.545008009985116 411.0 207.68704469745765
1201.830547106623 196.32193272235727 3.39347846875847 0.5450080099851142 412.0 208.2483030928726
1208.0405248688637 199.70642034460786 3.4085741491821144 0.5439476388582634 413.0 208.80399385056722
1214.360371495704 203.13726604937733 3.4238235740393557 0.5427316074808264 414.0 209.35888053459985
1220.6945759855314 206.57416991265777 3.4390930904987154 0.542594396628651 415.0 209.90881957615204
1227.0287804753589 210.0110737759382 3.4543626069580746 0.5420768891870757 416.0 210.45756539050848
1233.417451945544 213.4708903180622 3.469707875739842 0.5408890799383208 417.0 211.0020756399369
1239.8776904945707 216.96081305448072 3.48515267954989 0.5402157691133915 418.0 211.5449040154655
1246.3379290435976 220.45073579089922 3.500597483359938 0.5402157691133915 419.0 212.08428703996188
1252.7981675926244 223.94065852731774 3.5160422871699857 0.5390778346846758 420.0 212.62141415285072
1259.383692598505 227.48312985945742 3.5316602771415373 0.5378947250767467 421.0 213.15595142848727
1265.9717875829879 231.0266791115093 3.5472818196497355 0.5378716093799696 422.0 213.68758636143002
1272.5598825674706 234.57022836356123 3.5629033621579334 0.5372597017338094 423.0 214.21754048833904
1279.2164089836504 238.14239627242597 3.578618924555913 0.5361038944676224 424.0 214.74388539572888
1285.9341978243967 241.7401846931041 3.594418657140935 0.535561403605886 425.0 215.26950126157584
1292.6519866651433 245.33797311378225 3.610218389725957 0.5354741091248734 426.0 215.79075153784586
1299.3796910577641 248.93989647156255 3.6260316631264686 0.5343450797574434 427.0 216.3120018141159
1306.229026220043 252.59254172446262 3.642011037196986 0.5332846424301465 428.0 216.8286018792416
1313.0783613823216 256.24518697736266 3.6579904112675035 0.5332846424301465 429.0 217.34494632953877
1319.9276965446004 259.89783223026274 3.6739697853380204 0.53258473942347 430.0 217.85783155156358
1326.86016394339 263.5850476279293 3.6900620012299052 0.5314600908761307 431.0 218.36945256400142
1333.8429129368435 267.29317238734995 3.7062224682234235 0.5310408211575464 432.0 218.87881490603743
1340.8256619302972 271.0012971467705 3.7223829352169417 0.5308492014412529 433.0 219.38588862483826
1347.8315268890453 274.71900805953334 3.7385745906989016 0.5297504512324487 434.0 219.89190664136743
1354.9495722676052 278.48324001057466 3.754917602080652 0.5288294399442144 435.0 220.3946031402605
1362.067617646165 282.24747196161593 3.7712606134624025 0.5288294399442037 436.0 220.8972996391536
1369.185663024725 286.01170391265725 3.7876036248441527 0.5280476013745101 437.0 221.39592633574898
1376.4022950344643 289.81670874776313 3.804078854370927 0.5269532759603379 438.0 221.89440979105288
1383.6575343962738 293.63768058641875 3.820605861632816 0.5266500039638409 439.0 222.39017105934653
1390.9127737580834 297.4586524250744 3.837132868894704 0.5263607018288177 440.0 222.88459992221763
1398.2050616181475 301.2949057336467 3.8537092666695485 0.5252914206754724 441.0 223.37763375677227
1405.5994076054792 305.17325516689516 3.870421721329139 0.5245020235586892 442.0 223.86816092415333
1412.9937535928107 309.05160460014366 3.887134175988729 0.5245020235586928 443.0 224.3585953974958
1420.3880995801424 312.92995403339216 3.9038466306483195 0.5236439786726592 444.0 224.8453683813519
1427.8972574193338 316.85553608296226 3.920711234193711 0.5225791504454271 445.0 225.332141365208
1435.432637718518 320.7919058288528 3.9376105877932663 0.5223850143723645 446.0 225.81648344756059
1442.968018017702 324.7282755747433 3.954509941392822 0.5220043212171674 447.0 226.29964454203414
1450.5551287040012 328.68587194883895 3.9714774419091223 0.5209637085932535 448.0 226.78175367545967
1458.233486045351 332.6809097365743 3.9885651460146803 0.5202984974691311 449.0 227.26144012162266
1465.9118433867006 336.67594752430966 4.005652850120238 0.5202984974691311 450.0 227.7411265677856
1473.5902007280504 340.670985312045 4.022740554225796 0.519369659397821 451.0 228.21775794927976
1481.4003832039073 344.71997818316305 4.0400008923976 0.5183335137255476 452.0 228.6941020972032
1489.2236753616485 348.7743367531811 4.0572783985980925 0.5182419994383309 453.0 229.1688159544794
1497.04696751939 352.82869532319916 4.074555904798584 0.5177758702238329 454.0 229.64194542237777
1504.9374385451529 356.91048126305066 4.091920868723894 0.5167631367554115 455.0 230.11482084757034
1512.9076383373592 361.0248183671001 4.109389628630306 0.5162150524849594 456.0 230.58485867781556
1520.8778381295656 365.13915547114954 4.126858388536718 0.516209939684817 457.0 231.0548965080608
1528.8487861403464 369.2537973053355 4.144328116811664 0.5152201609062352 458.0 231.52303358835755
1536.9678814288714 373.42877570655156 4.161989582056232 0.5142171945089373 459.0 231.99009840019093
1545.0869767173963 377.6037541077676 4.1796510473007995 0.5142171945089409 460.0 232.45665208434008
