e[MeV/fm^3], P[MeV/fm^3], rho[fm^-3], v2[1], mu_q[MeV], mu_e[MeV]
94.94636686167317 0.4413807512378042 0.1 0.017144926874012978 317.95915870970356 100.14194102836514
96.25345916895651 0.46438280173863955 0.101370130672262 0.018050828425997673 318.0353072753812 100.71622101815169
97.57878587396496 0.4889147289631433 0.10275903392511473 0.018978478741635052 318.1154229041463 101.29329266428593
98.92261831843756 0.515056838407001 0.10416696696744283 0.01993741618724143 318.1996431681447 101.87339086851273
100.28523268360438 0.5428925939764973 0.1055941905322288 0.020928058904412294 318.28810773703464 102.45675835314887
101.66691010052308 0.5725087295449669 0.10704096892483764 0.021950831429947915 318.3809584218137 103.04364540530885
103.06793676350163 0.6039953672078681 0.10850757007196328 0.0230061667702052 318.47833922847735 103.63430959173816
104.48860404674332 0.637446142746121 0.10999426557124542 0.024094508557870375 318.580396421961 104.22901544452033
105.92920862436137 0.6729583388134567 0.11150133074156637 0.025216313272774044 318.68727860074745 104.82803411806668
107.39005259391891 0.7106330263661252 0.1130290446740369 0.02633262324504132 318.79913678245373 105.43164301794738
108.87144324503501 0.7504575631563305 0.1145776902836806 0.027379788949089157 318.9157811809634 106.03519591929809
110.37369030315959 0.7923452566411414 0.11614755436182667 0.028443750710363952 319.03680960138246 106.63104446790136
111.89710961867719 0.8365427599700687 0.11773892762922022 0.029602860408452614 319.16278568932495 107.22541138144616
113.44202400071198 0.8832022893798355 0.11935210478986052 0.03081675379852644 319.2939817061478 107.8202800772041
115.0087626359432 0.9324608268054214 0.12098738458557669 0.03207653840153257 319.4306135301825 108.41678515399795
116.59766107274434 0.9844526059126987 0.12264506985135126 0.0333788555828351 319.572877575836 109.01574285226425
118.20906130059554 1.0393129083643178 0.12432546757140178 0.034722164226582586 319.72096181198486 109.6178072901194
119.84331186574134 1.097179786861498 0.1260288889360307 0.03610575918483372 319.87505053699624 110.22353627590667
121.50076800626537 1.1581950535431216 0.12775564939925427 0.03752939680139894 320.0353269087984 110.8334244903535
123.18179180011872 1.2225049517695847 0.12950606873722095 0.03899312228419011 320.2019744838251 111.44792217954804
124.88675232321675 1.2902606752037458 0.13128047110743032 0.04049717991058882 320.37517825776854 112.06744650108215
126.61602581622238 1.361618808667125 0.13307918510876326 0.04204196213713013 320.55512543226473 112.6923887791011
128.36999585934686 1.4367417283704906 0.1349025438423348 0.04362797879016134 320.74200602035336 113.32311931570828
130.14905355487275 1.5157979820600824 0.13675088497318028 0.04525583735167221 320.9360133519554 113.95999066088581
131.95359771732294 1.5989626609987286 0.13862455079278757 0.04692622968453386 321.1373445144712 114.60333986649957
133.78403507131554 1.6864177710342154 0.14052388828248494 0.04863992261842359 321.3462007494494 115.25349004662196
135.64078045723807 1.7783526073010185 0.1424492491776985 0.05039775088765619 321.5627878181266 115.91075144995241
137.52425704491307 1.8749641354652484 0.14440099003308907 0.05220061149805344 321.78731634373486 116.57542218065164
139.43489655547157 1.9764573813647432 0.1463794722885824 0.05404945893201141 322.0200021353826 117.24778866062358
141.3731394916697 2.083045830182228 0.14838506233630352 0.05594530080258542 322.2610664963014 117.9281258984746
143.33943537689754 2.1949518357853512 0.15041813158842832 0.0578891936898025 322.5107365178817 118.61669761198014
145.3342430031443 2.312407040480186 0.15247905654596478 0.0598822389718191 322.76924535997193 119.313756238407
147.3580306881816 2.4356528051264106 0.15456821886847674 0.061925578515716895 323.03683251723027 120.01954285838335
149.41127654223357 2.5649406493030553 0.15668600544476283 0.06402039012815364 323.31374407080983 120.73428705289062
151.49446874439718 2.7005327009964972 0.15883280846450362 0.06616788269125529 323.6002329242818 121.45820670855176
153.60810582907197 2.8427021550743365 0.16100902549089094 0.06836929092671873 323.8965590223958 122.1915077831944
155.75269698265143 2.9917337396216346 0.16321505953425178 0.07062586974489937 324.2029895510543 122.93438404130187
157.92876235071572 3.147924189027033 0.16545131912668123 0.07293888814634031 324.5197991166839 123.68701676721646
160.1368333559542 3.311582722530232 0.16771821839769796 0.07530962265178998 324.84726990304495 124.44957446265052
162.37745302703036 3.483031526758055 0.17001617715093623 0.07773935024399081 325.18569180339756 125.22221253408111
164.6511763385809 3.66260624060152 0.17234562094188846 0.08022934081146915 325.5353625258525 126.00507297487326
166.9585705625237 3.850656440604008 0.17470698115671374 0.08278084909070982 325.8965876696714 126.79828404643985
169.30021563082028 4.047546124855926 0.1771006950921248 0.08539510610913514 326.2696807702228 127.60195996234462
171.6767045098178 4.25365419321003 0.17952720603637126 0.08807331013729802 326.65496331028777 128.41620057898425
174.08864358625897 4.469374921459542 0.18198696335133058 0.09081661716551281 327.0527646953988 129.2410910962777
176.53665306502424 4.695118426948568 0.18448042255572536 0.09362613092559324 327.4634221909173 130.07670177168117
179.02136737862796 4.931311122916572 0.18700804540947988 0.0965028924862753 327.88728081859597 130.92308765076032
181.54343560845712 5.178396158724471 0.18957029999923283 0.09944786945729844 328.32469321044726 131.7802883175264
184.1035219177003 5.436833842957312 0.1921676608250214 0.10246194484455995 328.77601941782854 132.64832766772795
186.7023059958707 5.707102046267467 0.19480060888815343 0.10554590560734001 329.2416266737851 133.5272137083043
189.34048351478077 5.989696580702984 0.19746963178028315 0.10870043097556015 329.72188910684457 134.41693838621924
192.01876659578394 6.28513155216587 0.20017522377370764 0.11192608059426701 330.21718740464917 135.31747744991566
194.7378842880429 6.593939682573202 0.20291788591290028 0.11522328257098802 330.72790842603064 136.22879034663245
197.49858305753736 6.916672598244364 0.20569812610729854 0.11859232150941268 331.254444760397 137.15082015882766
200.30162728647443 7.253901081021378 0.20851645922536285 0.12203332662240762 331.7971942335924 138.08349358291213
203.14779978270525 7.6062152786506765 0.21137340718992417 0.12554626002513847 332.3565593597251 139.02672095345017
206.03790229870845 7.97422487101053 0.21426949907483864 0.12913090531688942 332.932946738833 139.98039631587767
208.97275605963816 8.358559188871052 0.2172052712029651 0.13278685656762157 333.5267664006589 140.9443975506967
211.95320229989505 8.759867282019684 0.22018126724548684 0.13651350783185046 334.138431095253 141.9185865518261
214.98010280761576 9.178817933783291 0.22319803832259236 0.14031004331829666 334.768355531599 142.9028094617232
218.05434047644283 9.616099619228022 0.22625614310553732 0.14417542834684327 335.4169555659666 143.89689696545923
221.17681986388018 10.0724204046151 0.2293561479201033 0.14810840122835245 336.08464734222235 144.90066464569247
224.34846775550957 10.548507786057039 0.23249862685147524 0.1521074662029518 336.7718463868946 145.91391340006604
227.57023373430096 11.045108465720485 0.23568416185055527 0.15617088757153552 337.4789666623489 146.93642992212156
230.84309075422277 11.562988064397524 0.23891334284173335 0.16029668515257334 338.20641958201674 147.96798724632671
234.16803571733496 12.102930769778695 0.2421867678321344 0.16448263118950246 338.95461299219335 149.00834535727213
237.54609005352904 12.665738920328916 0.24550504302236242 0.16872624882707177 339.72395012549293 150.05725186250152
240.97830030207166 13.252232525277945 0.24886878291876183 0.17302481226331912 340.51482853159905 151.11444272781222
244.46573869411006 13.863248721880725 0.2522786104472169 0.17737534867077653 341.32763899146863 152.17964307320295
248.00950373530299 14.499641171781702 0.25573515706851063 0.18177464196441262 342.162764421631 153.25256802695756
251.61072078776104 15.162279399011274 0.25923906289526366 0.18621923847491373 343.02057877565136 154.33292363466364
255.27054265051086 15.852048072851947 0.2627909768104763 0.19070545456502286 343.9014459501977 155.42040781926136
258.99015013772936 16.56984623951489 0.2663915565876935 0.19522938620322217 344.8057187034414 156.51471138753368
262.7707526540526 17.316586507263548 0.2700414690128177 0.19978692048454105 345.7337375937395 157.6155190777877
266.6135887663111 18.09319419028743 0.2737413900075891 0.20437374906129868 346.6858299466582 158.7225106428518
270.51992677112264 18.900606417257457 0.27749200475475955 0.2089853834196389 347.6623088584275 159.83536196194274
274.49106525784066 19.73977121107202 0.2812940078249792 0.21361717191002905 348.66347224382025 160.95374617444665
278.52833366645217 20.61164654681457 0.28514810330542434 0.21826431841262917 349.6896019362678 162.07733482823338
282.6330928401043 21.51719939538142 0.28905500493018527 0.22292190249163424 350.74096284770735 163.20579903477514
286.806735572045 22.457404760583426 0.2930154362124422 0.22758490086796312 351.81780219524643 164.33881062310573
291.0506871468638 23.433244717781683 0.2970301305784511 0.2322482100167762 352.9203488012077 165.47604328451476
295.36640587603665 24.445707462261286 0.30109983150336633 0.23690666967600826 354.0488124724866 166.61717369984964
299.75538362787967 25.49578637558757 0.3052252926489232 0.24155508703558404 355.2033834644437 167.76188264138815
304.21914635214523 26.584479118113485 0.30940727800300755 0.24618826136378225 356.38423203374396 168.90985604145197
308.7592545995923 27.712786755619547 0.31364656202113766 0.25080100881845846 357.59150808369253 170.06078602025093
313.3773040369901 28.881712927768064 0.31794392976988456 0.2553881871862518 358.82534090468107 171.21437186587718
318.0749259581095 30.09226306564702 0.3223001770722569 0.2599447202934084 360.0858390113974 172.37032095989775
322.8537877913715 31.345443665174663 0.3267161106550786 0.2644656218363881 361.37309007746103 173.528349642617
327.7155936049114 32.642261622538065 0.33119254829838535 0.26894601838995147 362.68716096714843 174.68818401277815
332.66208460991504 33.98372363716619 0.33573031898686767 0.27338117136401197 364.02809786289913 175.8495606572429
337.69503966315926 35.3708356869955 0.3403302630633898 0.2777664976981793 365.39592648633356 177.01222730700064
342.81627576976535 36.80460257999539 0.34499323238461127 0.2820975891039885 366.79065240961546 178.1759434167117
348.02764858723793 38.28602758509271 0.3497200904787409 0.2863702296889894 368.2122614531486 179.34048066585706
353.33105293190584 39.81611214478573 0.35451171270545256 0.2905804118231612 369.6607201648272 180.50562338043466
358.72842328893415 41.395855670886135 0.3593689864179913 0.2947243501361716 371.1359763753846 181.6711688750005
364.22173432709656 43.026255423985056 0.3642928111275013 0.2987984935632788 372.63795982379526 182.83692771567456
369.81300141952 44.70830647642269 0.3692840986696046 0.302799535386852 374.1665828462073 184.00272390551643
375.5042811716241 46.44300175776399 0.37434377337326313 0.3067244212496534 375.72174112150384 185.16839499440093
381.2976719574698 48.231332181053574 0.3794727722319532 0.3105703551439176 377.30331446632607 186.3337921161855
387.19531446572614 50.074286847456044 0.38467204507718605 0.3143348034070681 378.9111676722288 187.49877995655083
393.1993922564417 51.97285332629083 0.38994255475440603 0.3180154967793083 380.5451513775847 188.66323665540298
399.3121323297738 53.92801800694275 0.39528527730129825 0.32161043060026806 382.20510296689145 189.8270536481518
405.5358057078041 55.94076651868651 0.4007012021285392 0.3251178632416343 383.890847490275 190.99013545052233
411.8727280305149 58.01208421409693 0.40619133220302484 0.32853631288899976 385.6021985961955 192.15239939181075
418.32526016696573 60.14295671143323 0.4117566842336082 0.3318645527995736 387.33895947065554 193.31377530167202
424.89580884264774 62.334370491179754 0.41739828885938196 0.33510160517288057 389.10092377656383 194.47420515561976
431.58682728395144 64.58731354179983 0.42311719084054106 0.33824673377890235 390.887876587319 195.63364268444144
438.4008158806202 66.90277604970314 0.4289144492518606 0.3412994354925418 392.6995953091234 196.79205295268602
445.3403228670059 69.28175112843704 0.434791137678824 0.3442594308849447 394.53585058702333 197.94941191127197
452.40794502289003 71.72523558218649 0.44074834441643845 0.3471266540215865 396.39640719017103 199.1057059291027
459.6063283945767 74.23423069879462 0.44678717267077506 0.349901241613928 398.2810248723229 200.2609313083735
466.93816903690345 76.8097430676861 0.45290874076326954 0.3525835216663502 400.1894592041012 201.4150937880024
474.40621377677365 79.45278541829296 0.45911418233782264 0.35517400175382274 402.1214623740591 202.56820803934892
482.0132609987511 82.16437747482686 0.46540464657073805 0.35767335705739 404.07678395609327 203.72029715808196
489.7621614532206 84.945546823512 0.4717812983835363 0.36008241827575915 406.0551716412196 204.87139215574692
497.65581908756843 87.79732978868721 0.4782453186586851 0.3624021595215643 408.0563719321933 206.02153145425635
505.69719190079616 90.72077231448495 0.4847979044582848 0.3646928369702356 410.08013079987865 207.1707603862059
516.9230827026713 94.8326814782009 0.49388747026641505 0.36788317615633304 412.0 208.2483030928726
533.0857219912033 95.01197151124511 0.5417749895938757 0.012436152264168165 413.0 208.80399385056722
650.9537693129826 96.67527156505699 0.8899751114831911 0.01578693434167111 414.0 209.35888053459985
762.5016102919668 98.6131352259453 1.2196761854694345 0.019177785425687877 415.0 209.90881957615204
867.6865824128165 100.80940845213323 1.5311935933106209 0.022821407273686645 416.0 210.45756539050848
966.6404004161232 103.24839318368271 1.8251785910769946 0.026727267973110314 417.0 211.0020756399369
1059.618275904941 105.91511408730258 2.102552761805875 0.030894942720773755 418.0 211.5449040154655
1146.970646502324 108.79553289736253 2.364470637052155 0.035308666856292525 419.0 212.08428703996188
1229.1276139287793 111.8767323083327 2.612306596682274 0.03993206064064525 420.0 212.62141415285072
1306.5847786023903 115.1470823565457 2.8476409266815983 0.04474084522454791 421.0 213.15595142848727
1379.7830923559948 118.59631584767311 3.0719038699941583 0.04965923321296206 422.0 213.68758636143002
1449.05052606874 122.20240879015415 3.2861878221181398 0.05317661424591047 423.0 214.21754048833904
1518.443222297457 125.97007197177238 3.5039730383007788 0.05436565265475557 424.0 214.74388539572888
1590.7223513188453 129.90490750978304 3.7350486848029836 0.052734740491632515 425.0 215.26950126157584
1671.7098018354664 134.02106650682808 4.000329078334523 0.04659298773411946 426.0 215.79075153784586
1777.2704760130962 138.35721938957542 4.357168533172353 0.0408438018441859 427.0 216.3120018141159
1891.6624533594677 143.00047137660343 4.752266268358593 0.4722472266475233 428.0 216.8286018792416
1901.053706668697 147.76826970538178 4.775128202294682 0.5226639430551785 429.0 217.34494632953877
1909.9708011322678 152.55573840298862 4.796347570328065 0.5454571895314899 430.0 217.85783155156358
1918.6511851741186 157.36293724143894 4.8166922190965495 0.5577872141230031 431.0 218.36945256400142
1927.2441997632427 162.1899261318549 4.836651186576066 0.5623013543603133 432.0 218.87881490603743
1935.8934992852496 167.05837788891134 4.85660205994511 0.563235584123241 433.0 219.38588862483826
1944.5002736671345 171.90913018162038 4.876493444715191 0.5626136308711764 434.0 219.89190664136743
1953.2391538334932 176.81701776045117 4.896557646425767 0.5616151595400307 435.0 220.3946031402605
1961.978033999852 181.72490533928195 4.916621848136342 0.5616151595400325 436.0 220.8972996391536
1970.7169141662107 186.63279291811273 4.936686049846918 0.5607659963419387 437.0 221.39592633574898
1979.5718431555795 191.59071686253407 4.956901217608947 0.5595777243136233 438.0 221.89440979105288
1988.472217837875 196.56823546760623 4.977175504943575 0.5592482095134041 439.0 222.39017105934653
1997.3725925201704 201.54575407267842 4.997449792278203 0.5589336653746493 440.0 222.88459992221763
2006.3165600025902 206.5420115490516 5.017780473626148 0.5577703514678536 441.0 223.37763375677227
2015.380613311767 211.58988931240495 5.038266504520215 0.556911747004257 442.0 223.86816092415333
2024.4446666209437 216.6377670757583 5.058752535414282 0.5569117470042642 443.0 224.3585953974958
2033.5087199301204 221.68564483911163 5.079238566308349 0.5559767983940294 444.0 224.8453683813519
2042.7078111602764 226.7913973173628 5.099898321044387 0.5548170122760414 445.0 225.332141365208
2051.93774438473 231.91036809469554 5.120597753448036 0.5546053966859343 446.0 225.81648344756059
2061.1676776091836 237.0293388720283 5.141297185851685 0.5541901597091439 447.0 226.29964454203414
2070.4584303483994 242.17429933138985 5.1620744287182605 0.5530546281654303 448.0 226.78175367545967
2079.8564619539316 247.3651027021078 5.182988920595833 0.5523287842171527 449.0 227.26144012162266
2089.2544935594638 252.55590607282576 5.203903412473406 0.5523287842171527 450.0 227.7411265677856
2098.652525164996 257.74670944354375 5.224817904350979 0.551313514774753 451.0 228.21775794927976
2108.2054836971 263.00352587594466 5.245929511096892 0.5501816030935984 452.0 228.6941020972032
2117.773849326875 268.2669071432091 5.267060720426397 0.550081536483729 453.0 229.1688159544794
2127.342214956649 273.53028841047353 5.288191929755902 0.5495715266496806 454.0 229.64194542237777
2136.989502208887 278.82720199954383 5.30942299921266 0.5484631801878912 455.0 230.11482084757034
2146.7304546833907 284.16391219031783 5.330772583985278 0.5478632818240907 456.0 230.58485867781556
2156.471407157894 289.50062238109183 5.352122168757896 0.5478576822375949 457.0 231.0548965080608
2166.213238309998 294.8377048616865 5.373472859226228 0.5467725062000373 458.0 231.52303358835755
2176.129047627001 300.24850072677924 5.395042477445826 0.5456736502399835 459.0 231.99009840019093
2186.044856944004 305.65929659187196 5.416612095665424 0.5456736502399977 460.0 232.45665208434008
2195.9606662610067 311.0700924569647 5.4381817138850215 0.5450745169094091 461.0 232.92085822313913
2205.97439438166 316.5222616707605 5.459873875124407 0.5439927561470501 462.0 233.38506436193822
2216.067347716176 322.00790568487054 5.481665184807073 0.5435122735929294 463.0 233.84734456329724
2226.160301050692 327.49354969898064 5.50345649448974 0.5434034488555373 464.0 234.30880224628586
2236.2712893972416 332.9867933460199 5.525270251357425 0.5423441925878834 465.0 234.76971747741462
2246.5436911014917 338.5480537077757 5.547284910531033 0.5413787857862751 466.0 235.2285329357255
2256.816092805742 344.1093140695314 5.56929956970464 0.5413787857862573 467.0 235.6873483940364
2267.0884945099924 349.67057443128715 5.591314228878248 0.540695915824422 468.0 236.14440461715412
2277.4787269528733 355.28135411395493 5.613474747204581 0.5396401412151306 469.0 236.60068023418128
2287.932898556252 360.91900474595474 5.635714413908364 0.5392728229348833 470.0 237.05655806633607
2298.387070159631 366.55665537795454 5.6579540806121456 0.5390666029464732 471.0 237.51039251233098
2308.8773233490433 372.2094297625031 5.680238169213586 0.5380326821499501 472.0 237.9642269583259
2319.5156035580803 377.92425031135406 5.702704501497732 0.5371940235223676 473.0 238.41661545396272
2330.1538837671173 383.63907086020504 5.725170833781877 0.5371940235223676 474.0 238.86810381685
2340.7921639761544 389.353891409056 5.747637166066022 0.5364325497290388 475.0 239.31947285900927
2351.569121292807 395.1266887546437 5.770273306887284 0.5354021632812618 476.0 239.76870677141275
2362.393865991138 400.91946459099864 5.792967962812552 0.5351420285457884 477.0 240.21794068381624
2373.2186106894683 406.7122404273536 5.81566261873782 0.534843975941083 478.0 240.66615024978054
