e[MeV/fm^3], P[MeV/fm^3], rho[fm^-3], v2[1], mu_q[MeV], mu_e[MeV]
94.94636686167317 0.4413807512378042 0.1 0.017144926874012978 317.95915870970356 100.14194102836514
96.25345916895651 0.46438280173863955 0.101370130672262 0.018050828425997673 318.0353072753812 100.71622101815169
97.57878587396496 0.4889147289631433 0.10275903392511473 0.018978478741635052 318.1154229041463 101.29329266428593
98.92261831843756 0.515056838407001 0.10416696696744283 0.01993741618724143 318.1996431681447 101.87339086851273
100.28523268360438 0.5428925939764973 0.1055941905322288 0.020928058904412294 318.28810773703464 102.45675835314887
101.66691010052308 0.5725087295449669 0.10704096892483764 0.021950831429947915 318.3809584218137 103.04364540530885
103.06793676350163 0.6039953672078681 0.10850757007196328 0.0230061667702052 318.47833922847735 103.63430959173816
104.48860404674332 0.637446142746121 0.10999426557124542 0.024094508557870375 318.580396421961 104.22901544452033
105.92920862436137 0.6729583388134567 0.11150133074156637 0.025216313272774044 318.68727860074745 104.82803411806668
107.39005259391891 0.7106330263661252 0.1130290446740369 0.02633262324504132 318.79913678245373 105.43164301794738
108.87144324503501 0.7504575631563305 0.1145776902836806 0.027379788949089157 318.9157811809634 106.03519591929809
110.37369030315959 0.7923452566411414 0.11614755436182667 0.028443750710363952 319.03680960138246 106.63104446790136
111.89710961867719 0.8365427599700687 0.11773892762922022 0.029602860408452614 319.16278568932495 107.22541138144616
113.44202400071198 0.8832022893798355 0.11935210478986052 0.03081675379852644 319.2939817061478 107.8202800772041
115.0087626359432 0.9324608268054214 0.12098738458557669 0.03207653840153257 319.4306135301825 108.41678515399795
116.59766107274434 0.9844526059126987 0.12264506985135126 0.0333788555828351 319.572877575836 109.01574285226425
118.20906130059554 1.0393129083643178 0.12432546757140178 0.034722164226582586 319.72096181198486 109.6178072901194
119.84331186574134 1.097179786861498 0.1260288889360307 0.03610575918483372 319.87505053699624 110.22353627590667
121.50076800626537 1.1581950535431216 0.12775564939925427 0.03752939680139894 320.0353269087984 110.8334244903535
123.18179180011872 1.2225049517695847 0.12950606873722095 0.03899312228419011 320.2019744838251 111.44792217954804
124.88675232321675 1.2902606752037458 0.13128047110743032 0.04049717991058882 320.37517825776854 112.06744650108215
126.61602581622238 1.361618808667125 0.13307918510876326 0.04204196213713013 320.55512543226473 112.6923887791011
128.36999585934686 1.4367417283704906 0.1349025438423348 0.04362797879016134 320.74200602035336 113.32311931570828
130.14905355487275 1.5157979820600824 0.13675088497318028 0.04525583735167221 320.9360133519554 113.95999066088581
131.95359771732294 1.5989626609987286 0.13862455079278757 0.04692622968453386 321.1373445144712 114.60333986649957
133.78403507131554 1.6864177710342154 0.14052388828248494 0.04863992261842359 321.3462007494494 115.25349004662196
135.64078045723807 1.7783526073010185 0.1424492491776985 0.05039775088765619 321.5627878181266 115.91075144995241
137.52425704491307 1.8749641354652484 0.14440099003308907 0.05220061149805344 321.78731634373486 116.57542218065164
139.43489655547157 1.9764573813647432 0.1463794722885824 0.05404945893201141 322.0200021353826 117.24778866062358
141.3731394916697 2.083045830182228 0.14838506233630352 0.05594530080258542 322.2610664963014 117.9281258984746
143.33943537689754 2.1949518357853512 0.15041813158842832 0.0578891936898025 322.5107365178817 118.61669761198014
145.3342430031443 2.312407040480186 0.15247905654596478 0.0598822389718191 322.76924535997193 119.313756238407
147.3580306881816 2.4356528051264106 0.15456821886847674 0.061925578515716895 323.03683251723027 120.01954285838335
149.41127654223357 2.5649406493030553 0.15668600544476283 0.06402039012815364 323.31374407080983 120.73428705289062
151.49446874439718 2.7005327009964972 0.15883280846450362 0.06616788269125529 323.6002329242818 121.45820670855176
153.60810582907197 2.8427021550743365 0.16100902549089094 0.06836929092671873 323.8965590223958 122.1915077831944
155.75269698265143 2.9917337396216346 0.16321505953425178 0.07062586974489937 324.2029895510543 122.93438404130187
157.92876235071572 3.147924189027033 0.16545131912668123 0.07293888814634031 324.5197991166839 123.68701676721646
160.1368333559542 3.311582722530232 0.16771821839769796 0.07530962265178998 324.84726990304495 124.44957446265052
162.37745302703036 3.483031526758055 0.17001617715093623 0.07773935024399081 325.18569180339756 125.22221253408111
164.6511763385809 3.66260624060152 0.17234562094188846 0.08022934081146915 325.5353625258525 126.00507297487326
166.9585705625237 3.850656440604008 0.17470698115671374 0.08278084909070982 325.8965876696714 126.79828404643985
169.30021563082028 4.047546124855926 0.1771006950921248 0.08539510610913514 326.2696807702228 127.60195996234462
171.6767045098178 4.25365419321003 0.17952720603637126 0.08807331013729802 326.65496331028777 128.41620057898425
174.08864358625897 4.469374921459542 0.18198696335133058 0.09081661716551281 327.0527646953988 129.2410910962777
176.53665306502424 4.695118426948568 0.18448042255572536 0.09362613092559324 327.4634221909173 130.07670177168117
179.02136737862796 4.931311122916572 0.18700804540947988 0.0965028924862753 327.88728081859597 130.92308765076032
181.54343560845712 5.178396158724471 0.18957029999923283 0.09944786945729844 328.32469321044726 131.7802883175264
184.1035219177003 5.436833842957312 0.1921676608250214 0.10246194484455995 328.77601941782854 132.64832766772795
186.7023059958707 5.707102046267467 0.19480060888815343 0.10554590560734001 329.2416266737851 133.5272137083043
189.34048351478077 5.989696580702984 0.19746963178028315 0.10870043097556015 329.72188910684457 134.41693838621924
192.01876659578394 6.28513155216587 0.20017522377370764 0.11192608059426701 330.21718740464917 135.31747744991566
194.7378842880429 6.593939682573202 0.20291788591290028 0.11522328257098802 330.72790842603064 136.22879034663245
197.49858305753736 6.916672598244364 0.20569812610729854 0.11859232150941268 331.254444760397 137.15082015882766
200.30162728647443 7.253901081021378 0.20851645922536285 0.12203332662240762 331.7971942335924 138.08349358291213
203.14779978270525 7.6062152786506765 0.21137340718992417 0.12554626002513847 332.3565593597251 139.02672095345017
206.03790229870845 7.97422487101053 0.21426949907483864 0.12913090531688942 332.932946738833 139.98039631587767
208.97275605963816 8.358559188871052 0.2172052712029651 0.13278685656762157 333.5267664006589 140.9443975506967
211.95320229989505 8.759867282019684 0.22018126724548684 0.13651350783185046 334.138431095253 141.9185865518261
214.98010280761576 9.178817933783291 0.22319803832259236 0.14031004331829666 334.768355531599 142.9028094617232
218.05434047644283 9.616099619228022 0.22625614310553732 0.14417542834684327 335.4169555659666 143.89689696545923
221.17681986388018 10.0724204046151 0.2293561479201033 0.14810840122835245 336.08464734222235 144.90066464569247
224.34846775550957 10.548507786057039 0.23249862685147524 0.1521074662029518 336.7718463868946 145.91391340006604
227.57023373430096 11.045108465720485 0.23568416185055527 0.15617088757153552 337.4789666623489 146.93642992212156
230.84309075422277 11.562988064397524 0.23891334284173335 0.16029668515257334 338.20641958201674 147.96798724632671
234.16803571733496 12.102930769778695 0.2421867678321344 0.16448263118950246 338.95461299219335 149.00834535727213
237.54609005352904 12.665738920328916 0.24550504302236242 0.16887242010911419 339.72395012549293 150.05725186250152
242.97527658586836 13.602344601131463 0.25082261294966357 0.1761537362859893 340.0 150.42625600200748
253.65660841498448 13.616723000916997 0.28601180232244583 0.0025127075686483674 341.0 151.75026724192753
509.9371953382476 14.788241665674885 1.1321356329204741 0.006629761463613298 342.0 153.0434569123345
732.4218654254373 16.660857064334355 1.8852335411264356 0.00930228336243085 343.0 154.30700614380973
976.2003316514998 19.16506741935148 2.7481864711984527 0.014574152626894654 344.0 155.53967277331367
1160.0914706543012 22.4418348323934 3.422707064427671 0.36399010929201614 345.0 156.74516612025525
1169.1550283615538 25.895522154066363 3.452586340199579 0.5538280134342859 346.0 157.9251006398289
1174.4472352282407 29.360392480843892 3.4689401987323127 0.7541453290661977 347.0 159.08055683726147
1178.6222448026176 32.836456188660655 3.4811898889538773 0.861456562209264 348.0 160.21259153999904
1182.5645941319256 36.34008582661612 3.492469790038637 0.8906244314905685 349.0 161.32223640654
1186.4812200234635 39.83575367355772 3.503685389833601 0.8924971850162589 350.0 162.41049644846333
1190.3991401592698 43.332396042236056 3.51490190117984 0.8915970151173962 351.0 163.4783485994121
1194.3672769726943 46.86684985429946 3.526153780715576 0.8907086570468223 352.0 164.52674036075354
1198.3354137861188 50.40130366636286 3.537405660251312 0.8907086570468223 353.0 165.55658854961555
1202.3035505995433 53.93575747842626 3.548657539787048 0.8901872443661638 354.0 166.56781331863417
1206.3014119253658 57.492502484991796 3.5599304055342746 0.8892777986993785 355.0 167.56023642653295
1210.3214362648182 61.06586811903699 3.571218918895333 0.8888915420178787 356.0 168.5363211398076
1214.3414606042704 64.63923375308218 3.5825074322563917 0.8887804783772957 357.0 169.49688484267628
1218.3677886010844 68.21730759634383 3.5938004064804017 0.887873709871215 358.0 170.44271012268118
1222.4400807661596 71.8297121318088 3.6051259078301032 0.8870690974595608 359.0 171.3745442786088
1226.512372931235 75.44211666727377 3.616451409179805 0.8870690974595608 360.0 172.2916016608145
1230.5846650963101 79.05452120273874 3.6277769105295063 0.8864584209309534 361.0 173.19271270097593
1234.6921466690019 82.69310281404327 3.639127369247027 0.8855426377925362 362.0 174.08167723008737
1238.8170906544958 86.34467455320807 3.650490212823766 0.8852415334622883 363.0 174.9591318458806
1242.94203463999 89.99624629237285 3.661853056400505 0.8850418398801505 364.0 175.82522528260012
1247.0784394241653 93.65630928455325 3.6732240454601173 0.8841289071250387 365.0 176.67568622756338
1251.256422919836 97.34717775279033 3.684624585573874 0.883409058954312 366.0 177.51624753604267
1255.4344064155066 101.03804622102741 3.696025125687631 0.8834090589543138 367.0 178.34743435378095
1259.6123899111774 104.7289146892645 3.7074256658013875 0.88270874505859 368.0 179.16660278440034
1263.8311849444808 108.44989861791443 3.718855269930835 0.8817870568353179 369.0 179.97413892719072
1268.0625993348156 112.18019456392886 3.7302938609598706 0.8815718816230902 370.0 180.77367585867728
1272.2940137251503 115.91049050994329 3.7417324519889066 0.8812830575305508 371.0 181.56373895837805
1276.542198016827 119.65311151074486 3.7531830085065834 0.8803643903121436 372.0 182.3417775824483
1280.827438380823 123.42296690680192 3.7646600048943215 0.8797302078386728 373.0 183.113035723863
1285.1126787448193 127.19282230285897 3.7761370012820596 0.8797302078386764 374.0 183.8756803869025
1289.3979191088154 130.96267769891602 3.787613997669798 0.8789399913772726 375.0 184.62741291408136
1293.7297546071336 134.76664084613327 3.7991243002726236 0.8780128256159578 376.0 185.37343265337012
1298.0692197180892 138.57618888827733 3.8106400565247034 0.8778842425824287 377.0 186.11029201281738
1302.4086848290447 142.38573693042142 3.822155812776783 0.8775058973273211 378.0 186.8385833323916
1306.7703851378026 146.2114959894275 3.83368748997751 0.8765819202743721 379.0 187.56208621768963
1311.1644774631116 150.06087109768944 3.8452423606589825 0.8760341893797481 380.0 188.27473512296038
1315.5585697884208 153.91024620595135 3.8567972313404546 0.8760341893797445 381.0 188.98213785668221
1319.9526621137297 157.75962131421326 3.868352102021927 0.8751539108342783 382.0 189.6832528772925
1324.3992988680543 161.64715177405105 3.879944656722152 0.8742216896805779 383.0 190.37549397297113
1328.8484245690165 165.5364895926477 3.8915389964548432 0.8741802502355966 384.0 191.06426636715048
1333.2975502699785 169.42582741124437 3.903133336187535 0.873712100631284 385.0 191.74341627231462
1337.7745368908763 173.33531577201612 3.9147476878434997 0.8727832326897165 386.0 192.41841008682437
1342.2791058225107 177.26475316954122 3.9263818513035047 0.872322625574629 387.0 193.08711233993236
1346.7836747541448 181.19419056706633 3.93801601476351 0.8722753283536022 388.0 193.74913665510493
1351.2910505591074 185.12564995816325 3.949652197241369 0.8713499252163857 389.0 194.4077367470912
1355.851476269975 189.09532502776744 3.961326539156669 0.8704615141837522 390.0 195.05755727798646
1360.4119019808422 193.06500009737164 3.9730008810719695 0.870461514183777 391.0 195.70533422849687
1364.9723276917096 197.03467516697583 3.9846752229872697 0.8699033818232955 392.0 196.34473274787123
1369.566404701667 201.02849527077842 3.9963738033684857 0.8689700357829899 393.0 196.98139267269755
1374.1831044337016 205.03854733034467 4.008088678516704 0.8685971131587777 394.0 197.61167484125832
1378.7998041657363 209.04859938991092 4.019803553664922 0.8684597373318859 395.0 198.23787031597547
1383.4247659768314 213.06455601455025 4.031524387374363 0.8675300142216749 396.0 198.85934778990693
1388.0981606651783 217.1151256068594 4.043280150580625 0.8667296178534585 397.0 199.475693825992
1392.771555353525 221.1656951991686 4.055035913786887 0.8667296178534549 398.0 200.08866981057037
1397.4449500418718 225.21626479147776 4.06679167699315 0.8660814262234489 399.0 200.6957453872934
1402.1579552963617 229.29503028067234 4.078576040823296 0.865144008293953 400.0 201.30051467927814
1406.8884695692195 233.3862591735626 4.090373046958202 0.8648592218322939 401.0 201.89886428982257
1411.6189838420771 237.47748806645288 4.102170053093109 0.8646315745338669 402.0 202.49571333711043
1416.3633790167914 241.5785587186106 4.113977092878539 0.8636979339109025 403.0 203.08584853825403
1421.1514411952635 245.71058990513052 4.1258156968562405 0.8629861168257662 404.0 203.6750555154176
1425.9395033737355 249.84262109165041 4.137654300833942 0.8629861168257662 405.0 204.25745647114007
1430.7275655522076 253.97465227817034 4.149492904811644 0.8622478882508702 406.0 204.83929136948632
1435.561370682229 258.13898799930985 4.161364607228496 0.8613067976826834 407.0 205.41440837990046
1440.4074127801807 262.31196569786346 4.173245164004866 0.8611104926879136 408.0 205.9891331107018
1445.2534548781325 266.4849433964171 4.185125720781236 0.8607924822338724 409.0 206.5573881187232
1450.1191645486467 270.67175607510944 4.197020521890436 0.8598553194182976 410.0 207.12525662830706
1455.023622272567 274.88582572959734 4.208943386461331 0.8592325373577694 411.0 207.68704469745765
1459.9280799964872 279.09989538408524 4.220866251032226 0.8592325373577729 412.0 208.2483030928726
1464.8325377204076 283.31396503857314 4.232789115603121 0.8584043898029527 413.0 208.80399385056722
1469.7890481297102 287.56450704523013 4.244749712123029 0.8574600185501922 414.0 209.35888053459985
1474.7523608785796 291.819815325182 4.256715239522636 0.8573524368217775 415.0 209.90881957615204
1479.7156736274492 296.07512360513385 4.268680766922245 0.856944069615821 416.0 210.45756539050848
1484.7046126979337 300.34831751717 4.280664884971959 0.8560037724741107 417.0 211.0020756399369
1489.7272235630985 304.64501231787517 4.292673430271232 0.8554703750803725 418.0 211.5449040154655
1494.749834428263 308.9417071185804 4.304681975570505 0.8554703750803796 419.0 212.08428703996188
1499.7724452934278 313.23840191928554 4.316690520869778 0.8545525188368686 420.0 212.62141415285072
1504.8536001559667 317.57579747464047 4.32874156735572 0.8536052512588803 421.0 213.15595142848727
1509.9359559210156 321.9140279172703 4.340793485660876 0.8535865341154434 422.0 213.68758636143002
1515.0183116860646 326.25225835990005 4.352845403966032 0.8530879114246872 423.0 214.21754048833904
1520.132428830199 330.6124839224048 4.364920394911008 0.8521448600932047 424.0 214.74388539572888
1525.2749799708474 334.99240035413095 4.377016041362109 0.8517010938609388 425.0 215.26950126157584
1530.417531111496 339.3723167858571 4.38911168781321 0.8516292381463941 426.0 215.79075153784586
1535.5646538257622 343.75538680268744 4.401210657127514 0.850690497378892 427.0 216.3120018141159
1540.7678545097397 348.17714079679627 4.413350386897113 0.8498142321754187 428.0 216.8286018792416
1545.971055193717 352.5988947909051 4.425490116666713 0.8498142321754258 429.0 217.34494632953877
1551.1742558776943 357.0206487850139 4.4376298464363115 0.8492255467994312 430.0 217.85783155156358
1556.415533536383 361.4685676277388 4.449797266541384 0.8482801134421223 431.0 218.36945256400142
1561.6798416233246 365.93231198373957 4.461981434833233 0.8479261248165386 432.0 218.87881490603743
1566.9441497102662 370.3960563397403 4.474165603125083 0.8477633383736887 433.0 219.38588862483826
1572.2189771160502 374.86700124439847 4.486357424621471 0.8468223501655103 434.0 219.89190664136743
1577.5448541573928 379.37288998812915 4.498586386669295 0.8460369454182342 435.0 220.3946031402605
1582.8707311987355 383.87877873185977 4.510815348717118 0.8460369454182199 436.0 220.8972996391536
1588.1966082400784 388.38466747559045 4.523044310764942 0.8453584782732193 437.0 221.39592633574898
1593.5670626193526 392.92095244303727 4.535305716579826 0.8444110268717253 438.0 221.89440979105288
1598.9549738582361 397.46914082676454 4.547579827646146 0.8441468654687228 439.0 222.39017105934653
1604.3428850971197 402.0173292104918 4.559853938712466 0.8438933292960087 440.0 222.88459992221763
1609.7474428988737 406.5768250027408 4.572140169016782 0.8429504531742822 441.0 223.37763375677227
1615.1978572700436 411.16746950525715 4.584459784391801 0.8422560542916955 442.0 223.86816092415333
1620.6482716412136 415.75811400777343 4.59677939976682 0.8422560542916884 443.0 224.3585953974958
1626.0986860123835 420.3487585102897 4.60909901514184 0.8414881709294662 444.0 224.8453683813519
1631.6003670814657 424.9740936636621 4.621455963478337 0.840539057102859 445.0 225.332141365208
1637.113757211182 429.60735199037805 4.633821438478876 0.8403646790281485 446.0 225.81648344756059
1642.6271473408983 434.2406103170941 4.646186913479414 0.8400206615407839 447.0 226.29964454203414
1648.1634950057332 438.889344213936 4.658569109473377 0.8390762485992411 448.0 226.78175367545967
1653.74033721168 443.5653752969723 4.670980799441852 0.838472904621554 449.0 227.26144012162266
1659.317179417627 448.24140638000864 4.683392489410328 0.838472904621554 450.0 227.7411265677856
1664.8940216235737 452.917437463045 4.695804179378803 0.8376160517015521 451.0 228.21775794927976
1670.529013113093 457.6325180820473 4.70825822729015 0.8366656225548468 452.0 228.6941020972032
1676.1697874042936 462.3514820803169 4.720716487593606 0.8365808938022923 453.0 229.1688159544794
1681.8105616954942 467.0704460785865 4.733174747897062 0.8361467473407345 454.0 229.64194542237777
1687.4807924514364 471.8091165160182 4.74565446669821 0.8352011401031163 455.0 230.11482084757034
1693.185982528171 476.57117481531265 4.7581596527273895 0.8346888070765388 456.0 230.58485867781556
1698.8911726049055 481.3332331146071 4.77066483875657 0.8346839996292061 457.0 231.0548965080608
1704.596688828258 486.0955087853275 4.783170262379414 0.8337432937223781 458.0 231.52303358835755
1710.3667820819849 490.9008239983948 4.795722729547878 0.8327968027143342 459.0 231.99009840019093
1716.1368753357117 495.7061392114621 4.808275196716342 0.8327968027143342 460.0 232.45665208434008
1721.9069685894385 500.51145442452935 4.820827663884805 0.8322729600133911 461.0 232.92085822313913
1727.7132094238214 505.34077105915947 4.833406462828289 0.8313264923221197 462.0 233.38506436193822
