e[MeV/fm^3], P[MeV/fm^3], rho[fm^-3], v2[1], mu_q[MeV], mu_e[MeV]
94.94636686167317 0.4413807512378042 0.1 0.017144926874012978 317.95915870970356 100.14194102836514
96.25345916895651 0.46438280173863955 0.101370130672262 0.018050828425997673 318.0353072753812 100.71622101815169
97.57878587396496 0.4889147289631433 0.10275903392511473 0.018978478741635052 318.1154229041463 101.29329266428593
98.92261831843756 0.515056838407001 0.10416696696744283 0.01993741618724143 318.1996431681447 101.87339086851273
100.28523268360438 0.5428925939764973 0.1055941905322288 0.020928058904412294 318.28810773703464 102.45675835314887
101.66691010052308 0.5725087295449669 0.10704096892483764 0.021950831429947915 318.3809584218137 103.04364540530885
103.06793676350163 0.6039953672078681 0.10850757007196328 0.0230061667702052 318.47833922847735 103.63430959173816
104.48860404674332 0.637446142746121 0.10999426557124542 0.024094508557870375 318.580396421961 104.22901544452033
105.92920862436137 0.6729583388134567 0.11150133074156637 0.025216313272774044 318.68727860074745 104.82803411806668
107.39005259391891 0.7106330263661252 0.1130290446740369 0.02633262324504132 318.79913678245373 105.43164301794738
108.87144324503501 0.7504575631563305 0.1145776902836806 0.027379788949089157 318.9157811809634 106.03519591929809
110.37369030315959 0.7923452566411414 0.11614755436182667 0.028443750710363952 319.03680960138246 106.63104446790136
111.89710961867719 0.8365427599700687 0.11773892762922022 0.029602860408452614 319.16278568932495 107.22541138144616
113.44202400071198 0.8832022893798355 0.11935210478986052 0.03081675379852644 319.2939817061478 107.8202800772041
115.0087626359432 0.9324608268054214 0.12098738458557669 0.03207653840153257 319.4306135301825 108.41678515399795
116.59766107274434 0.9844526059126987 0.12264506985135126 0.0333788555828351 319.572877575836 109.01574285226425
118.20906130059554 1.0393129083643178 0.12432546757140178 0.034722164226582586 319.72096181198486 109.6178072901194
119.84331186574134 1.097179786861498 0.1260288889360307 0.03610575918483372 319.87505053699624 110.22353627590667
121.50076800626537 1.1581950535431216 0.12775564939925427 0.03752939680139894 320.0353269087984 110.8334244903535
123.18179180011872 1.2225049517695847 0.12950606873722095 0.03899312228419011 320.2019744838251 111.44792217954804
124.88675232321675 1.2902606752037458 0.13128047110743032 0.04049717991058882 320.37517825776854 112.06744650108215
126.61602581622238 1.361618808667125 0.13307918510876326 0.04204196213713013 320.55512543226473 112.6923887791011
128.36999585934686 1.4367417283704906 0.1349025438423348 0.04362797879016134 320.74200602035336 113.32311931570828
130.14905355487275 1.5157979820600824 0.13675088497318028 0.04525583735167221 320.9360133519554 113.95999066088581
131.95359771732294 1.5989626609987286 0.13862455079278757 0.04692622968453386 321.1373445144712 114.60333986649957
133.78403507131554 1.6864177710342154 0.14052388828248494 0.04863992261842359 321.3462007494494 115.25349004662196
135.64078045723807 1.7783526073010185 0.1424492491776985 0.05039775088765619 321.5627878181266 115.91075144995241
137.52425704491307 1.8749641354652484 0.14440099003308907 0.05220061149805344 321.78731634373486 116.57542218065164
139.43489655547157 1.9764573813647432 0.1463794722885824 0.05404945893201141 322.0200021353826 117.24778866062358
141.3731394916697 2.083045830182228 0.14838506233630352 0.05594530080258542 322.2610664963014 117.9281258984746
143.33943537689754 2.1949518357853512 0.15041813158842832 0.0578891936898025 322.5107365178817 118.61669761198014
145.3342430031443 2.312407040480186 0.15247905654596478 0.0598822389718191 322.76924535997193 119.313756238407
147.3580306881816 2.4356528051264106 0.15456821886847674 0.061925578515716895 323.03683251723027 120.01954285838335
149.41127654223357 2.5649406493030553 0.15668600544476283 0.06402039012815364 323.31374407080983 120.73428705289062
151.49446874439718 2.7005327009964972 0.15883280846450362 0.06616788269125529 323.6002329242818 121.45820670855176
153.60810582907197 2.8427021550743365 0.16100902549089094 0.06836929092671873 323.8965590223958 122.1915077831944
155.75269698265143 2.9917337396216346 0.16321505953425178 0.07062586974489937 324.2029895510543 122.93438404130187
157.92876235071572 3.147924189027033 0.16545131912668123 0.07293888814634031 324.5197991166839 123.68701676721646
160.1368333559542 3.311582722530232 0.16771821839769796 0.07530962265178998 324.84726990304495 124.44957446265052
162.37745302703036 3.483031526758055 0.17001617715093623 0.07773935024399081 325.18569180339756 125.22221253408111
164.6511763385809 3.66260624060152 0.17234562094188846 0.08022934081146915 325.5353625258525 126.00507297487326
166.9585705625237 3.850656440604008 0.17470698115671374 0.08278084909070982 325.8965876696714 126.79828404643985
169.30021563082028 4.047546124855926 0.1771006950921248 0.08539510610913514 326.2696807702228 127.60195996234462
171.6767045098178 4.25365419321003 0.17952720603637126 0.08807331013729802 326.65496331028777 128.41620057898425
174.08864358625897 4.469374921459542 0.18198696335133058 0.09081661716551281 327.0527646953988 129.2410910962777
176.53665306502424 4.695118426948568 0.18448042255572536 0.09362613092559324 327.4634221909173 130.07670177168117
179.02136737862796 4.931311122916572 0.18700804540947988 0.0965028924862753 327.88728081859597 130.92308765076032
181.54343560845712 5.178396158724471 0.18957029999923283 0.09944786945729844 328.32469321044726 131.7802883175264
184.1035219177003 5.436833842957312 0.1921676608250214 0.10246194484455995 328.77601941782854 132.64832766772795
186.7023059958707 5.707102046267467 0.19480060888815343 0.10554590560734001 329.2416266737851 133.5272137083043
189.34048351478077 5.989696580702984 0.19746963178028315 0.10870043097556015 329.72188910684457 134.41693838621924
192.01876659578394 6.28513155216587 0.20017522377370764 0.11192608059426701 330.21718740464917 135.31747744991566
194.7378842880429 6.593939682573202 0.20291788591290028 0.11522328257098802 330.72790842603064 136.22879034663245
197.49858305753736 6.916672598244364 0.20569812610729854 0.11859232150941268 331.254444760397 137.15082015882766
200.30162728647443 7.253901081021378 0.20851645922536285 0.12203332662240762 331.7971942335924 138.08349358291213
203.14779978270525 7.6062152786506765 0.21137340718992417 0.12554626002513847 332.3565593597251 139.02672095345017
206.03790229870845 7.97422487101053 0.21426949907483864 0.12913090531688942 332.932946738833 139.98039631587767
208.97275605963816 8.358559188871052 0.2172052712029651 0.13278685656762157 333.5267664006589 140.9443975506967
211.95320229989505 8.759867282019684 0.22018126724548684 0.13651350783185046 334.138431095253 141.9185865518261
214.98010280761576 9.178817933783291 0.22319803832259236 0.14031004331829666 334.768355531599 142.9028094617232
218.05434047644283 9.616099619228022 0.22625614310553732 0.14417542834684327 335.4169555659666 143.89689696545923
221.17681986388018 10.0724204046151 0.2293561479201033 0.14810840122835245 336.08464734222235 144.90066464569247
224.34846775550957 10.548507786057039 0.23249862685147524 0.1521074662029518 336.7718463868946 145.91391340006604
227.57023373430096 11.045108465720485 0.23568416185055527 0.15617088757153552 337.4789666623489 146.93642992212156
230.84309075422277 11.562988064397524 0.23891334284173335 0.16029668515257334 338.20641958201674 147.96798724632671
234.16803571733496 12.102930769778695 0.2421867678321344 0.16448263118950246 338.95461299219335 149.00834535727213
237.54609005352904 12.665738920328916 0.24550504302236242 0.16872624882707177 339.72395012549293 150.05725186250152
240.97830030207166 13.252232525277945 0.24886878291876183 0.17302481226331912 340.51482853159905 151.11444272781222
244.46573869411006 13.863248721880725 0.2522786104472169 0.17737534867077653 341.32763899146863 152.17964307320295
248.00950373530299 14.499641171781702 0.25573515706851063 0.18177464196441262 342.162764421631 153.25256802695756
251.61072078776104 15.162279399011274 0.25923906289526366 0.18621923847491373 343.02057877565136 154.33292363466364
255.27054265051086 15.852048072851947 0.2627909768104763 0.19070545456502286 343.9014459501977 155.42040781926136
258.99015013772936 16.56984623951489 0.2663915565876935 0.19522938620322217 344.8057187034414 156.51471138753368
262.7707526540526 17.316586507263548 0.2700414690128177 0.19978692048454105 345.7337375937395 157.6155190777877
266.6135887663111 18.09319419028743 0.2737413900075891 0.20437374906129868 346.6858299466582 158.7225106428518
270.51992677112264 18.900606417257457 0.27749200475475955 0.2089853834196389 347.6623088584275 159.83536196194274
274.49106525784066 19.73977121107202 0.2812940078249792 0.21361717191002905 348.66347224382025 160.95374617444665
278.52833366645217 20.61164654681457 0.28514810330542434 0.21826431841262917 349.6896019362678 162.07733482823338
282.6330928401043 21.51719939538142 0.28905500493018527 0.22292190249163424 350.74096284770735 163.20579903477514
286.806735572045 22.457404760583426 0.2930154362124422 0.22758490086796312 351.81780219524643 164.33881062310573
291.0506871468638 23.433244717781683 0.2970301305784511 0.2322482100167762 352.9203488012077 165.47604328451476
295.36640587603665 24.445707462261286 0.30109983150336633 0.23690666967600826 354.0488124724866 166.61717369984964
299.75538362787967 25.49578637558757 0.3052252926489232 0.24155508703558404 355.2033834644437 167.76188264138815
304.21914635214523 26.584479118113485 0.30940727800300755 0.24618826136378225 356.38423203374396 168.90985604145197
308.7592545995923 27.712786755619547 0.31364656202113766 0.25080100881845846 357.59150808369253 170.06078602025093
313.3773040369901 28.881712927768064 0.31794392976988456 0.2553881871862518 358.82534090468107 171.21437186587718
318.0749259581095 30.09226306564702 0.3223001770722569 0.2599447202934084 360.0858390113974 172.37032095989775
322.8537877913715 31.345443665174663 0.3267161106550786 0.2644656218363881 361.37309007746103 173.528349642617
327.7155936049114 32.642261622538065 0.33119254829838535 0.26894601838995147 362.68716096714843 174.68818401277815
332.66208460991504 33.98372363716619 0.33573031898686767 0.27338117136401197 364.02809786289913 175.8495606572429
337.69503966315926 35.3708356869955 0.3403302630633898 0.2777664976981793 365.39592648633356 177.01222730700064
342.81627576976535 36.80460257999539 0.34499323238461127 0.2820975891039885 366.79065240961546 178.1759434167117
348.02764858723793 38.28602758509271 0.3497200904787409 0.2863702296889894 368.2122614531486 179.34048066585706
353.33105293190584 39.81611214478573 0.35451171270545256 0.2905804118231612 369.6607201648272 180.50562338043466
358.72842328893415 41.395855670886135 0.3593689864179913 0.2947243501361716 371.1359763753846 181.6711688750005
364.22173432709656 43.026255423985056 0.3642928111275013 0.2987984935632788 372.63795982379526 182.83692771567456
369.81300141952 44.70830647642269 0.3692840986696046 0.302799535386852 374.1665828462073 184.00272390551643
375.5042811716241 46.44300175776399 0.37434377337326313 0.3067244212496534 375.72174112150384 185.16839499440093
381.2976719574698 48.231332181053574 0.3794727722319532 0.3105703551439176 377.30331446632607 186.3337921161855
387.19531446572614 50.074286847456044 0.38467204507718605 0.3143348034070681 378.9111676722288 187.49877995655083
393.1993922564417 51.97285332629083 0.38994255475440603 0.3180154967793083 380.5451513775847 188.66323665540298
399.3121323297738 53.92801800694275 0.39528527730129825 0.32161043060026806 382.20510296689145 189.8270536481518
405.5358057078041 55.94076651868651 0.4007012021285392 0.3251178632416343 383.890847490275 190.99013545052233
411.8727280305149 58.01208421409693 0.40619133220302484 0.32853631288899976 385.6021985961955 192.15239939181075
418.32526016696573 60.14295671143323 0.4117566842336082 0.3318645527995736 387.33895947065554 193.31377530167202
424.89580884264774 62.334370491179754 0.41739828885938196 0.33510160517288057 389.10092377656383 194.47420515561976
431.58682728395144 64.58731354179983 0.42311719084054106 0.33824673377890235 390.887876587319 195.63364268444144
438.4008158806202 66.90277604970314 0.4289144492518606 0.3412994354925418 392.6995953091234 196.79205295268602
445.3403228670059 69.28175112843704 0.434791137678824 0.3442594308849447 394.53585058702333 197.94941191127197
452.40794502289003 71.72523558218649 0.44074834441643845 0.3471266540215865 396.39640719017103 199.1057059291027
459.6063283945767 74.23423069879462 0.44678717267077506 0.349901241613928 398.2810248723229 200.2609313083735
466.93816903690345 76.8097430676861 0.45290874076326954 0.3525835216663502 400.1894592041012 201.4150937880024
474.40621377677365 79.45278541829296 0.45911418233782264 0.35517400175382274 402.1214623740591 202.56820803934892
482.0132609987511 82.16437747482686 0.46540464657073805 0.35767335705739 404.07678395609327 203.72029715808196
489.7621614532206 84.945546823512 0.4717812983835363 0.36008241827575915 406.0551716412196 204.87139215574692
497.65581908756843 87.79732978868721 0.4782453186586851 0.3624021595215643 408.0563719321933 206.02153145425635
505.69719190079616 90.72077231448495 0.4847979044582848 0.36463368630045156 410.08013079987865 207.1707603862059
513.8892928219447 93.71693084910856 0.4914402692457512 0.3667782236607353 412.12619430067645 208.31913070358075
522.235190612672 96.78687322903917 0.49817364311053414 0.36883710459062424 414.1943091546787 209.4667000971167
530.7380107942989 99.93167956081363 0.5049992729959166 0.3708117587298254 416.2842232845566 210.61353172825156
539.4009365996086 103.15244309831789 0.5119184229299338 0.3727037014521839 418.3956863154822 211.7596937753176
548.2272099496666 106.45027111383568 0.5189323742594568 0.37451452336602475 420.52845003664885 212.9052589953419
557.2201324559084 109.82628576136585 0.5260424258874831 0.3762458802701101 422.6822688251836 214.05030430255545
566.3830664477235 113.28162493099788 0.5332498945136785 0.37789948359447756 424.85690003344047 215.19491036447246
575.7194360257621 116.81744309337564 0.5405561148782152 0.37947709134737284 427.05210434083136 216.3391612161691
585.232728141166 120.43491213351783 0.5479624400089494 0.3809804995826127 429.26764607148317 217.48314389319296
594.9264937009413 124.13522217347503 0.5554702414719873 0.38241153439505204 431.5032934791216 218.626948083343
604.8043486996628 127.91958238350074 0.5630809096256828 0.38383982682250384 433.75881900066184 219.7706657974006
611.1800268542556 130.3698019708562 0.5679659403941815 0.3847747512488162 435.0 220.3946031402605
644.2869843340386 131.7585969576477 0.6703505636253051 0.043661844760191526 436.0 220.8972996391536
684.2615260539907 133.58253739083491 0.7938294079073764 0.04759325684748239 437.0 221.39592633574898
722.8957884581107 135.4946651060507 0.9131947311012175 0.05154131368650816 438.0 221.89440979105288
760.2089026779968 137.49164538632186 1.0285724676805676 0.0556506803650465 439.0 222.39017105934653
796.228376851609 139.57025523912048 1.1400949691550322 0.05992247717426702 440.0 222.88459992221763
830.9874741315823 141.72738809603672 1.2478990218692951 0.0643578656794297 441.0 223.37763375677227
864.5234480545641 143.96005685586363 1.3521242442502344 0.06895776799457343 442.0 223.86816092415333
896.8762870415673 146.26539553889836 1.452911801385288 0.07372269403841258 443.0 224.3585953974958
928.0877844046 148.6406599464935 1.5504033707545681 0.07865260999719625 444.0 224.8453683813519
958.2008389171945 151.08322729036826 1.6447403405092473 0.08374682976163461 445.0 225.332141365208
987.2589160279061 153.59059521026987 1.7360631828080209 0.08900391957738263 446.0 225.81648344756059
1015.3056333295228 156.16038018873542 1.8245109904150625 0.09442160255214693 447.0 226.29964454203414
1042.3844399157213 158.79031551533214 1.9102211472779917 0.09999667665315304 448.0 226.78175367545967
1068.5383650005278 161.4782489429793 1.9933291001459024 0.10572494419789313 449.0 227.26144012162266
1093.8098212313787 164.22214005098763 2.0739682151240393 0.11160119469691754 450.0 227.7411265677856
1118.2404329058854 167.02005744262772 2.1522696402537176 0.11761929858325582 451.0 228.21775794927976
1141.870866358218 169.87017568608533 2.228362100790493 0.12377260309881377 452.0 228.6941020972032
1164.7405899320202 172.77077199641866 2.3023713594221675 0.13005509046852382 453.0 229.1688159544794
1186.887433814427 175.72022224622944 2.3744188080267157 0.13646471998486565 454.0 229.64194542237777
1208.3465517719105 178.7169954817774 2.4446175406421764 0.14301443821995186 455.0 230.11482084757034
1229.147383703427 181.75964410198657 2.513060012962942 0.1497867387942602 456.0 230.58485867781556
1249.29987396073 184.84677783309246 2.5797605459458124 0.15720277095414037 457.0 231.0548965080608
1268.7090294547427 187.9729868956955 2.6442889733533614 0.16393210024774607 458.0 231.52303358835755
1287.6960651655777 191.1387550600446 2.7079609778862412 0.1692594503291609 459.0 231.99009840019093
1306.3660508166586 194.3452050761831 2.771224473817087 0.17412700184780494 460.0 232.45665208434008
1324.7628865171616 197.59179698718395 2.834281938205729 0.17865313261527138 461.0 232.92085822313913
1342.938955186329 200.87811330782606 2.897384789476842 0.18269340659542532 462.0 233.38506436193822
1360.9583721501037 204.20388433273527 2.9608520803154383 0.18605719147471866 463.0 233.84734456329724
1378.9017535697014 207.56902427815504 3.0250979540980616 0.18849282442644633 464.0 234.30880224628586
1396.8734876249046 210.97367984023973 3.090673494906855 0.1896707146009966 465.0 234.76971747741462
1415.0128061255118 214.41830941907827 3.158330687592749 0.18916357771539172 466.0 235.2285329357255
1433.5118523385784 217.9037899962418 3.2291267546683993 0.18642879045539207 467.0 235.6873483940364
1452.6456526307616 221.4315919068664 3.3045976439249394 0.18080352684768286 468.0 236.14440461715412
1472.8249013741631 225.00405548096174 3.3870639147341985 0.17152989949152975 469.0 236.60068023418128
1494.6946726550968 228.62485815320775 3.4802034374830604 0.15784467494531462 470.0 237.05655806633607
1519.3342675230324 232.29985287252492 3.5902119927905747 0.13917821629607152 471.0 237.51039251233098
1548.7067080190197 236.03870209072025 3.728415673303693 0.1589025997621052 472.0 237.9642269583259
1569.683704948658 239.84558016407405 3.824428119907825 0.611787629841956 473.0 238.41661545396272
1575.0005279041943 243.6782311042705 3.8359979345894817 0.7229462987692195 474.0 238.86810381685
1580.3018030737983 247.5218299249311 3.847432478256022 0.7266153233741051 475.0 239.31947285900927
1585.5951142557358 251.3763947059746 3.858762795352173 0.7293580537903317 476.0 239.76870677141275
1590.8866150319477 255.24194356538385 3.8700144121891706 0.7313392792580231 477.0 240.21794068381624
1596.1813017516672 259.11849465920324 3.8812083596587064 0.7326976068393165 478.0 240.66615024978054
1601.4832305158486 263.00606618154154 3.892361988659503 0.7335490669846223 479.0 241.11321801226603
1606.7956907284085 266.9046763645698 3.9034896245238677 0.733990420119099 480.0 241.56028577475155
1612.121344689629 270.8143434785239 3.91460309535216 0.7341021022903718 481.0 242.0055298204765
1617.4623404781942 274.7350858317027 3.9257121610113894 0.7339507987715415 482.0 242.45051652103123
1622.820403641636 278.66692177046957 3.936824863134578 0.7335916623165417 483.0 242.89497665377147
1628.1969119926723 282.6098696792522 3.9479478119955664 0.7327850896315695 484.0 243.33796428355086
1633.6104162168497 286.57363897917475 3.9591024477109884 0.7322457854300488 485.0 243.78095191333023
1639.02106200413 290.5358076459153 3.9702543131372154 0.7315972541883191 486.0 244.2227218214353
1644.4743401625446 294.52159649947816 3.9814453393598157 0.7308977715381388 487.0 244.66378938681913
1649.9276183209593 298.507385353041 3.992636365582416 0.7308977715381388 488.0 245.10485695220297
