e[MeV/fm^3], P[MeV/fm^3], rho[fm^-3], v2[1], mu_q[MeV], mu_e[MeV]
94.94636686167317 0.4413807512378042 0.1 0.017144926874012978 317.95915870970356 100.14194102836514
96.25345916895651 0.46438280173863955 0.101370130672262 0.018050828425997673 318.0353072753812 100.71622101815169
97.57878587396496 0.4889147289631433 0.10275903392511473 0.018978478741635052 318.1154229041463 101.29329266428593
98.92261831843756 0.515056838407001 0.10416696696744283 0.01993741618724143 318.1996431681447 101.87339086851273
100.28523268360438 0.5428925939764973 0.1055941905322288 0.020928058904412294 318.28810773703464 102.45675835314887
101.66691010052308 0.5725087295449669 0.10704096892483764 0.021950831429947915 318.3809584218137 103.04364540530885
103.06793676350163 0.6039953672078681 0.10850757007196328 0.0230061667702052 318.47833922847735 103.63430959173816
104.48860404674332 0.637446142746121 0.10999426557124542 0.024094508557870375 318.580396421961 104.22901544452033
105.92920862436137 0.6729583388134567 0.11150133074156637 0.025216313272774044 318.68727860074745 104.82803411806668
107.39005259391891 0.7106330263661252 0.1130290446740369 0.02633262324504132 318.79913678245373 105.43164301794738
108.87144324503501 0.7504575631563305 0.1145776902836806 0.027379788949089157 318.9157811809634 106.03519591929809
110.37369030315959 0.7923452566411414 0.11614755436182667 0.028443750710363952 319.03680960138246 106.63104446790136
111.89710961867719 0.8365427599700687 0.11773892762922022 0.029602860408452614 319.16278568932495 107.22541138144616
113.44202400071198 0.8832022893798355 0.11935210478986052 0.03081675379852644 319.2939817061478 107.8202800772041
115.0087626359432 0.9324608268054214 0.12098738458557669 0.03207653840153257 319.4306135301825 108.41678515399795
116.59766107274434 0.9844526059126987 0.12264506985135126 0.0333788555828351 319.572877575836 109.01574285226425
118.20906130059554 1.0393129083643178 0.12432546757140178 0.034722164226582586 319.72096181198486 109.6178072901194
119.84331186574134 1.097179786861498 0.1260288889360307 0.03610575918483372 319.87505053699624 110.22353627590667
121.50076800626537 1.1581950535431216 0.12775564939925427 0.03752939680139894 320.0353269087984 110.8334244903535
123.18179180011872 1.2225049517695847 0.12950606873722095 0.03899312228419011 320.2019744838251 111.44792217954804
124.88675232321675 1.2902606752037458 0.13128047110743032 0.04049717991058882 320.37517825776854 112.06744650108215
126.61602581622238 1.361618808667125 0.13307918510876326 0.04204196213713013 320.55512543226473 112.6923887791011
128.36999585934686 1.4367417283704906 0.1349025438423348 0.04362797879016134 320.74200602035336 113.32311931570828
130.14905355487275 1.5157979820600824 0.13675088497318028 0.04525583735167221 320.9360133519554 113.95999066088581
131.95359771732294 1.5989626609987286 0.13862455079278757 0.04692622968453386 321.1373445144712 114.60333986649957
133.78403507131554 1.6864177710342154 0.14052388828248494 0.04863992261842359 321.3462007494494 115.25349004662196
135.64078045723807 1.7783526073010185 0.1424492491776985 0.05039775088765619 321.5627878181266 115.91075144995241
137.52425704491307 1.8749641354652484 0.14440099003308907 0.05220061149805344 321.78731634373486 116.57542218065164
139.43489655547157 1.9764573813647432 0.1463794722885824 0.05404945893201141 322.0200021353826 117.24778866062358
141.3731394916697 2.083045830182228 0.14838506233630352 0.05594530080258542 322.2610664963014 117.9281258984746
143.33943537689754 2.1949518357853512 0.15041813158842832 0.0578891936898025 322.5107365178817 118.61669761198014
145.3342430031443 2.312407040480186 0.15247905654596478 0.0598822389718191 322.76924535997193 119.313756238407
147.3580306881816 2.4356528051264106 0.15456821886847674 0.061925578515716895 323.03683251723027 120.01954285838335
149.41127654223357 2.5649406493030553 0.15668600544476283 0.06402039012815364 323.31374407080983 120.73428705289062
151.49446874439718 2.7005327009964972 0.15883280846450362 0.06616788269125529 323.6002329242818 121.45820670855176
153.60810582907197 2.8427021550743365 0.16100902549089094 0.06836929092671873 323.8965590223958 122.1915077831944
155.75269698265143 2.9917337396216346 0.16321505953425178 0.07062586974489937 324.2029895510543 122.93438404130187
157.92876235071572 3.147924189027033 0.16545131912668123 0.07293888814634031 324.5197991166839 123.68701676721646
160.1368333559542 3.311582722530232 0.16771821839769796 0.07530962265178998 324.84726990304495 124.44957446265052
162.37745302703036 3.483031526758055 0.17001617715093623 0.07773935024399081 325.18569180339756 125.22221253408111
164.6511763385809 3.66260624060152 0.17234562094188846 0.08022934081146915 325.5353625258525 126.00507297487326
166.9585705625237 3.850656440604008 0.17470698115671374 0.08278084909070982 325.8965876696714 126.79828404643985
169.30021563082028 4.047546124855926 0.1771006950921248 0.08539510610913514 326.2696807702228 127.60195996234462
171.6767045098178 4.25365419321003 0.17952720603637126 0.08807331013729802 326.65496331028777 128.41620057898425
174.08864358625897 4.469374921459542 0.18198696335133058 0.09081661716551281 327.0527646953988 129.2410910962777
176.53665306502424 4.695118426948568 0.18448042255572536 0.09362613092559324 327.4634221909173 130.07670177168117
179.02136737862796 4.931311122916572 0.18700804540947988 0.0965028924862753 327.88728081859597 130.92308765076032
181.54343560845712 5.178396158724471 0.18957029999923283 0.09944786945729844 328.32469321044726 131.7802883175264
184.1035219177003 5.436833842957312 0.1921676608250214 0.10246194484455995 328.77601941782854 132.64832766772795
186.7023059958707 5.707102046267467 0.19480060888815343 0.10554590560734001 329.2416266737851 133.5272137083043
189.34048351478077 5.989696580702984 0.19746963178028315 0.10870043097556015 329.72188910684457 134.41693838621924
192.01876659578394 6.28513155216587 0.20017522377370764 0.11192608059426701 330.21718740464917 135.31747744991566
194.7378842880429 6.593939682573202 0.20291788591290028 0.11522328257098802 330.72790842603064 136.22879034663245
197.49858305753736 6.916672598244364 0.20569812610729854 0.11859232150941268 331.254444760397 137.15082015882766
200.30162728647443 7.253901081021378 0.20851645922536285 0.12203332662240762 331.7971942335924 138.08349358291213
203.14779978270525 7.6062152786506765 0.21137340718992417 0.12554626002513847 332.3565593597251 139.02672095345017
206.03790229870845 7.97422487101053 0.21426949907483864 0.12913090531688942 332.932946738833 139.98039631587767
208.97275605963816 8.358559188871052 0.2172052712029651 0.13278685656762157 333.5267664006589 140.9443975506967
211.95320229989505 8.759867282019684 0.22018126724548684 0.13651350783185046 334.138431095253 141.9185865518261
214.98010280761576 9.178817933783291 0.22319803832259236 0.14031004331829666 334.768355531599 142.9028094617232
218.05434047644283 9.616099619228022 0.22625614310553732 0.14417542834684327 335.4169555659666 143.89689696545923
221.17681986388018 10.0724204046151 0.2293561479201033 0.14810840122835245 336.08464734222235 144.90066464569247
224.34846775550957 10.548507786057039 0.23249862685147524 0.1521074662029518 336.7718463868946 145.91391340006604
227.57023373430096 11.045108465720485 0.23568416185055527 0.15617088757153552 337.4789666623489 146.93642992212156
230.84309075422277 11.562988064397524 0.23891334284173335 0.16029668515257334 338.20641958201674 147.96798724632671
234.16803571733496 12.102930769778695 0.2421867678321344 0.16448263118950246 338.95461299219335 149.00834535727213
237.54609005352904 12.665738920328916 0.24550504302236242 0.16872624882707177 339.72395012549293 150.05725186250152
240.97830030207166 13.252232525277945 0.24886878291876183 0.17302481226331912 340.51482853159905 151.11444272781222
244.46573869411006 13.863248721880725 0.2522786104472169 0.17737534867077653 341.32763899146863 152.17964307320295
248.00950373530299 14.499641171781702 0.25573515706851063 0.18177464196441262 342.162764421631 153.25256802695756
251.61072078776104 15.162279399011274 0.25923906289526366 0.18621923847491373 343.02057877565136 154.33292363466364
255.27054265051086 15.852048072851947 0.2627909768104763 0.19070545456502286 343.9014459501977 155.42040781926136
258.99015013772936 16.56984623951489 0.2663915565876935 0.19522938620322217 344.8057187034414 156.51471138753368
262.7707526540526 17.316586507263548 0.2700414690128177 0.19978692048454105 345.7337375937395 157.6155190777877
266.6135887663111 18.09319419028743 0.2737413900075891 0.20437374906129868 346.6858299466582 158.7225106428518
270.51992677112264 18.900606417257457 0.27749200475475955 0.2089853834196389 347.6623088584275 159.83536196194274
274.49106525784066 19.73977121107202 0.2812940078249792 0.21361717191002905 348.66347224382025 160.95374617444665
278.52833366645217 20.61164654681457 0.28514810330542434 0.21826431841262917 349.6896019362678 162.07733482823338
282.6330928401043 21.51719939538142 0.28905500493018527 0.22292190249163424 350.74096284770735 163.20579903477514
286.806735572045 22.457404760583426 0.2930154362124422 0.22758490086796312 351.81780219524643 164.33881062310573
291.0506871468638 23.433244717781683 0.2970301305784511 0.2322482100167762 352.9203488012077 165.47604328451476
295.36640587603665 24.445707462261286 0.30109983150336633 0.23690666967600826 354.0488124724866 166.61717369984964
299.75538362787967 25.49578637558757 0.3052252926489232 0.24155508703558404 355.2033834644437 167.76188264138815
304.21914635214523 26.584479118113485 0.30940727800300755 0.24618826136378225 356.38423203374396 168.90985604145197
308.7592545995923 27.712786755619547 0.31364656202113766 0.25080100881845846 357.59150808369253 170.06078602025093
313.3773040369901 28.881712927768064 0.31794392976988456 0.2553881871862518 358.82534090468107 171.21437186587718
318.0749259581095 30.09226306564702 0.3223001770722569 0.2599447202934084 360.0858390113974 172.37032095989775
322.8537877913715 31.345443665174663 0.3267161106550786 0.2644656218363881 361.37309007746103 173.528349642617
327.7155936049114 32.642261622538065 0.33119254829838535 0.26894601838995147 362.68716096714843 174.68818401277815
332.66208460991504 33.98372363716619 0.33573031898686767 0.27338117136401197 364.02809786289913 175.8495606572429
337.69503966315926 35.3708356869955 0.3403302630633898 0.2777664976981793 365.39592648633356 177.01222730700064
342.81627576976535 36.80460257999539 0.34499323238461127 0.2820975891039885 366.79065240961546 178.1759434167117
348.02764858723793 38.28602758509271 0.3497200904787409 0.2863702296889894 368.2122614531486 179.34048066585706
353.33105293190584 39.81611214478573 0.35451171270545256 0.29068153774243655 369.6607201648272 180.50562338043466
361.31657037034097 42.16346677194107 0.3616871801612647 0.2972214116287031 371.0 181.56373895837805
368.09086188030597 42.332751879809116 0.38548143363284554 0.026798970589352877 372.0 182.3417775824483
407.6522957831579 43.489068681741905 0.5240013877337516 0.03165779843334071 373.0 183.113035723863
444.71646632511204 44.74679901160843 0.6540752145954756 0.03655622689152471 374.0 183.8756803869025
479.3782167490131 46.09890601730951 0.7761394921001701 0.041817059687937475 375.0 184.62741291408136
511.7782649022601 47.53883699368082 0.8907190495462327 0.047429925225861425 376.0 185.37343265337012
542.077041333124 49.06055788402297 0.9983739767124233 0.05338302586188959 377.0 186.11029201281738
570.4402881160465 50.65855451480581 1.0996671852035285 0.05966222851194669 378.0 186.8385833323916
597.0308357002133 52.327814547931936 1.1951450386959068 0.06625110064544204 379.0 187.56208621768963
622.0038530549925 54.063798614665345 1.2853258116499646 0.073132096586908 380.0 188.27473512296038
645.503865752473 55.86240538508798 1.3706916582754853 0.0802909054428711 381.0 188.98213785668221
667.6618600894985 57.71993189480421 1.451678289359035 0.08773349680433906 382.0 189.6832528772925
688.5884633073597 59.63302381039831 1.5286450136391174 0.09564215637578544 383.0 190.37549397297113
708.3154202434506 61.598284206004756 1.601607733286269 0.10402706523241667 384.0 191.06426636715048
726.8809826612373 63.60655383579973 1.670617399957258 0.11133801642081687 385.0 191.74341627231462
744.8426110220411 65.66138696069179 1.7381178224757095 0.11741974585893455 386.0 192.41841008682437
762.291846183133 67.76143926116039 1.804495559185166 0.12313367975046718 387.0 193.08711233993236
779.3296506630253 69.90564119459007 1.8702064864391477 0.12827239221347453 388.0 193.74913665510493
796.0731539269689 72.09323470877808 1.9358156845084182 0.1325495303560813 389.0 194.4077367470912
812.6663361282526 74.32383566111392 2.0020612238953746 0.13556887543031682 390.0 195.05755727798646
829.2977109860757 76.59753773404594 2.0699605632294644 0.1367861560004533 391.0 195.70533422849687
846.2311789967857 78.91508694113202 2.1409972430719115 0.1354704776220208 392.0 196.34473274787123
863.863399879331 81.2781832579097 2.217469431669549 0.13068811157768234 393.0 196.98139267269755
882.8392658406334 83.69002964730413 2.303193353379289 0.12136395675891753 394.0 197.61167484125832
904.309731754912 86.1564068870297 2.405076860157758 0.1065271882102854 395.0 198.23787031597547
930.595974842309 88.68801935302717 2.537178365806799 0.13744655190862165 396.0 198.85934778990693
946.590320464268 91.28673586021657 2.613104655696954 0.4330218273826336 397.0 199.475693825992
951.6465847778621 93.90865476102569 2.6262275042910743 0.520852081175903 398.0 200.08866981057037
956.6819853409944 96.54290459457049 2.639151599454355 0.5247559599874645 399.0 200.6957453872934
961.7101146900995 99.1895286656535 2.6519386885099525 0.5274386186297324 400.0 201.30051467927814
966.7412777039259 101.84857038756215 2.6646362064576863 0.5291787091770281 401.0 201.89886428982257
971.7833282214431 104.52007328206815 2.6772808380090116 0.530195108436466 402.0 202.49571333711043
976.8422738103807 107.20408097943037 2.6899011027446447 0.5306590164829945 403.0 203.08584853825403
981.9227189343666 109.90063721839495 2.7025192577743598 0.530703985914764 404.0 203.6750555154176
987.0281936560377 112.6097858461974 2.715152715724635 0.5304340243059347 405.0 204.25745647114007
992.1614000584393 115.3315708185638 2.7278151132973845 0.5295741110715575 406.0 204.83929136948632
997.3567386837866 118.07943378064589 2.7405635129509234 0.5287796516258645 407.0 205.41440837990046
1002.5639430974014 120.83222082224279 2.7533288714607416 0.5286496981757551 408.0 205.9891331107018
1007.7711475110161 123.58500786383968 2.76609422997056 0.5282535437285052 409.0 206.5573881187232
1013.0144745985435 126.35272240198125 2.778911330246415 0.5270924344454784 410.0 207.12525662830706
1018.3289687451224 129.1498463363004 2.7918303695240123 0.5263198824143434 411.0 207.68704469745765
1023.6434628917015 131.94697027061954 2.8047494088016096 0.5263198824143362 412.0 208.2483030928726
1028.9579570382805 134.7440942049387 2.817668448079207 0.5253123321758633 413.0 208.80399385056722
1034.3687534837738 137.58090186775675 2.830724549673426 0.5241564817154529 414.0 209.35888053459985
1039.7921348887846 140.4228954723673 2.8437985628203855 0.5240261365325942 415.0 209.90881957615204
1045.2155162937954 143.2648890769778 2.8568725759673446 0.5235347343951133 416.0 210.45756539050848
1050.6866506880197 146.12650576922326 2.8700141215944797 0.5224070564319767 417.0 211.0020756399369
1056.2205302890009 149.0139062859193 2.8832444017595193 0.5217678599628357 418.0 211.5449040154655
1061.7544098899823 151.9013068026153 2.896474681924559 0.5217678599628339 419.0 212.08428703996188
1067.2882894909635 154.7887073193113 2.9097049620895987 0.5206887825011055 420.0 212.62141415285072
1072.932037917884 157.7211328639534 2.923089635427268 0.5195663748506778 421.0 213.15595142848727
1078.5780400643105 160.65448199891233 2.936477475804376 0.5195444597582082 422.0 213.68758636143002
1084.2240422107373 163.58783113387125 2.9498653161814836 0.5189645746228262 423.0 214.21754048833904
1089.930068639609 166.54571269517479 2.963336973705342 0.5178693352571528 424.0 214.74388539572888
1095.689831092765 169.5255566191107 2.9768836675320056 0.5173553507060316 425.0 215.26950126157584
1101.4495935459208 172.50540054304656 2.9904303613586696 0.5172726768920821 426.0 215.79075153784586
1107.2180553568428 175.48879060449804 3.003989126546804 0.5162040354841704 427.0 216.3120018141159
1113.0932292896953 178.5156799528076 3.017695967102316 0.5151999554232614 428.0 216.8286018792416
1118.968403222548 181.54256930111717 3.031402807657827 0.5151999554232631 429.0 217.34494632953877
1124.8435771554005 184.56945864942674 3.045109648213339 0.5145379566951647 430.0 217.85783155156358
1130.7917030076717 187.6260086261268 3.0589170845778604 0.513474180922838 431.0 218.36945256400142
1136.7839530047527 190.7004984990308 3.0727853651817023 0.5130777044351778 432.0 218.87881490603743
1142.7762030018337 193.77498837193482 3.0866536457855442 0.5128965732773079 433.0 219.38588862483826
1148.788742637342 196.85770660188564 3.100549730086972 0.511858444816566 434.0 219.89190664136743
1154.8997466946316 199.9803565645637 3.114580744097276 0.5109880362381816 435.0 220.3946031402605
1161.0107507519215 203.10300652724172 3.1286117581075796 0.510988036238178 436.0 220.8972996391536
1167.121754809211 206.22565648991974 3.142642772117883 0.5102499176594044 437.0 221.39592633574898
1173.31931013211 209.38331926247818 3.1567916546339827 0.5092166496545687 438.0 221.89440979105288
1179.5507596569262 212.55469334519958 3.1709866954460586 0.5089303973484505 439.0 222.39017105934653
1185.782209181742 215.72606742792095 3.1851817362581345 0.50865743506764 440.0 222.88459992221763
1192.0461911948087 218.9105696946773 3.1994208070819754 0.5076488967265647 441.0 223.37763375677227
1198.3997910056978 222.13123639292613 3.2137811681269053 0.506904242336617 442.0 223.86816092415333
1204.753390816587 225.35190309117496 3.2281415291718356 0.5069042423366135 443.0 224.3585953974958
1211.106990627476 228.57256978942377 3.242501890216766 0.5060956411155679 444.0 224.8453683813519
1217.5614281245496 231.83383057495053 3.256997886533735 0.5050919454099692 445.0 225.332141365208
1224.0388964511837 235.10436284954693 3.2715248612770336 0.5049090338502467 446.0 225.81648344756059
1230.5163647778177 238.3748951241433 3.2860518360203326 0.5045504841262733 447.0 226.29964454203414
1237.0392763771347 241.66367813335552 3.3006395611062764 0.5035706327749381 448.0 226.78175367545967
1243.6423448602118 244.9846534105706 3.3153344430466074 0.5029442426239186 449.0 227.26144012162266
1250.2454133432889 248.30562868778566 3.330029324986939 0.5029442426239186 450.0 227.7411265677856
1256.848481826366 251.62660396500073 3.34472420692727 0.5020704579998778 451.0 228.21775794927976
1263.567376855474 254.99398881958368 3.359572985006789 0.5010954204134599 452.0 228.6941020972032
1270.2977905466187 258.3659889912529 3.374437067674736 0.5010093474797834 453.0 229.1688159544794
1277.028204237763 261.7379891629222 3.389301150342683 0.5005710909937875 454.0 229.64194542237777
1283.817655285782 265.1335904598598 3.4042431977357284 0.4996190440701902 455.0 230.11482084757034
1290.677172647454 268.5572018834897 3.419277774692628 0.4991038353163795 456.0 230.58485867781556
1297.5366900091262 271.98081330711955 3.434312351649527 0.4990990308834746 457.0 231.0548965080608
1304.3968650368474 275.4046870527356 3.4493477918621047 0.49816949007604805 458.0 231.52303358835755
1311.3872579422502 278.88050055160755 3.464554156698919 0.4972272010898777 459.0 231.99009840019093
1318.377650847653 282.35631405047957 3.479760521535733 0.4972272010898777 460.0 232.45665208434008
1325.3680437530559 285.8321275493515 3.494966886372547 0.4967147744319611 461.0 232.92085822313913
1332.431766764162 289.3371255210068 3.5102689244000027 0.49578967060574897 462.0 233.38506436193822
