e[MeV/fm^3], P[MeV/fm^3], rho[fm^-3], v2[1], mu_q[MeV], mu_e[MeV]
94.94636686167317 0.4413807512378042 0.1 0.017144926874012978 317.95915870970356 100.14194102836514
96.25345916895651 0.46438280173863955 0.101370130672262 0.018050828425997673 318.0353072753812 100.71622101815169
97.57878587396496 0.4889147289631433 0.10275903392511473 0.018978478741635052 318.1154229041463 101.29329266428593
98.92261831843756 0.515056838407001 0.10416696696744283 0.01993741618724143 318.1996431681447 101.87339086851273
100.28523268360438 0.5428925939764973 0.1055941905322288 0.020928058904412294 318.28810773703464 102.45675835314887
101.66691010052308 0.5725087295449669 0.10704096892483764 0.021950831429947915 318.3809584218137 103.04364540530885
103.06793676350163 0.6039953672078681 0.10850757007196328 0.0230061667702052 318.47833922847735 103.63430959173816
104.48860404674332 0.637446142746121 0.10999426557124542 0.024094508557870375 318.580396421961 104.22901544452033
105.92920862436137 0.6729583388134567 0.11150133074156637 0.025216313272774044 318.68727860074745 104.82803411806668
107.39005259391891 0.7106330263661252 0.1130290446740369 0.02633262324504132 318.79913678245373 105.43164301794738
108.87144324503501 0.7504575631563305 0.1145776902836806 0.027379788949089157 318.9157811809634 106.03519591929809
110.37369030315959 0.7923452566411414 0.11614755436182667 0.028443750710363952 319.03680960138246 106.63104446790136
111.89710961867719 0.8365427599700687 0.11773892762922022 0.029602860408452614 319.16278568932495 107.22541138144616
113.44202400071198 0.8832022893798355 0.11935210478986052 0.03081675379852644 319.2939817061478 107.8202800772041
115.0087626359432 0.9324608268054214 0.12098738458557669 0.03207653840153257 319.4306135301825 108.41678515399795
116.59766107274434 0.9844526059126987 0.12264506985135126 0.0333788555828351 319.572877575836 109.01574285226425
118.20906130059554 1.0393129083643178 0.12432546757140178 0.034722164226582586 319.72096181198486 109.6178072901194
119.84331186574134 1.097179786861498 0.1260288889360307 0.03610575918483372 319.87505053699624 110.22353627590667
121.50076800626537 1.1581950535431216 0.12775564939925427 0.03752939680139894 320.0353269087984 110.8334244903535
123.18179180011872 1.2225049517695847 0.12950606873722095 0.03899312228419011 320.2019744838251 111.44792217954804
124.88675232321675 1.2902606752037458 0.13128047110743032 0.04049717991058882 320.37517825776854 112.06744650108215
126.61602581622238 1.361618808667125 0.13307918510876326 0.04204196213713013 320.55512543226473 112.6923887791011
128.36999585934686 1.4367417283704906 0.1349025438423348 0.04362797879016134 320.74200602035336 113.32311931570828
130.14905355487275 1.5157979820600824 0.13675088497318028 0.04525583735167221 320.9360133519554 113.95999066088581
131.95359771732294 1.5989626609987286 0.13862455079278757 0.04692622968453386 321.1373445144712 114.60333986649957
133.78403507131554 1.6864177710342154 0.14052388828248494 0.04863992261842359 321.3462007494494 115.25349004662196
135.64078045723807 1.7783526073010185 0.1424492491776985 0.05039775088765619 321.5627878181266 115.91075144995241
137.52425704491307 1.8749641354652484 0.14440099003308907 0.05220061149805344 321.78731634373486 116.57542218065164
139.43489655547157 1.9764573813647432 0.1463794722885824 0.05404945893201141 322.0200021353826 117.24778866062358
141.3731394916697 2.083045830182228 0.14838506233630352 0.05594530080258542 322.2610664963014 117.9281258984746
143.33943537689754 2.1949518357853512 0.15041813158842832 0.0578891936898025 322.5107365178817 118.61669761198014
145.3342430031443 2.312407040480186 0.15247905654596478 0.0598822389718191 322.76924535997193 119.313756238407
147.3580306881816 2.4356528051264106 0.15456821886847674 0.061925578515716895 323.03683251723027 120.01954285838335
149.41127654223357 2.5649406493030553 0.15668600544476283 0.06402039012815364 323.31374407080983 120.73428705289062
151.49446874439718 2.7005327009964972 0.15883280846450362 0.06616788269125529 323.6002329242818 121.45820670855176
153.60810582907197 2.8427021550743365 0.16100902549089094 0.06836929092671873 323.8965590223958 122.1915077831944
155.75269698265143 2.9917337396216346 0.16321505953425178 0.07062586974489937 324.2029895510543 122.93438404130187
157.92876235071572 3.147924189027033 0.16545131912668123 0.07293888814634031 324.5197991166839 123.68701676721646
160.1368333559542 3.311582722530232 0.16771821839769796 0.07530962265178998 324.84726990304495 124.44957446265052
162.37745302703036 3.483031526758055 0.17001617715093623 0.07773935024399081 325.18569180339756 125.22221253408111
164.6511763385809 3.66260624060152 0.17234562094188846 0.08022934081146915 325.5353625258525 126.00507297487326
166.9585705625237 3.850656440604008 0.17470698115671374 0.08278084909070982 325.8965876696714 126.79828404643985
169.30021563082028 4.047546124855926 0.1771006950921248 0.08539510610913514 326.2696807702228 127.60195996234462
171.6767045098178 4.25365419321003 0.17952720603637126 0.08807331013729802 326.65496331028777 128.41620057898425
174.08864358625897 4.469374921459542 0.18198696335133058 0.09081661716551281 327.0527646953988 129.2410910962777
176.53665306502424 4.695118426948568 0.18448042255572536 0.09362613092559324 327.4634221909173 130.07670177168117
179.02136737862796 4.931311122916572 0.18700804540947988 0.0965028924862753 327.88728081859597 130.92308765076032
181.54343560845712 5.178396158724471 0.18957029999923283 0.09944786945729844 328.32469321044726 131.7802883175264
184.1035219177003 5.436833842957312 0.1921676608250214 0.10246194484455995 328.77601941782854 132.64832766772795
186.7023059958707 5.707102046267467 0.19480060888815343 0.10554590560734001 329.2416266737851 133.5272137083043
189.34048351478077 5.989696580702984 0.19746963178028315 0.10870043097556015 329.72188910684457 134.41693838621924
192.01876659578394 6.28513155216587 0.20017522377370764 0.11192608059426701 330.21718740464917 135.31747744991566
194.7378842880429 6.593939682573202 0.20291788591290028 0.11522328257098802 330.72790842603064 136.22879034663245
197.49858305753736 6.916672598244364 0.20569812610729854 0.11859232150941268 331.254444760397 137.15082015882766
200.30162728647443 7.253901081021378 0.20851645922536285 0.12203332662240762 331.7971942335924 138.08349358291213
203.14779978270525 7.6062152786506765 0.21137340718992417 0.12554626002513847 332.3565593597251 139.02672095345017
206.03790229870845 7.97422487101053 0.21426949907483864 0.12913090531688942 332.932946738833 139.98039631587767
208.97275605963816 8.358559188871052 0.2172052712029651 0.13278685656762157 333.5267664006589 140.9443975506967
211.95320229989505 8.759867282019684 0.22018126724548684 0.13651350783185046 334.138431095253 141.9185865518261
214.98010280761576 9.178817933783291 0.22319803832259236 0.14031004331829666 334.768355531599 142.9028094617232
218.05434047644283 9.616099619228022 0.22625614310553732 0.14417542834684327 335.4169555659666 143.89689696545923
221.17681986388018 10.0724204046151 0.2293561479201033 0.14810840122835245 336.08464734222235 144.90066464569247
224.34846775550957 10.548507786057039 0.23249862685147524 0.1521074662029518 336.7718463868946 145.91391340006604
227.57023373430096 11.045108465720485 0.23568416185055527 0.15617088757153552 337.4789666623489 146.93642992212156
230.84309075422277 11.562988064397524 0.23891334284173335 0.16029668515257334 338.20641958201674 147.96798724632671
234.16803571733496 12.102930769778695 0.2421867678321344 0.16448263118950246 338.95461299219335 149.00834535727213
237.54609005352904 12.665738920328916 0.24550504302236242 0.16872624882707177 339.72395012549293 150.05725186250152
240.97830030207166 13.252232525277945 0.24886878291876183 0.17302481226331912 340.51482853159905 151.11444272781222
244.46573869411006 13.863248721880725 0.2522786104472169 0.17737534867077653 341.32763899146863 152.17964307320295
248.00950373530299 14.499641171781702 0.25573515706851063 0.18177464196441262 342.162764421631 153.25256802695756
251.61072078776104 15.162279399011274 0.25923906289526366 0.18621923847491373 343.02057877565136 154.33292363466364
255.27054265051086 15.852048072851947 0.2627909768104763 0.19070545456502286 343.9014459501977 155.42040781926136
258.99015013772936 16.56984623951489 0.2663915565876935 0.19522938620322217 344.8057187034414 156.51471138753368
262.7707526540526 17.316586507263548 0.2700414690128177 0.19978692048454105 345.7337375937395 157.6155190777877
266.6135887663111 18.09319419028743 0.2737413900075891 0.20437374906129868 346.6858299466582 158.7225106428518
270.51992677112264 18.900606417257457 0.27749200475475955 0.2089853834196389 347.6623088584275 159.83536196194274
274.49106525784066 19.73977121107202 0.2812940078249792 0.21361717191002905 348.66347224382025 160.95374617444665
278.52833366645217 20.61164654681457 0.28514810330542434 0.21826431841262917 349.6896019362678 162.07733482823338
282.6330928401043 21.51719939538142 0.28905500493018527 0.22292190249163424 350.74096284770735 163.20579903477514
286.806735572045 22.457404760583426 0.2930154362124422 0.22758490086796312 351.81780219524643 164.33881062310573
291.0506871468638 23.433244717781683 0.2970301305784511 0.2322482100167762 352.9203488012077 165.47604328451476
295.36640587603665 24.445707462261286 0.30109983150336633 0.23690666967600826 354.0488124724866 166.61717369984964
299.75538362787967 25.49578637558757 0.3052252926489232 0.24155508703558404 355.2033834644437 167.76188264138815
304.21914635214523 26.584479118113485 0.30940727800300755 0.24618826136378225 356.38423203374396 168.90985604145197
308.7592545995923 27.712786755619547 0.31364656202113766 0.25080100881845846 357.59150808369253 170.06078602025093
313.3773040369901 28.881712927768064 0.31794392976988456 0.2553881871862518 358.82534090468107 171.21437186587718
318.0749259581095 30.09226306564702 0.3223001770722569 0.2599447202934084 360.0858390113974 172.37032095989775
322.8537877913715 31.345443665174663 0.3267161106550786 0.2651826343683865 361.37309007746103 173.528349642617
325.38580174077873 32.02084538956635 0.32904750473105837 0.26830709980135836 362.0 174.08167723008737
345.2646202547041 32.975124179033436 0.40256200971550565 0.050425843944628124 363.0 174.9591318458806
365.31861213008057 34.043805379056174 0.47674762657873043 0.056154552284107595 364.0 175.82522528260012
384.3650824398445 35.165166318789225 0.5472775718850572 0.06187083556987061 365.0 176.67568622756338
402.4608606084968 36.33627325463754 0.6143745986945678 0.06782433896462403 366.0 177.51624753604267
419.67139583689647 37.55442698756809 0.6782769017752065 0.07397975295680825 367.0 178.34743435378095
436.0645641538953 38.817159669622015 0.7392239919178127 0.08030406791977729 368.0 179.16660278440034
451.70716486926364 40.12222429541077 0.797448113783453 0.08676604965830936 369.0 179.97413892719072
466.6629627108847 41.46758022918246 0.8531692834773368 0.0933362278737786 370.0 180.77367585867728
480.9916565730853 42.85137701810281 0.9065926404445166 0.09998711453124942 371.0 181.56373895837805
494.74840612877335 44.27193774431605 0.9579072300991969 0.10669357683028213 372.0 182.3417775824483
507.98368389619475 45.72774268786121 1.0072855961813398 0.11343340551398895 373.0 183.113035723863
520.7432958276779 47.217413658586395 1.0548837122519592 0.12018825970629621 374.0 183.8756803869025
533.0684466002493 48.739699026378815 1.1008407995056613 0.12694548878610146 375.0 184.62741291408136
544.9957135517358 50.29345933832511 1.145278372855256 0.13370242394412468 376.0 185.37343265337012
556.5566520138705 51.87765256642296 1.1882969664934075 0.14047984627604793 377.0 186.11029201281738
567.776058312455 53.4913168824827 1.2299647122838984 0.14741272232539115 378.0 186.8385833323916
578.6596176539156 55.13353907864573 1.2702424012882836 0.1546908679255088 379.0 187.56208621768963
589.1795363958523 56.79952149095236 1.30890991584712 0.16114033097297664 380.0 188.27473512296038
599.5086535570751 58.49210999134212 1.3469095101090105 0.16658071658885154 381.0 188.98213785668221
609.6637734087724 60.21086353424984 1.3842987454402023 0.17190454708481306 382.0 189.6832528772925
619.6598107270944 61.95534755375778 1.4211279364467435 0.17711005530215296 383.0 190.37549397297113
629.5104856799105 63.72516761916544 1.4574437126220272 0.1821939423011938 384.0 191.06426636715048
639.2284379064533 65.51996607228754 1.4932893922369415 0.18715367332773925 385.0 191.74341627231462
648.8253319089904 67.33941900904223 1.5287053371142183 0.19198733063342877 386.0 192.41841008682437
658.3119555548016 69.18323350600093 1.563729298734241 0.19669352569918264 387.0 193.08711233993236
667.698308349107 71.05114567008901 1.5983967218248227 0.20127117447626164 388.0 193.74913665510493
676.993690826858 72.94291762824936 1.6327411230353834 0.20571938351097208 389.0 194.4077367470912
686.2067816236533 74.85833657416964 1.6667943755160237 0.21003729668266669 390.0 195.05755727798646
695.3457191838629 76.79721263215457 1.7005870962239058 0.21422382589931566 391.0 195.70533422849687
704.418178993637 78.75937780136948 1.7341490187359039 0.21827739089140952 392.0 196.34473274787123
713.4314579145387 80.74468450717805 1.7675094718971982 0.22219558345741852 393.0 196.98139267269755
722.3925608364925 82.75300514843349 1.8006979005088815 0.225974703582267 394.0 197.61167484125832
731.3083042120116 84.78423129750418 1.8337445772428833 0.2296090562777895 395.0 198.23787031597547
740.185438659659 86.83827354449326 1.8666815118714446 0.2330900571378658 396.0 198.85934778990693
749.0308044874403 88.9150618049428 1.899543687257351 0.2364049210478436 397.0 199.475693825992
757.8515363448178 91.01454643548695 1.9323707703276278 0.23953457285105273 398.0 200.08866981057037
766.6553546515681 93.13669961622604 1.9652096554137612 0.24245053622482438 399.0 200.6957453872934
775.4509816506795 95.28151843994749 1.9981181817666525 0.24511013978426988 400.0 201.30051467927814
784.2487699949105 97.44902955563256 2.031170856747987 0.24744873435718162 401.0 201.89886428982257
793.0616819295947 99.63929659182212 2.0644678777111642 0.2493670001174948 402.0 202.49571333711043
801.9068727302991 101.85243184009838 2.0981498487848573 0.2507097154112099 403.0 203.08584853825403
810.8083499877101 104.08861537818628 2.132422616490861 0.2512293499485594 404.0 203.6750555154176
819.8016441736097 106.34812630821718 2.1676011009444904 0.2505225421107973 405.0 204.25745647114007
828.9424301569021 108.63139668671565 2.2041904361507147 0.24791822745959458 406.0 204.83929136948632
838.3234479606265 110.93910828509358 2.243045645628575 0.24228317901649365 407.0 205.41440837990046
848.1103366104624 113.27237729156691 2.285710560552071 0.23170854920662176 408.0 205.9891331107018
858.6254499415476 115.63313583043539 2.335212173521053 0.2131315878281672 409.0 206.5573881187232
870.5727388737566 118.02501041876204 2.3981959434007054 0.24441348107385785 410.0 207.12525662830706
879.3272102423903 120.44833200790353 2.4324937732616236 0.3210187210930826 411.0 207.68704469745765
886.1902146150964 122.88933899875424 2.4491946560350835 0.3556667028541671 412.0 208.2483030928726
893.1005602622646 125.34705309891265 2.4659615721361807 0.3556357002666939 413.0 208.80399385056722
900.0589456532754 127.82155280163236 2.482797975381878 0.35558258345418814 414.0 209.35888053459985
907.0659989461709 130.31291679037818 2.4997069018976363 0.3555111440449483 415.0 209.90881957615204
914.1222883864596 132.82122393882295 2.5166910278415107 0.35539110104094895 416.0 210.45756539050848
921.2612185550093 135.35775821268743 2.5338046102926817 0.3552526132568783 417.0 211.0020756399369
928.4575596888392 137.913859898909 2.5510087230108547 0.35519462441897964 418.0 211.5449040154655
935.6539008226691 140.46996158513056 2.5682128357290273 0.35519462441897787 419.0 212.08428703996188
942.850241956499 143.02606327135211 2.5854169484472003 0.3550264637922158 420.0 212.62141415285072
950.2188101369476 145.64083121768599 2.602891432490098 0.3548508719609149 421.0 213.15595142848727
957.5909111798909 148.25680257448371 2.620371462611452 0.3548474636415566 422.0 213.68758636143002
964.9630122228342 150.87277393128142 2.6378514927328056 0.35475758592877327 423.0 214.21754048833904
972.429364698993 153.52083947332812 2.655478303562665 0.35458794273285754 424.0 214.74388539572888
979.9800946486971 156.19763695264535 2.6732365180744235 0.3545084378791916 425.0 215.26950126157584
987.5308245984012 158.87443443196256 2.6909947325861823 0.35449569233489164 426.0 215.79075153784586
995.0952370650546 161.55588947917425 2.7087740866505006 0.3543317870725442 427.0 216.3120018141159
1002.8274884062871 164.29447735922446 2.7268127525595487 0.3541772970372268 428.0 216.8286018792416
1010.5597397475195 167.03306523927466 2.7448514184685973 0.35417729703723033 429.0 217.34494632953877
1018.2919910887521 169.7716531193249 2.7628900843776454 0.35407636644403695 430.0 217.85783155156358
1026.1391682242422 172.54934929412443 2.781104916540276 0.35391413296179586 431.0 218.36945256400142
1034.05585692884 175.35069967945785 2.7994263008724123 0.3538538004792908 432.0 218.87881490603743
1041.972545633438 178.15205006479127 2.8177476852045484 0.35382632611595355 433.0 219.38588862483826
1049.9212484684651 180.96429111762194 2.83611776052101 0.35366949175513795 434.0 219.89190664136743
1058.025313995282 183.8293839391894 2.8547241303202258 0.35353771660490807 435.0 220.3946031402605
1066.129379522099 186.69447676075683 2.873330500119442 0.35353771660490985 436.0 220.8972996391536
1074.2334450489159 189.55956958232426 2.891936869918658 0.3534269454286889 437.0 221.39592633574898
1082.4742873939736 192.47117706565805 2.910749657364041 0.35327170202935676 438.0 221.89440979105288
1090.7686926888316 195.40100008087236 2.929643279691839 0.35322882244861553 439.0 222.39017105934653
1099.0630979836899 198.33082309608668 2.948536902019637 0.35318806036973527 440.0 222.88459992221763
1107.408992166194 201.27815096663664 2.967507632584459 0.3530379017162151 441.0 223.37763375677227
1115.8967236618353 204.27369975943205 2.9866907745191953 0.3529269032996254 442.0 223.86816092415333
1124.3844551574766 207.26924855222745 3.005873916453932 0.35292690329962717 443.0 224.3585953974958
1132.872186653118 210.26479734502288 3.0250570583886685 0.35280738465348804 444.0 224.8453683813519
1141.5197495633572 213.3146683914421 3.044477735226156 0.3526587405780184 445.0 225.332141365208
1150.2038171793995 216.37694637233093 3.0639526638624197 0.3526317523405478 446.0 225.81648344756059
1158.887884795442 219.43922435321977 3.0834275924986834 0.35257900700889167 447.0 226.29964454203414
1167.6440861096396 222.5260114326877 3.1030089124638196 0.35243515567269945 448.0 226.78175367545967
1176.5275232525285 225.65602983881595 3.1227778949118274 0.3523431703047333 449.0 227.26144012162266
1185.410960395417 228.7860482449442 3.142546877359835 0.3523431703047386 450.0 227.7411265677856
1194.2943975383057 231.91606665107244 3.1623158598078427 0.35221589060895653 451.0 228.21775794927976
1203.3619511738293 235.10862509499864 3.1823543602940454 0.3520734816553972 452.0 228.6941020972032
1212.4478147367972 238.30740299019755 3.2024196636790743 0.3520609651499118 453.0 229.1688159544794
1221.5336782997651 241.50618088539645 3.2224849670641027 0.3519974184474979 454.0 229.64194542237777
1230.7135173341162 244.73687114515405 3.2426868107254623 0.35185953072776144 455.0 230.11482084757034
1240.0048876971418 248.00543541999235 3.2630507021873023 0.35178495174891644 456.0 230.58485867781556
1249.2962580601675 251.27399969483062 3.2834145936491423 0.3517842582426187 457.0 231.0548965080608
1258.5886767180007 254.54291985457843 3.303779996946312 0.35165074154451403 458.0 231.52303358835755
1268.0886577477656 257.8823052264109 3.32444474363874 0.35151495159512436 459.0 231.99009840019093
1277.5886387775308 261.22169059824336 3.3451094903311684 0.35151495159512436 460.0 232.45665208434008
