e[MeV/fm^3], P[MeV/fm^3], rho[fm^-3], v2[1], mu_q[MeV], mu_e[MeV]
94.94636686167317 0.4413807512378042 0.1 0.017144926874012978 317.95915870970356 100.14194102836514
96.25345916895651 0.46438280173863955 0.101370130672262 0.018050828425997673 318.0353072753812 100.71622101815169
97.57878587396496 0.4889147289631433 0.10275903392511473 0.018978478741635052 318.1154229041463 101.29329266428593
98.92261831843756 0.515056838407001 0.10416696696744283 0.01993741618724143 318.1996431681447 101.87339086851273
100.28523268360438 0.5428925939764973 0.1055941905322288 0.020928058904412294 318.28810773703464 102.45675835314887
101.66691010052308 0.5725087295449669 0.10704096892483764 0.021950831429947915 318.3809584218137 103.04364540530885
103.06793676350163 0.6039953672078681 0.10850757007196328 0.0230061667702052 318.47833922847735 103.63430959173816
104.48860404674332 0.637446142746121 0.10999426557124542 0.024094508557870375 318.580396421961 104.22901544452033
105.92920862436137 0.6729583388134567 0.11150133074156637 0.025216313272774044 318.68727860074745 104.82803411806668
107.39005259391891 0.7106330263661252 0.1130290446740369 0.02633262324504132 318.79913678245373 105.43164301794738
108.87144324503501 0.7504575631563305 0.1145776902836806 0.027379788949089157 318.9157811809634 106.03519591929809
110.37369030315959 0.7923452566411414 0.11614755436182667 0.028443750710363952 319.03680960138246 106.63104446790136
111.89710961867719 0.8365427599700687 0.11773892762922022 0.029602860408452614 319.16278568932495 107.22541138144616
113.44202400071198 0.8832022893798355 0.11935210478986052 0.03081675379852644 319.2939817061478 107.8202800772041
115.0087626359432 0.9324608268054214 0.12098738458557669 0.03207653840153257 319.4306135301825 108.41678515399795
116.59766107274434 0.9844526059126987 0.12264506985135126 0.0333788555828351 319.572877575836 109.01574285226425
118.20906130059554 1.0393129083643178 0.12432546757140178 0.034722164226582586 319.72096181198486 109.6178072901194
119.84331186574134 1.097179786861498 0.1260288889360307 0.03610575918483372 319.87505053699624 110.22353627590667
121.50076800626537 1.1581950535431216 0.12775564939925427 0.03752939680139894 320.0353269087984 110.8334244903535
123.18179180011872 1.2225049517695847 0.12950606873722095 0.03899312228419011 320.2019744838251 111.44792217954804
124.88675232321675 1.2902606752037458 0.13128047110743032 0.04049717991058882 320.37517825776854 112.06744650108215
126.61602581622238 1.361618808667125 0.13307918510876326 0.04204196213713013 320.55512543226473 112.6923887791011
128.36999585934686 1.4367417283704906 0.1349025438423348 0.04362797879016134 320.74200602035336 113.32311931570828
130.14905355487275 1.5157979820600824 0.13675088497318028 0.04525583735167221 320.9360133519554 113.95999066088581
131.95359771732294 1.5989626609987286 0.13862455079278757 0.04692622968453386 321.1373445144712 114.60333986649957
133.78403507131554 1.6864177710342154 0.14052388828248494 0.04863992261842359 321.3462007494494 115.25349004662196
135.64078045723807 1.7783526073010185 0.1424492491776985 0.05039775088765619 321.5627878181266 115.91075144995241
137.52425704491307 1.8749641354652484 0.14440099003308907 0.05220061149805344 321.78731634373486 116.57542218065164
139.43489655547157 1.9764573813647432 0.1463794722885824 0.05404945893201141 322.0200021353826 117.24778866062358
141.3731394916697 2.083045830182228 0.14838506233630352 0.05594530080258542 322.2610664963014 117.9281258984746
143.33943537689754 2.1949518357853512 0.15041813158842832 0.0578891936898025 322.5107365178817 118.61669761198014
145.3342430031443 2.312407040480186 0.15247905654596478 0.0598822389718191 322.76924535997193 119.313756238407
147.3580306881816 2.4356528051264106 0.15456821886847674 0.061925578515716895 323.03683251723027 120.01954285838335
149.41127654223357 2.5649406493030553 0.15668600544476283 0.06402039012815364 323.31374407080983 120.73428705289062
151.49446874439718 2.7005327009964972 0.15883280846450362 0.06616788269125529 323.6002329242818 121.45820670855176
153.60810582907197 2.8427021550743365 0.16100902549089094 0.06836929092671873 323.8965590223958 122.1915077831944
155.75269698265143 2.9917337396216346 0.16321505953425178 0.07062586974489937 324.2029895510543 122.93438404130187
157.92876235071572 3.147924189027033 0.16545131912668123 0.07293888814634031 324.5197991166839 123.68701676721646
160.1368333559542 3.311582722530232 0.16771821839769796 0.07530962265178998 324.84726990304495 124.44957446265052
162.37745302703036 3.483031526758055 0.17001617715093623 0.07773935024399081 325.18569180339756 125.22221253408111
164.6511763385809 3.66260624060152 0.17234562094188846 0.08022934081146915 325.5353625258525 126.00507297487326
166.9585705625237 3.850656440604008 0.17470698115671374 0.08278084909070982 325.8965876696714 126.79828404643985
169.30021563082028 4.047546124855926 0.1771006950921248 0.08539510610913514 326.2696807702228 127.60195996234462
171.6767045098178 4.25365419321003 0.17952720603637126 0.08807331013729802 326.65496331028777 128.41620057898425
174.08864358625897 4.469374921459542 0.18198696335133058 0.09081661716551281 327.0527646953988 129.2410910962777
176.53665306502424 4.695118426948568 0.18448042255572536 0.09362613092559324 327.4634221909173 130.07670177168117
179.02136737862796 4.931311122916572 0.18700804540947988 0.0965028924862753 327.88728081859597 130.92308765076032
181.54343560845712 5.178396158724471 0.18957029999923283 0.09944786945729844 328.32469321044726 131.7802883175264
184.1035219177003 5.436833842957312 0.1921676608250214 0.10246194484455995 328.77601941782854 132.64832766772795
186.7023059958707 5.707102046267467 0.19480060888815343 0.10554590560734001 329.2416266737851 133.5272137083043
189.34048351478077 5.989696580702984 0.19746963178028315 0.10870043097556015 329.72188910684457 134.41693838621924
192.01876659578394 6.28513155216587 0.20017522377370764 0.11192608059426701 330.21718740464917 135.31747744991566
194.7378842880429 6.593939682573202 0.20291788591290028 0.11522328257098802 330.72790842603064 136.22879034663245
197.49858305753736 6.916672598244364 0.20569812610729854 0.11859232150941268 331.254444760397 137.15082015882766
200.30162728647443 7.253901081021378 0.20851645922536285 0.12203332662240762 331.7971942335924 138.08349358291213
203.14779978270525 7.6062152786506765 0.21137340718992417 0.12554626002513847 332.3565593597251 139.02672095345017
206.03790229870845 7.97422487101053 0.21426949907483864 0.12913090531688942 332.932946738833 139.98039631587767
208.97275605963816 8.358559188871052 0.2172052712029651 0.13278685656762157 333.5267664006589 140.9443975506967
211.95320229989505 8.759867282019684 0.22018126724548684 0.13651350783185046 334.138431095253 141.9185865518261
214.98010280761576 9.178817933783291 0.22319803832259236 0.14031004331829666 334.768355531599 142.9028094617232
218.05434047644283 9.616099619228022 0.22625614310553732 0.14417542834684327 335.4169555659666 143.89689696545923
221.17681986388018 10.0724204046151 0.2293561479201033 0.14810840122835245 336.08464734222235 144.90066464569247
224.34846775550957 10.548507786057039 0.23249862685147524 0.1521074662029518 336.7718463868946 145.91391340006604
227.57023373430096 11.045108465720485 0.23568416185055527 0.15617088757153552 337.4789666623489 146.93642992212156
230.84309075422277 11.562988064397524 0.23891334284173335 0.16029668515257334 338.20641958201674 147.96798724632671
234.16803571733496 12.102930769778695 0.2421867678321344 0.16448263118950246 338.95461299219335 149.00834535727213
237.54609005352904 12.665738920328916 0.24550504302236242 0.16872624882707177 339.72395012549293 150.05725186250152
240.97830030207166 13.252232525277945 0.24886878291876183 0.17302481226331912 340.51482853159905 151.11444272781222
244.46573869411006 13.863248721880725 0.2522786104472169 0.17737534867077653 341.32763899146863 152.17964307320295
248.00950373530299 14.499641171781702 0.25573515706851063 0.18177464196441262 342.162764421631 153.25256802695756
251.61072078776104 15.162279399011274 0.25923906289526366 0.18621923847491373 343.02057877565136 154.33292363466364
255.27054265051086 15.852048072851947 0.2627909768104763 0.19088942477291404 343.9014459501977 155.42040781926136
259.6004940250407 16.690981326109767 0.2669836399087311 0.19661296529672878 344.0 155.53967277331367
276.7392786737294 16.727370787722883 0.3233109618568645 0.0031652576315742073 345.0 156.74516612025525
489.2793428187382 17.8959455845558 1.0215147352064902 0.00783102019052754 346.0 157.9251006398289
666.5317833565762 19.628867827320036 1.6123306623088423 0.012400313398092264 347.0 159.08055683726147
816.6057994357166 21.823212154157158 2.1237629924413692 0.015647037670538586 348.0 160.21259153999904
972.9170089057889 24.43594464136534 2.6758896420683653 0.015897096693443608 349.0 161.32223640654
1186.522020425816 27.592916441532722 3.4644107561348054 0.3179756794705524 350.0 162.41049644846333
1197.0208965465552 31.087761766782585 3.4975674682026066 0.4105088603557556 351.0 163.4783485994121
1204.5549516507667 34.60026777551565 3.520048991457344 0.504515609184458 352.0 164.52674036075354
1211.1181977607075 38.13050030712235 3.5389266758034754 0.5493293696312684 353.0 165.55658854961555
1217.469838008741 41.69002636323526 3.556883897584066 0.5612333066784889 354.0 166.56781331863417
1223.8201118153313 45.259235284825074 3.5747877553350116 0.5614389191514491 355.0 167.56023642653295
1230.2314574962488 48.85482049099427 3.592789506055345 0.5608159948185225 356.0 168.5363211398076
1236.6428031771663 52.45040569716347 3.610791256775679 0.5606382483412733 357.0 169.49688484267628
1243.0716801918563 56.05353421058506 3.6288209166773737 0.5592034421609902 358.0 170.44271012268118
1249.6283898486379 59.71166600605537 3.647054081026497 0.5579218826148162 359.0 171.3745442786088
1256.1850995054194 63.36979780152568 3.66528724537562 0.5579218826148162 360.0 172.2916016608145
1262.741809162201 67.02792959699599 3.683520409724743 0.5569702726837482 361.0 173.19271270097593
1269.3972803638012 70.72840039640509 3.7019097271884487 0.5555407384541642 362.0 174.08167723008737
1276.1017610538079 74.44988152859584 3.7203765341676616 0.5550737341577827 363.0 174.9591318458806
1282.8062417438146 78.1713626607866 3.7388433411468744 0.5547663599387906 364.0 175.82522528260012
1289.543177971035 81.9067074639023 3.757361115381444 0.5533736392302391 365.0 176.67568622756338
1296.397859868147 85.69234837548987 3.776063794077308 0.5522708374231851 366.0 177.51624753604267
1303.252541765259 89.47798928707743 3.794766472773172 0.5522708374231851 367.0 178.34743435378095
1310.1072236623709 93.26363019866501 3.813469151469036 0.5512208778543455 368.0 179.16660278440034
1317.0785059795637 97.09890248451335 3.8323536961674005 0.5498335972175727 369.0 179.97413892719072
1324.0858423740185 100.9495213137186 3.8512944757481176 0.549512484123424 370.0 180.77367585867728
1331.093178768473 104.80014014292388 3.870235255328834 0.5490846947575863 371.0 181.56373895837805
1338.1488474043058 108.67126064350022 3.889250911633859 0.5477329330803755 372.0 182.3417775824483
1345.3113147025385 112.58768322436427 3.908432021345823 0.5467979702790942 373.0 183.113035723863
1352.4737820007713 116.50410580522832 3.927613131057787 0.546797970279103 374.0 183.8756803869025
1359.6362492990038 120.42052838609237 3.946794240769751 0.5456575149224321 375.0 184.62741291408136
1366.934167868042 124.39421214879009 3.9661837809660785 0.5443113242837523 376.0 185.37343265337012
1374.2542655925338 128.3772720114372 3.985607450130606 0.5441265967420819 377.0 186.11029201281738
1381.5743633170255 132.36033187408432 4.005031119295134 0.5435870862826899 378.0 186.8385833323916
1388.959648972348 136.37085786320247 4.024554426130517 0.5422751557547851 379.0 187.56208621768963
1396.439899761474 140.42139623409332 4.044222884140726 0.5414976696742713 380.0 188.27473512296038
1403.9201505506 144.47193460498414 4.063891342150935 0.5414976696742677 381.0 188.98213785668221
1411.400401339726 148.52247297587496 4.083559800161145 0.5402741036768735 382.0 189.6832528772925
1419.0359927095767 152.63824859271423 4.10346410479674 0.5389678421824904 383.0 190.37549397297113
1426.6789423174619 156.7571143948879 4.12337958111459 0.5389105009830626 384.0 191.06426636715048
1434.321891925347 160.8759801970616 4.143295057432439 0.5382674651598798 385.0 191.74341627231462
1442.0478906229268 165.02961185407582 4.163335783918942 0.5369942413707545 386.0 192.41841008682437
1449.8561079193048 169.2176617073822 4.183500508072411 0.5363644087171071 387.0 193.08711233993236
1457.6643252156825 173.4057115606886 4.20366523222588 0.5363002022896133 388.0 193.74913665510493
1465.4809776715426 177.59728143248824 4.223842593435978 0.5350593206927119 389.0 194.4077367470912
1473.457054641617 181.85537965381084 4.244258795016375 0.5338587174244509 390.0 195.05755727798646
1481.4331316116914 186.1134778751334 4.264674996596772 0.5338587174244473 391.0 195.70533422849687
1489.4092085817658 190.371576096456 4.285091198177169 0.5331198744546857 392.0 196.34473274787123
1497.4872277535196 194.67208399353498 4.305659114040994 0.5318842406939961 393.0 196.98139267269755
1505.633779497831 199.00110259700477 4.326329022700401 0.5313927584751035 394.0 197.61167484125832
1513.7803312421424 203.3301212004746 4.346998931359808 0.5312130030698388 395.0 198.23787031597547
1521.9521105076078 207.66960313418647 4.367706137340288 0.5300085476917431 396.0 198.85934778990693
1530.2717752419067 212.07042183138645 4.388631982789126 0.5289658703501665 397.0 199.475693825992
1538.5914399762055 216.47124052858643 4.409557828237963 0.5289658703501754 398.0 200.08866981057037
1546.911104710504 220.87205922578642 4.430483673686801 0.528138482050931 399.0 200.6957453872934
1555.352663194918 225.32328433207644 4.4515885492095535 0.5269393329227174 400.0 201.30051467927814
1563.8481022500348 229.79679053223956 4.472772561214253 0.5265773989007361 401.0 201.89886428982257
1572.3435413051516 234.27029673240267 4.493956573218951 0.5262901289076236 402.0 202.49571333711043
1580.8820256909075 238.7615515018203 4.515203394399793 0.5251210314568429 403.0 203.08584853825403
1589.5559235126332 243.30864031201767 4.536647802780581 0.524226697576287 404.0 203.6750555154176
1598.2298213343588 247.85572912221505 4.5580922111613695 0.5242266975762924 405.0 204.25745647114007
1606.9037191560842 252.40281793241243 4.579536619542157 0.5233175905366423 406.0 204.83929136948632
1615.7205471957848 257.0086716178602 4.6011882255155925 0.5221538350248469 407.0 205.41440837990046
1624.5756113447521 261.63024584318384 4.622895260144385 0.5219131276268119 408.0 205.9891331107018
1633.4306754937197 266.2518200685075 4.644602294773177 0.5215259118035274 409.0 206.5573881187232
1642.3476547139146 270.89877884927665 4.666398502082183 0.5203911182279644 410.0 207.12525662830706
1651.3866158654828 275.5957489930129 4.688370392880562 0.5196360582788184 411.0 207.68704469745765
1660.425577017051 280.29271913674916 4.71034228367894 0.5196360582788184 412.0 208.2483030928726
1669.4645381686191 284.9896892804854 4.7323141744773185 0.5186516448922553 413.0 208.80399385056722
1678.6685774080922 289.75415331935164 4.754522282162376 0.5175222089360396 414.0 209.35888053459985
1687.8941893522347 294.52743758314966 4.776761259099669 0.5173948668877877 415.0 209.90881957615204
1697.1198012963773 299.3007218469477 4.799000236036963 0.5169148302834099 416.0 210.45756539050848
1706.4272764663826 304.1073862199932 4.821355600859971 0.5158133031793426 417.0 211.0020756399369
1715.8423161075798 308.9579105040266 4.84386389395142 0.515188939068203 418.0 211.5449040154655
1725.257355748777 313.80843478806 4.8663721870428684 0.5151889390681959 419.0 212.08428703996188
1734.6723953899743 318.6589590720934 4.888880480134317 0.5141352382642239 420.0 212.62141415285072
1744.275798873421 323.58608564618777 4.911654861223969 0.5130390668982763 421.0 213.15595142848727
1753.8830662305552 328.5147835493091 4.93443470052897 0.5130176688027106 422.0 213.68758636143002
1763.490333587689 333.4434814524303 4.957214539833971 0.5124515144035868 423.0 214.21754048833904
1773.2005172219954 338.4139234071132 4.980138833978771 0.5113822350150343 424.0 214.74388539572888
1783.0028354282465 343.42173622700363 5.003192449599201 0.5108804585324371 425.0 215.26950126157584
1792.8051536344976 348.42954904689407 5.026246065219632 0.5107997554829247 426.0 215.79075153784586
1802.622388707319 353.4433968351329 5.049320485346961 0.5097567909193899 427.0 216.3120018141159
1812.6226040100698 358.5312735684456 5.072650107425586 0.5087767192285497 428.0 216.8286018792416
1822.6228193128209 363.6191503017584 5.095979729504211 0.5087767192285497 429.0 217.34494632953877
1832.6230346155717 368.7070270350711 5.119309351582835 0.5081307491886982 430.0 217.85783155156358
1842.7483506258116 373.84538897209757 5.142812347246377 0.507092719044099 431.0 218.36945256400142
1852.9493323865486 379.014286314596 5.16642020596531 0.5067058704479983 432.0 218.87881490603743
1863.1503141472858 384.1831836570945 5.190028064684244 0.5065291531186986 433.0 219.38588862483826
1873.3860919067083 389.3660884877464 5.213683842364237 0.5055164772528968 434.0 219.89190664136743
1883.7907326009288 394.6169708344374 5.237572167943484 0.5046673403732029 435.0 220.3946031402605
1894.195373295149 399.8678531811283 5.261460493522732 0.5046673403732029 436.0 220.8972996391536
1904.6000139893692 405.11873552781924 5.28534881910198 0.503947476720537 437.0 221.39592633574898
1915.1530976824602 410.42923026192614 5.309440288840549 0.5029397189492606 438.0 221.89440979105288
1925.7643128995842 415.76306970718895 5.333611311536616 0.5026605658374734 439.0 222.39017105934653
1936.3755281167084 421.0969091524518 5.357782334232684 0.5023943957890609 440.0 222.88459992221763
1947.0425433387884 426.45310364947125 5.382029242117941 0.5014110663001965 441.0 223.37763375677227
1957.863271782068 431.87087998717874 5.406485192222481 0.5006849923373018 442.0 223.86816092415333
1968.6840002253477 437.2886563248863 5.430941142327019 0.5006849923373053 443.0 224.3585953974958
1979.5047286686274 442.7064326625938 5.455397092431558 0.4998967970712904 444.0 224.8453683813519
1990.49842674503 448.1933434250303 5.4800868091336294 0.4989183574378053 445.0 225.332141365208
2001.5316302314666 453.6960441486704 5.504829916972174 0.49874007403241194 446.0 225.81648344756059
2012.5648337179032 459.1987448723105 5.529573024810718 0.49839062574016424 447.0 226.29964454203414
2023.675992571754 464.7325320768486 5.554420835878598 0.4974357221597643 448.0 226.78175367545967
2034.9246560320162 470.32115237963745 5.579453331809333 0.496825273734224 449.0 227.26144012162266
2046.1733194922783 475.90977268242636 5.604485827740069 0.4968252737342205 450.0 227.7411265677856
2057.4219829525405 481.4983929852152 5.629518323670804 0.4959739682525246 451.0 228.21775794927976
2068.869353504622 487.1660734260388 5.654816060532267 0.4950239159432641 452.0 228.6941020972032
2080.336484982962 492.8416162010315 5.680140174944851 0.494940062884357 453.0 229.1688159544794
2091.8036164613018 498.5171589760243 5.705464289357436 0.4945131442338173 454.0 229.64194542237777
2103.3720365074882 504.23291234867355 5.730922776885951 0.4935857686778071 455.0 230.11482084757034
2115.0606671616683 509.99638818887115 5.756540740200403 0.49308392152304137 456.0 230.58485867781556
2126.749297815849 515.7598640290688 5.782158703514856 0.49307924206634723 457.0 231.0548965080608
2138.4390568793106 521.5237868610166 5.807778154665244 0.49217405584103346 458.0 231.52303358835755
2150.352240980527 527.3762140594683 5.83369219733086 0.4912563382491868 459.0 231.99009840019093
2162.2654250817427 533.2286412579202 5.859606239996476 0.4912563382491868 460.0 232.45665208434008
2174.178609182959 539.081068456372 5.8855202826620925 0.4907574102918204 461.0 232.92085822313913
