e[MeV/fm^3], P[MeV/fm^3], rho[fm^-3], v2[1], mu_q[MeV], mu_e[MeV]
94.94636686167317 0.4413807512378042 0.1 0.017144926874012978 317.95915870970356 100.14194102836514
96.25345916895651 0.46438280173863955 0.101370130672262 0.018050828425997673 318.0353072753812 100.71622101815169
97.57878587396496 0.4889147289631433 0.10275903392511473 0.018978478741635052 318.1154229041463 101.29329266428593
98.92261831843756 0.515056838407001 0.10416696696744283 0.01993741618724143 318.1996431681447 101.87339086851273
100.28523268360438 0.5428925939764973 0.1055941905322288 0.020928058904412294 318.28810773703464 102.45675835314887
101.66691010052308 0.5725087295449669 0.10704096892483764 0.021950831429947915 318.3809584218137 103.04364540530885
103.06793676350163 0.6039953672078681 0.10850757007196328 0.0230061667702052 318.47833922847735 103.63430959173816
104.48860404674332 0.637446142746121 0.10999426557124542 0.024094508557870375 318.580396421961 104.22901544452033
105.92920862436137 0.6729583388134567 0.11150133074156637 0.025216313272774044 318.68727860074745 104.82803411806668
107.39005259391891 0.7106330263661252 0.1130290446740369 0.02633262324504132 318.79913678245373 105.43164301794738
108.87144324503501 0.7504575631563305 0.1145776902836806 0.027379788949089157 318.9157811809634 106.03519591929809
110.37369030315959 0.7923452566411414 0.11614755436182667 0.028443750710363952 319.03680960138246 106.63104446790136
111.89710961867719 0.8365427599700687 0.11773892762922022 0.029602860408452614 319.16278568932495 107.22541138144616
113.44202400071198 0.8832022893798355 0.11935210478986052 0.03081675379852644 319.2939817061478 107.8202800772041
115.0087626359432 0.9324608268054214 0.12098738458557669 0.03207653840153257 319.4306135301825 108.41678515399795
116.59766107274434 0.9844526059126987 0.12264506985135126 0.0333788555828351 319.572877575836 109.01574285226425
118.20906130059554 1.0393129083643178 0.12432546757140178 0.034722164226582586 319.72096181198486 109.6178072901194
119.84331186574134 1.097179786861498 0.1260288889360307 0.03610575918483372 319.87505053699624 110.22353627590667
121.50076800626537 1.1581950535431216 0.12775564939925427 0.03752939680139894 320.0353269087984 110.8334244903535
123.18179180011872 1.2225049517695847 0.12950606873722095 0.03899312228419011 320.2019744838251 111.44792217954804
124.88675232321675 1.2902606752037458 0.13128047110743032 0.04049717991058882 320.37517825776854 112.06744650108215
126.61602581622238 1.361618808667125 0.13307918510876326 0.04204196213713013 320.55512543226473 112.6923887791011
128.36999585934686 1.4367417283704906 0.1349025438423348 0.04362797879016134 320.74200602035336 113.32311931570828
130.14905355487275 1.5157979820600824 0.13675088497318028 0.04525583735167221 320.9360133519554 113.95999066088581
131.95359771732294 1.5989626609987286 0.13862455079278757 0.04692622968453386 321.1373445144712 114.60333986649957
133.78403507131554 1.6864177710342154 0.14052388828248494 0.04863992261842359 321.3462007494494 115.25349004662196
135.64078045723807 1.7783526073010185 0.1424492491776985 0.05039775088765619 321.5627878181266 115.91075144995241
137.52425704491307 1.8749641354652484 0.14440099003308907 0.05220061149805344 321.78731634373486 116.57542218065164
139.43489655547157 1.9764573813647432 0.1463794722885824 0.05404945893201141 322.0200021353826 117.24778866062358
141.3731394916697 2.083045830182228 0.14838506233630352 0.05594530080258542 322.2610664963014 117.9281258984746
143.33943537689754 2.1949518357853512 0.15041813158842832 0.0578891936898025 322.5107365178817 118.61669761198014
145.3342430031443 2.312407040480186 0.15247905654596478 0.0598822389718191 322.76924535997193 119.313756238407
147.3580306881816 2.4356528051264106 0.15456821886847674 0.061925578515716895 323.03683251723027 120.01954285838335
149.41127654223357 2.5649406493030553 0.15668600544476283 0.06402039012815364 323.31374407080983 120.73428705289062
151.49446874439718 2.7005327009964972 0.15883280846450362 0.06616788269125529 323.6002329242818 121.45820670855176
153.60810582907197 2.8427021550743365 0.16100902549089094 0.06836929092671873 323.8965590223958 122.1915077831944
155.75269698265143 2.9917337396216346 0.16321505953425178 0.07062586974489937 324.2029895510543 122.93438404130187
157.92876235071572 3.147924189027033 0.16545131912668123 0.07293888814634031 324.5197991166839 123.68701676721646
160.1368333559542 3.311582722530232 0.16771821839769796 0.07530962265178998 324.84726990304495 124.44957446265052
162.37745302703036 3.483031526758055 0.17001617715093623 0.07773935024399081 325.18569180339756 125.22221253408111
164.6511763385809 3.66260624060152 0.17234562094188846 0.08022934081146915 325.5353625258525 126.00507297487326
166.9585705625237 3.850656440604008 0.17470698115671374 0.08278084909070982 325.8965876696714 126.79828404643985
169.30021563082028 4.047546124855926 0.1771006950921248 0.08539510610913514 326.2696807702228 127.60195996234462
171.6767045098178 4.25365419321003 0.17952720603637126 0.08807331013729802 326.65496331028777 128.41620057898425
174.08864358625897 4.469374921459542 0.18198696335133058 0.09081661716551281 327.0527646953988 129.2410910962777
176.53665306502424 4.695118426948568 0.18448042255572536 0.09362613092559324 327.4634221909173 130.07670177168117
179.02136737862796 4.931311122916572 0.18700804540947988 0.0965028924862753 327.88728081859597 130.92308765076032
181.54343560845712 5.178396158724471 0.18957029999923283 0.09944786945729844 328.32469321044726 131.7802883175264
184.1035219177003 5.436833842957312 0.1921676608250214 0.10246194484455995 328.77601941782854 132.64832766772795
186.7023059958707 5.707102046267467 0.19480060888815343 0.10554590560734001 329.2416266737851 133.5272137083043
189.34048351478077 5.989696580702984 0.19746963178028315 0.10870043097556015 329.72188910684457 134.41693838621924
192.01876659578394 6.28513155216587 0.20017522377370764 0.11192608059426701 330.21718740464917 135.31747744991566
194.7378842880429 6.593939682573202 0.20291788591290028 0.11522328257098802 330.72790842603064 136.22879034663245
197.49858305753736 6.916672598244364 0.20569812610729854 0.11859232150941268 331.254444760397 137.15082015882766
200.30162728647443 7.253901081021378 0.20851645922536285 0.12203332662240762 331.7971942335924 138.08349358291213
203.14779978270525 7.6062152786506765 0.21137340718992417 0.12554626002513847 332.3565593597251 139.02672095345017
206.03790229870845 7.97422487101053 0.21426949907483864 0.12913090531688942 332.932946738833 139.98039631587767
208.97275605963816 8.358559188871052 0.2172052712029651 0.13278685656762157 333.5267664006589 140.9443975506967
211.95320229989505 8.759867282019684 0.22018126724548684 0.13651350783185046 334.138431095253 141.9185865518261
214.98010280761576 9.178817933783291 0.22319803832259236 0.14031004331829666 334.768355531599 142.9028094617232
218.05434047644283 9.616099619228022 0.22625614310553732 0.14417542834684327 335.4169555659666 143.89689696545923
221.17681986388018 10.0724204046151 0.2293561479201033 0.14810840122835245 336.08464734222235 144.90066464569247
224.34846775550957 10.548507786057039 0.23249862685147524 0.1521074662029518 336.7718463868946 145.91391340006604
227.57023373430096 11.045108465720485 0.23568416185055527 0.15617088757153552 337.4789666623489 146.93642992212156
230.84309075422277 11.562988064397524 0.23891334284173335 0.16029668515257334 338.20641958201674 147.96798724632671
234.16803571733496 12.102930769778695 0.2421867678321344 0.16448263118950246 338.95461299219335 149.00834535727213
237.54609005352904 12.665738920328916 0.24550504302236242 0.16872624882707177 339.72395012549293 150.05725186250152
240.97830030207166 13.252232525277945 0.24886878291876183 0.17302481226331912 340.51482853159905 151.11444272781222
244.46573869411006 13.863248721880725 0.2522786104472169 0.17737534867077653 341.32763899146863 152.17964307320295
248.00950373530299 14.499641171781702 0.25573515706851063 0.18177464196441262 342.162764421631 153.25256802695756
251.61072078776104 15.162279399011274 0.25923906289526366 0.18621923847491373 343.02057877565136 154.33292363466364
255.27054265051086 15.852048072851947 0.2627909768104763 0.19070545456502286 343.9014459501977 155.42040781926136
258.99015013772936 16.56984623951489 0.2663915565876935 0.19522938620322217 344.8057187034414 156.51471138753368
262.7707526540526 17.316586507263548 0.2700414690128177 0.19978692048454105 345.7337375937395 157.6155190777877
266.6135887663111 18.09319419028743 0.2737413900075891 0.20437374906129868 346.6858299466582 158.7225106428518
270.51992677112264 18.900606417257457 0.27749200475475955 0.2089853834196389 347.6623088584275 159.83536196194274
274.49106525784066 19.73977121107202 0.2812940078249792 0.21361717191002905 348.66347224382025 160.95374617444665
278.52833366645217 20.61164654681457 0.28514810330542434 0.21826431841262917 349.6896019362678 162.07733482823338
282.6330928401043 21.51719939538142 0.28905500493018527 0.22292190249163424 350.74096284770735 163.20579903477514
286.806735572045 22.457404760583426 0.2930154362124422 0.22758490086796312 351.81780219524643 164.33881062310573
291.0506871468638 23.433244717781683 0.2970301305784511 0.2322482100167762 352.9203488012077 165.47604328451476
295.36640587603665 24.445707462261286 0.30109983150336633 0.23690666967600826 354.0488124724866 166.61717369984964
299.75538362787967 25.49578637558757 0.3052252926489232 0.24155508703558404 355.2033834644437 167.76188264138815
304.21914635214523 26.584479118113485 0.30940727800300755 0.24618826136378225 356.38423203374396 168.90985604145197
308.7592545995923 27.712786755619547 0.31364656202113766 0.25080100881845846 357.59150808369253 170.06078602025093
313.3773040369901 28.881712927768064 0.31794392976988456 0.2553881871862518 358.82534090468107 171.21437186587718
318.0749259581095 30.09226306564702 0.3223001770722569 0.2599447202934084 360.0858390113974 172.37032095989775
322.8537877913715 31.345443665174663 0.3267161106550786 0.2644656218363881 361.37309007746103 173.528349642617
327.7155936049114 32.642261622538065 0.33119254829838535 0.26894601838995147 362.68716096714843 174.68818401277815
332.66208460991504 33.98372363716619 0.33573031898686767 0.27338117136401197 364.02809786289913 175.8495606572429
337.69503966315926 35.3708356869955 0.3403302630633898 0.2777664976981793 365.39592648633356 177.01222730700064
342.81627576976535 36.80460257999539 0.34499323238461127 0.2820975891039885 366.79065240961546 178.1759434167117
348.02764858723793 38.28602758509271 0.3497200904787409 0.2863702296889894 368.2122614531486 179.34048066585706
353.33105293190584 39.81611214478573 0.35451171270545256 0.2905804118231612 369.6607201648272 180.50562338043466
358.72842328893415 41.395855670886135 0.3593689864179913 0.2947243501361716 371.1359763753846 181.6711688750005
364.22173432709656 43.026255423985056 0.3642928111275013 0.2987984935632788 372.63795982379526 182.83692771567456
369.81300141952 44.70830647642269 0.3692840986696046 0.302799535386852 374.1665828462073 184.00272390551643
375.5042811716241 46.44300175776399 0.37434377337326313 0.3067244212496534 375.72174112150384 185.16839499440093
381.2976719574698 48.231332181053574 0.3794727722319532 0.3105703551439176 377.30331446632607 186.3337921161855
387.19531446572614 50.074286847456044 0.38467204507718605 0.3143348034070681 378.9111676722288 187.49877995655083
393.1993922564417 51.97285332629083 0.38994255475440603 0.3180154967793083 380.5451513775847 188.66323665540298
399.3121323297738 53.92801800694275 0.39528527730129825 0.32161043060026806 382.20510296689145 189.8270536481518
405.5358057078041 55.94076651868651 0.4007012021285392 0.3251178632416343 383.890847490275 190.99013545052233
411.8727280305149 58.01208421409693 0.40619133220302484 0.32853631288899976 385.6021985961955 192.15239939181075
418.32526016696573 60.14295671143323 0.4117566842336082 0.3318645527995736 387.33895947065554 193.31377530167202
424.89580884264774 62.334370491179754 0.41739828885938196 0.33510160517288057 389.10092377656383 194.47420515561976
431.58682728395144 64.58731354179983 0.42311719084054106 0.33824673377890235 390.887876587319 195.63364268444144
438.4008158806202 66.90277604970314 0.4289144492518606 0.3412994354925418 392.6995953091234 196.79205295268602
445.3403228670059 69.28175112843704 0.434791137678824 0.3442594308849447 394.53585058702333 197.94941191127197
452.40794502289003 71.72523558218649 0.44074834441643845 0.3471266540215865 396.39640719017103 199.1057059291027
459.6063283945767 74.23423069879462 0.44678717267077506 0.349901241613928 398.2810248723229 200.2609313083735
466.93816903690345 76.8097430676861 0.45290874076326954 0.3525835216663502 400.1894592041012 201.4150937880024
474.40621377677365 79.45278541829296 0.45911418233782264 0.35517400175382274 402.1214623740591 202.56820803934892
482.0132609987511 82.16437747482686 0.46540464657073805 0.35767335705739 404.07678395609327 203.72029715808196
489.7621614532206 84.945546823512 0.4717812983835363 0.36008241827575915 406.0551716412196 204.87139215574692
497.65581908756843 87.79732978868721 0.4782453186586851 0.3624021595215643 408.0563719321933 206.02153145425635
505.69719190079616 90.72077231448495 0.4847979044582848 0.36463368630045156 410.08013079987865 207.1707603862059
513.8892928219447 93.71693084910856 0.4914402692457512 0.3667782236607353 412.12619430067645 208.31913070358075
522.235190612672 96.78687322903917 0.49817364311053414 0.36883710459062424 414.1943091546787 209.4667000971167
530.7380107942989 99.93167956081363 0.5049992729959166 0.3708117587298254 416.2842232845566 210.61353172825156
539.4009365996086 103.15244309831789 0.5119184229299338 0.3727037014521839 418.3956863154822 211.7596937753176
548.2272099496666 106.45027111383568 0.5189323742594568 0.37451452336602475 420.52845003664885 212.9052589953419
557.2201324559084 109.82628576136585 0.5260424258874831 0.3762458802701101 422.6822688251836 214.05030430255545
566.3830664477235 113.28162493099788 0.5332498945136785 0.37789948359447756 424.85690003344047 215.19491036447246
575.7194360257621 116.81744309337564 0.5405561148782152 0.37947709134737284 427.05210434083136 216.3391612161691
585.232728141166 120.43491213351783 0.5479624400089494 0.3809804995826127 429.26764607148317 217.48314389319296
594.9264937009413 124.13522217347503 0.5554702414719873 0.38241153439505204 431.5032934791216 218.626948083343
604.8043486996628 127.91958238350074 0.5630809096256828 0.38377204444626756 433.75881900066184 219.7706657974006
614.869975377725 131.78922178159144 0.5707958538781162 0.38506389401738694 436.0339994800507 220.91439105873926
625.1271234063339 135.74539002141063 0.5786165029481 0.38628895658180973 438.3286163639389 222.05821961161857
635.5796110994536 139.78935816875392 0.5865443051297616 0.3874491088867069 440.6424558707874 223.2022486478559
646.2313266529184 143.92241946683822 0.5945807285607505 0.3885462255292076 442.97530913501174 224.3465765514715
657.0862294109355 148.14589009080848 0.6027272614941203 0.3895821740105392 445.3269723277645 225.4913026608323
668.1483511602058 152.46110989194858 0.6109854125739359 0.390558810249491 447.69724675592647 226.63652704774572
679.4217974519065 156.86944313216654 0.619356711114658 0.3914779745348085 450.0859389408502 227.78235031290907
690.9107489517852 161.37227920938673 0.627842707384353 0.39234148789527534 452.49286067835754 228.9288733970804
702.6194628186357 165.97103337454695 0.6364449728917864 0.39315114886518376 454.9178290814404 230.07619740730132
714.5522741114264 170.66714744093056 0.6451651006774463 0.3939087306226252 457.36066660706723 231.2244234574886
726.7135972253852 175.46209048661464 0.654004705608558 0.39461597847788354 459.821201068432 232.3736525226955
739.1079273573387 180.35735955082689 0.6629654246781376 0.3952441076756976 462.29926563392866 233.52398530633948
743.6373190566669 182.14804460078426 0.666220433950259 0.3954514951015753 463.0 233.84734456329724
763.3678356696245 183.769748942086 0.7259255446251268 0.08401132489458707 464.0 234.30880224628586
787.3785678369775 185.83536500561863 0.7984010635221346 0.08804640738408143 465.0 234.76971747741462
810.8775200636126 187.950762902801 0.8692296998622535 0.09208699455914626 466.0 235.2285329357255
833.8713780442549 190.11468349760776 0.9384567833990693 0.09622171409360991 467.0 235.6873483940364
856.3684833571006 192.32590468854266 1.006127444910471 0.10044800598780679 468.0 236.14440461715412
878.3783671910226 194.58324090051974 1.0722864660371898 0.10476367081448856 469.0 236.60068023418128
899.9114138469688 196.8855432136801 1.1369781389768279 0.10916670311724452 470.0 237.05655806633607
920.9786180729636 199.23169879186577 1.2002461724004272 0.11365517288237204 471.0 237.51039251233098
941.5913991143416 201.6206304501585 1.2621336064960942 0.11822717727003784 472.0 237.9642269583259
961.7614542871555 204.0512961141244 1.3226827351796708 0.12288079123998852 473.0 238.41661545396272
981.5006476167937 206.52268816719837 1.3819350563226669 0.1276140494619309 474.0 238.86810381685
1000.8209160203851 209.03383293948409 1.4399312135260796 0.13242491051843075 475.0 239.31947285900927
1019.7342014904207 211.58378968103366 1.4967109773278584 0.13731125818405054 476.0 239.76870677141275
1038.252387281214 214.17165011996613 1.5523131984712153 0.1422709030979563 477.0 240.21794068381624
1056.3872531950578 216.79653753073555 1.6067757973252093 0.1473015558039812 478.0 240.66615024978054
1074.1504367558823 219.45760590467356 1.6601357486691357 0.15240085890809674 479.0 241.11321801226603
1091.5533994560924 222.15403941740425 1.7124290624345069 0.15756634261207658 480.0 241.56028577475155
1108.6074080039634 224.8850510053448 1.7636908041004327 0.16279546482438523 481.0 242.0055298204765
1125.3235063773998 227.64988215266175 1.813955064824359 0.16808561589042625 482.0 242.45051652103123
1141.7125065952898 230.44780171417514 1.8632549889085928 0.17343409543142574 483.0 242.89497665377147
1157.7849726395757 233.27810517108514 1.9116227671774486 0.17883814816520172 484.0 243.33796428355086
1173.5512128145324 236.1401137843992 1.959089651793939 0.18429495258829842 485.0 243.78095191333023
1189.0212727182102 239.03317377257764 2.0056859667538496 0.18980163734891686 486.0 244.2227218214353
1204.2049305701557 241.95665549575557 2.051441120929574 0.19535528851748296 487.0 244.66378938681913
1219.1116943690556 244.9099526498636 2.0963836226303423 0.200952960388614 488.0 245.10485695220297
1233.7508003130108 247.89248147530054 2.1405410943277636 0.20659168455926036 489.0 245.54410112021156
1248.1312128242816 250.90367997190805 2.1839402892116544 0.21226848880727545 490.0 245.98332475121927
1262.2616242737552 253.94300714468312 2.226607103251475 0.21798040711986566 491.0 246.42196855777004
1276.1504570998986 257.0099422382971 2.268566592358635 0.2237244981637545 492.0 246.85942161289344
1289.805864558726 260.1039840082584 2.309842981500888 0.22949787886343032 493.0 247.29687466801684
1303.2357318527802 263.22464999946817 2.350459671618738 0.2352977401317471 494.0 247.73322252208473
1316.447678138851 266.3714758185109 2.3904392456127237 0.24112139893814444 495.0 248.1689756896021
1329.4490550913156 269.5440144449009 2.4298034571200198 0.24696636267676908 496.0 248.60472885711945
1342.2469453995075 272.74183552428025 2.468573212155776 0.25283040722028005 497.0 249.03892039645942
1354.848157455495 275.9645246641801 2.5067685273243616 0.2587117215918049 498.0 249.4730417923012
1367.259214462201 279.2116827184281 2.544408452750135 0.2646091339293033 499.0 249.90677457912045
1379.4863342802141 282.4829250350197 2.581510936550351 0.27052251334440847 500.0 250.33932984136015
1391.5353913281056 285.77788064526317 2.6180925801189634 0.2764535173090472 501.0 250.77188510359983
1403.4118452962562 289.09619131207444 2.6541681877024295 0.28240717620535527 502.0 251.20365344131994
