e[MeV/fm^3], P[MeV/fm^3], rho[fm^-3], v2[1], mu_q[MeV], mu_e[MeV]
94.94636686167317 0.4413807512378042 0.1 0.017144926874012978 317.95915870970356 100.14194102836514
96.25345916895651 0.46438280173863955 0.101370130672262 0.018050828425997673 318.0353072753812 100.71622101815169
97.57878587396496 0.4889147289631433 0.10275903392511473 0.018978478741635052 318.1154229041463 101.29329266428593
98.92261831843756 0.515056838407001 0.10416696696744283 0.01993741618724143 318.1996431681447 101.87339086851273
100.28523268360438 0.5428925939764973 0.1055941905322288 0.020928058904412294 318.28810773703464 102.45675835314887
101.66691010052308 0.5725087295449669 0.10704096892483764 0.021950831429947915 318.3809584218137 103.04364540530885
103.06793676350163 0.6039953672078681 0.10850757007196328 0.0230061667702052 318.47833922847735 103.63430959173816
104.48860404674332 0.637446142746121 0.10999426557124542 0.024094508557870375 318.580396421961 104.22901544452033
105.92920862436137 0.6729583388134567 0.11150133074156637 0.025216313272774044 318.68727860074745 104.82803411806668
107.39005259391891 0.7106330263661252 0.1130290446740369 0.02633262324504132 318.79913678245373 105.43164301794738
108.87144324503501 0.7504575631563305 0.1145776902836806 0.027379788949089157 318.9157811809634 106.03519591929809
110.37369030315959 0.7923452566411414 0.11614755436182667 0.028443750710363952 319.03680960138246 106.63104446790136
111.89710961867719 0.8365427599700687 0.11773892762922022 0.029602860408452614 319.16278568932495 107.22541138144616
113.44202400071198 0.8832022893798355 0.11935210478986052 0.03081675379852644 319.2939817061478 107.8202800772041
115.0087626359432 0.9324608268054214 0.12098738458557669 0.03207653840153257 319.4306135301825 108.41678515399795
116.59766107274434 0.9844526059126987 0.12264506985135126 0.0333788555828351 319.572877575836 109.01574285226425
118.20906130059554 1.0393129083643178 0.12432546757140178 0.034722164226582586 319.72096181198486 109.6178072901194
119.84331186574134 1.097179786861498 0.1260288889360307 0.03610575918483372 319.87505053699624 110.22353627590667
121.50076800626537 1.1581950535431216 0.12775564939925427 0.03752939680139894 320.0353269087984 110.8334244903535
123.18179180011872 1.2225049517695847 0.12950606873722095 0.03899312228419011 320.2019744838251 111.44792217954804
124.88675232321675 1.2902606752037458 0.13128047110743032 0.04049717991058882 320.37517825776854 112.06744650108215
126.61602581622238 1.361618808667125 0.13307918510876326 0.04204196213713013 320.55512543226473 112.6923887791011
128.36999585934686 1.4367417283704906 0.1349025438423348 0.04362797879016134 320.74200602035336 113.32311931570828
130.14905355487275 1.5157979820600824 0.13675088497318028 0.04525583735167221 320.9360133519554 113.95999066088581
131.95359771732294 1.5989626609987286 0.13862455079278757 0.04692622968453386 321.1373445144712 114.60333986649957
133.78403507131554 1.6864177710342154 0.14052388828248494 0.04863992261842359 321.3462007494494 115.25349004662196
135.64078045723807 1.7783526073010185 0.1424492491776985 0.05039775088765619 321.5627878181266 115.91075144995241
137.52425704491307 1.8749641354652484 0.14440099003308907 0.05220061149805344 321.78731634373486 116.57542218065164
139.43489655547157 1.9764573813647432 0.1463794722885824 0.05404945893201141 322.0200021353826 117.24778866062358
141.3731394916697 2.083045830182228 0.14838506233630352 0.05594530080258542 322.2610664963014 117.9281258984746
143.33943537689754 2.1949518357853512 0.15041813158842832 0.0578891936898025 322.5107365178817 118.61669761198014
145.3342430031443 2.312407040480186 0.15247905654596478 0.0598822389718191 322.76924535997193 119.313756238407
147.3580306881816 2.4356528051264106 0.15456821886847674 0.061925578515716895 323.03683251723027 120.01954285838335
149.41127654223357 2.5649406493030553 0.15668600544476283 0.06402039012815364 323.31374407080983 120.73428705289062
151.49446874439718 2.7005327009964972 0.15883280846450362 0.06616788269125529 323.6002329242818 121.45820670855176
153.60810582907197 2.8427021550743365 0.16100902549089094 0.06836929092671873 323.8965590223958 122.1915077831944
155.75269698265143 2.9917337396216346 0.16321505953425178 0.07062586974489937 324.2029895510543 122.93438404130187
157.92876235071572 3.147924189027033 0.16545131912668123 0.07293888814634031 324.5197991166839 123.68701676721646
160.1368333559542 3.311582722530232 0.16771821839769796 0.07530962265178998 324.84726990304495 124.44957446265052
162.37745302703036 3.483031526758055 0.17001617715093623 0.07773935024399081 325.18569180339756 125.22221253408111
164.6511763385809 3.66260624060152 0.17234562094188846 0.08022934081146915 325.5353625258525 126.00507297487326
166.9585705625237 3.850656440604008 0.17470698115671374 0.08278084909070982 325.8965876696714 126.79828404643985
169.30021563082028 4.047546124855926 0.1771006950921248 0.08539510610913514 326.2696807702228 127.60195996234462
171.6767045098178 4.25365419321003 0.17952720603637126 0.08807331013729802 326.65496331028777 128.41620057898425
174.08864358625897 4.469374921459542 0.18198696335133058 0.09081661716551281 327.0527646953988 129.2410910962777
176.53665306502424 4.695118426948568 0.18448042255572536 0.09362613092559324 327.4634221909173 130.07670177168117
179.02136737862796 4.931311122916572 0.18700804540947988 0.0965028924862753 327.88728081859597 130.92308765076032
181.54343560845712 5.178396158724471 0.18957029999923283 0.09944786945729844 328.32469321044726 131.7802883175264
184.1035219177003 5.436833842957312 0.1921676608250214 0.10246194484455995 328.77601941782854 132.64832766772795
186.7023059958707 5.707102046267467 0.19480060888815343 0.10554590560734001 329.2416266737851 133.5272137083043
189.34048351478077 5.989696580702984 0.19746963178028315 0.10870043097556015 329.72188910684457 134.41693838621924
192.01876659578394 6.28513155216587 0.20017522377370764 0.11192608059426701 330.21718740464917 135.31747744991566
194.7378842880429 6.593939682573202 0.20291788591290028 0.11522328257098802 330.72790842603064 136.22879034663245
197.49858305753736 6.916672598244364 0.20569812610729854 0.11859232150941268 331.254444760397 137.15082015882766
200.30162728647443 7.253901081021378 0.20851645922536285 0.12203332662240762 331.7971942335924 138.08349358291213
203.14779978270525 7.6062152786506765 0.21137340718992417 0.12554626002513847 332.3565593597251 139.02672095345017
206.03790229870845 7.97422487101053 0.21426949907483864 0.12913090531688942 332.932946738833 139.98039631587767
208.97275605963816 8.358559188871052 0.2172052712029651 0.13278685656762157 333.5267664006589 140.9443975506967
211.95320229989505 8.759867282019684 0.22018126724548684 0.13651350783185046 334.138431095253 141.9185865518261
214.98010280761576 9.178817933783291 0.22319803832259236 0.14031004331829666 334.768355531599 142.9028094617232
218.05434047644283 9.616099619228022 0.22625614310553732 0.14417542834684327 335.4169555659666 143.89689696545923
221.17681986388018 10.0724204046151 0.2293561479201033 0.14810840122835245 336.08464734222235 144.90066464569247
224.34846775550957 10.548507786057039 0.23249862685147524 0.1521074662029518 336.7718463868946 145.91391340006604
227.57023373430096 11.045108465720485 0.23568416185055527 0.15617088757153552 337.4789666623489 146.93642992212156
230.84309075422277 11.562988064397524 0.23891334284173335 0.16029668515257334 338.20641958201674 147.96798724632671
234.16803571733496 12.102930769778695 0.2421867678321344 0.16448263118950246 338.95461299219335 149.00834535727213
237.54609005352904 12.665738920328916 0.24550504302236242 0.16872624882707177 339.72395012549293 150.05725186250152
240.97830030207166 13.252232525277945 0.24886878291876183 0.17302481226331912 340.51482853159905 151.11444272781222
244.46573869411006 13.863248721880725 0.2522786104472169 0.17737534867077653 341.32763899146863 152.17964307320295
248.00950373530299 14.499641171781702 0.25573515706851063 0.18177464196441262 342.162764421631 153.25256802695756
251.61072078776104 15.162279399011274 0.25923906289526366 0.18621923847491373 343.02057877565136 154.33292363466364
255.27054265051086 15.852048072851947 0.2627909768104763 0.19070545456502286 343.9014459501977 155.42040781926136
258.99015013772936 16.56984623951489 0.2663915565876935 0.19522938620322217 344.8057187034414 156.51471138753368
262.7707526540526 17.316586507263548 0.2700414690128177 0.19978692048454105 345.7337375937395 157.6155190777877
266.6135887663111 18.09319419028743 0.2737413900075891 0.20437374906129868 346.6858299466582 158.7225106428518
270.51992677112264 18.900606417257457 0.27749200475475955 0.2089853834196389 347.6623088584275 159.83536196194274
274.49106525784066 19.73977121107202 0.2812940078249792 0.21361717191002905 348.66347224382025 160.95374617444665
278.52833366645217 20.61164654681457 0.28514810330542434 0.21826431841262917 349.6896019362678 162.07733482823338
282.6330928401043 21.51719939538142 0.28905500493018527 0.22292190249163424 350.74096284770735 163.20579903477514
286.806735572045 22.457404760583426 0.2930154362124422 0.22758490086796312 351.81780219524643 164.33881062310573
291.0506871468638 23.433244717781683 0.2970301305784511 0.2322482100167762 352.9203488012077 165.47604328451476
295.36640587603665 24.445707462261286 0.30109983150336633 0.23690666967600826 354.0488124724866 166.61717369984964
299.75538362787967 25.49578637558757 0.3052252926489232 0.24155508703558404 355.2033834644437 167.76188264138815
304.21914635214523 26.584479118113485 0.30940727800300755 0.24618826136378225 356.38423203374396 168.90985604145197
308.7592545995923 27.712786755619547 0.31364656202113766 0.25080100881845846 357.59150808369253 170.06078602025093
313.3773040369901 28.881712927768064 0.31794392976988456 0.2553881871862518 358.82534090468107 171.21437186587718
318.0749259581095 30.09226306564702 0.3223001770722569 0.2599447202934084 360.0858390113974 172.37032095989775
322.8537877913715 31.345443665174663 0.3267161106550786 0.2644656218363881 361.37309007746103 173.528349642617
327.7155936049114 32.642261622538065 0.33119254829838535 0.26894601838995147 362.68716096714843 174.68818401277815
332.66208460991504 33.98372363716619 0.33573031898686767 0.27338117136401197 364.02809786289913 175.8495606572429
337.69503966315926 35.3708356869955 0.3403302630633898 0.2777664976981793 365.39592648633356 177.01222730700064
342.81627576976535 36.80460257999539 0.34499323238461127 0.2820975891039885 366.79065240961546 178.1759434167117
348.02764858723793 38.28602758509271 0.3497200904787409 0.2863702296889894 368.2122614531486 179.34048066585706
353.33105293190584 39.81611214478573 0.35451171270545256 0.2905804118231612 369.6607201648272 180.50562338043466
358.72842328893415 41.395855670886135 0.3593689864179913 0.2947243501361716 371.1359763753846 181.6711688750005
364.22173432709656 43.026255423985056 0.3642928111275013 0.29891392748741774 372.63795982379526 182.83692771567456
372.6950300697766 45.58670584478953 0.37184617116247426 0.30544369168725005 374.0 183.8756803869025
377.1976828388061 45.635643479291005 0.38661380994831995 0.01235469543365636 375.0 184.62741291408136
463.39731362867207 46.87886579976818 0.6687094685904471 0.016490493555791907 376.0 185.37343265337012
542.8603240890683 48.34072959518111 0.929427042232744 0.020689390934257368 377.0 186.11029201281738
615.77703707549 50.00272967933572 1.1697223728560429 0.025312600801742635 378.0 186.8385833323916
682.5709767012445 51.84761259420307 1.391088851744024 0.030363609765103827 379.0 187.56208621768963
743.7707645571109 53.859675885125235 1.5952730970082385 0.03583459929640781 380.0 188.27473512296038
799.9381396962355 56.02487368215896 1.784098436432888 0.041719558534654255 381.0 188.98213785668221
851.5987418153511 58.33078029694521 1.9592584407348317 0.048236577026921745 382.0 189.6832528772925
898.7695279132657 60.76123201058129 2.1205834634103553 0.0543882990552107 383.0 190.37549397297113
943.2996086331622 63.30353298478703 2.274764533490397 0.05909168854424085 384.0 191.06426636715048
986.8085012686537 65.95956584594751 2.4279014752326953 0.0621921917648911 385.0 191.74341627231462
1030.5241780216397 68.72869539055968 2.5849359588831646 0.06293107109263685 386.0 192.41841008682437
1076.7078895610898 71.61493442834758 2.7552600148336315 0.05959187781017172 387.0 193.08711233993236
1130.369775656217 74.63175079888256 2.9600920352137825 0.050367874053340755 388.0 193.74913665510493
1205.9823106018532 77.81680399082306 3.2613761850021885 0.09272780013961324 389.0 194.4077367470912
1235.7874154417325 81.17509915621896 3.375810011962176 0.43233648219011833 390.0 195.05755727798646
1242.5029195255088 84.56213493454534 3.3935858547780904 0.5131999157727147 391.0 195.70533422849687
1249.0249972638796 87.96525477153172 3.4105342240739676 0.5267254570613273 392.0 196.34473274787123
1255.4570384238662 91.38451556069712 3.4270422473698186 0.533878373758272 393.0 196.98139267269755
1261.8646831489632 94.81997434079612 3.4433597165211736 0.5362895858714012 394.0 197.61167484125832
1268.3329562800882 98.28975322018226 3.4597129563099793 0.5368428136500318 395.0 198.23787031597547
1274.761812942457 101.74367338094278 3.476003925921143 0.5362114058135106 396.0 198.85934778990693
1281.306078849901 105.24584701973271 3.4924645491941186 0.5351514880845842 397.0 199.475693825992
1287.8503447573453 108.74802065852265 3.5089251724670945 0.5351514880845762 398.0 200.08866981057037
1294.3946106647895 112.25019429731259 3.5253857957400703 0.5343100659952036 399.0 200.6957453872934
1301.0339939913022 115.79201591973074 3.5419853382290314 0.5330906274473612 400.0 201.30051467927814
1307.71542197407 119.35136310012952 3.558646287038102 0.5327225242236775 401.0 201.89886428982257
1314.3968499568377 122.91071028052828 3.5753072358471725 0.5324303090148774 402.0 202.49571333711043
1321.1118647656963 126.48401559687551 3.592016921906368 0.5312409149160153 403.0 203.08584853825403
1327.9325381316319 130.10123088256063 3.6088799272315786 0.5303311112581053 404.0 203.6750555154176
1334.7532114975672 133.71844616824572 3.6257429325567894 0.5303311112581017 405.0 204.25745647114007
1341.5738848635028 137.33566145393084 3.6426059378820006 0.5294059042486978 406.0 204.83929136948632
1348.5060729057946 140.9990841629078 3.6596297202956403 0.5282216306294067 407.0 205.41440837990046
1355.468092899723 144.67486809340232 3.676696513140579 0.5279766409318398 408.0 205.9891331107018
1362.430112893651 148.35065202389686 3.6937633059855184 0.5275824730515062 409.0 206.5573881187232
1369.4404354466344 152.04639291789508 3.710899293516766 0.5264271883621348 410.0 207.12525662830706
1376.5459212502928 155.78145200864688 3.7281716049076064 0.525658511460076 411.0 207.68704469745765
1383.6514070539513 159.51651109939866 3.7454439162984468 0.5256585114600654 412.0 208.2483030928726
1390.75689285761 163.25157019015046 3.7627162276892876 0.5246559531094963 413.0 208.80399385056722
1397.9911531104326 167.0396836864299 3.7801718352032445 0.5235058269503572 414.0 209.35888053459985
1405.2422418424078 170.83473042888625 3.797651396187836 0.5233761277422158 415.0 209.90881957615204
1412.4933305743828 174.6297771713426 3.8151309571724275 0.5228871296888737 416.0 210.45756539050848
1419.808274515389 178.45105871909277 3.832700831408113 0.5217649699651812 417.0 211.0020756399369
1427.207121231053 182.30681158077553 3.8503893730551195 0.5211289015516218 418.0 211.5449040154655
1434.6059679467169 186.1625644424583 3.8680779147021265 0.5211289015516218 419.0 212.08428703996188
1442.0048146623808 190.01831730414105 3.8857664563491334 0.5200550430293589 420.0 212.62141415285072
1449.5505786658748 193.9342659435314 3.90366147433512 0.5189380607702461 421.0 213.15595142848727
1457.0993563573243 197.85144936810548 3.9215607277331888 0.5189162517013894 422.0 213.68758636143002
1464.648134048774 201.76863279267954 3.939459981131257 0.5183391374381898 423.0 214.21754048833904
1472.2771770667453 205.71861472574915 3.9574713274950835 0.5172491320017656 424.0 214.74388539572888
1479.978076662746 209.69795913309088 3.975583023752064 0.5167376041895668 425.0 215.26950126157584
1487.6789762587464 213.67730354043263 3.9936947200090454 0.516655320758316 426.0 215.79075153784586
1495.3915088273548 217.66138895623564 4.011822560033756 0.515591729637638 427.0 216.3120018141159
1503.2467391932832 221.70363074249698 4.03014843027595 0.5145923923242552 428.0 216.8286018792416
1511.101969559212 225.74587252875833 4.048474300518144 0.514592392324257 429.0 217.34494632953877
1518.9571999251405 229.78811431501967 4.066800170760338 0.5139334864460334 430.0 217.85783155156358
1526.9099837529334 233.870011021757 4.0852605748519135 0.512874680384483 431.0 218.36945256400142
1534.9217716907247 237.9758925594274 4.103802350223356 0.5124800568301513 432.0 218.87881490603743
1542.933559628516 242.0817740970978 4.122344125594799 0.5122997623509473 433.0 219.38588862483826
1550.9724796193238 246.19865661672847 4.140923085056048 0.5112664325935441 434.0 219.89190664136743
1559.1430698674187 250.36892625469568 4.159682496717831 0.5104000459378799 435.0 220.3946031402605
1567.3136601155136 254.5391958926629 4.178441908379615 0.5104000459378693 436.0 220.8972996391536
1575.4842503636087 258.7094655306301 4.1972013200413985 0.5096653025513458 437.0 221.39592633574898
1583.7705807769482 262.92654605737346 4.216118367622279 0.5086367583772837 438.0 221.89440979105288
1592.102236010244 267.1619581209802 4.235097146751897 0.5083518154568871 439.0 222.39017105934653
1600.4338912435396 271.3973701845869 4.254075925881515 0.5080800878295975 440.0 222.88459992221763
1608.8090505804273 275.6503342308928 4.273113590584193 0.5070761138628797 441.0 223.37763375677227
1617.3040514102286 279.95164902199247 4.292313468374922 0.5063348288337153 442.0 223.86816092415333
1625.7990522400298 284.25296381309215 4.311513346165652 0.5063348288337082 443.0 224.3585953974958
1634.2940530698313 288.55427860419184 4.330713223956382 0.5055298500433771 444.0 224.8453683813519
1642.9238998863445 292.909866656384 4.350094500937417 0.5045306490499222 445.0 225.332141365208
1651.5845448603168 297.2778504533936 4.3695172085977205 0.5043485571959927 446.0 225.81648344756059
1660.245189834289 301.64583425040325 4.388939916258024 0.5039915970514528 447.0 226.29964454203414
1668.966604482769 306.0382189056433 4.408443872152858 0.5030160915315953 448.0 226.78175367545967
1677.7952100848945 310.47364396359535 4.428091140905821 0.5023924793836301 449.0 227.26144012162266
1686.6238156870202 314.9090690215474 4.4477384096587835 0.5023924793836265 450.0 227.7411265677856
1695.4524212891456 319.34449407949944 4.4673856784117465 0.5015225332990063 451.0 228.21775794927976
1704.4359183674621 323.84196802271583 4.487238770841584 0.5005517766473773 452.0 228.6941020972032
1713.4348190179962 328.34561257330654 4.507112331924371 0.5004660819678435 453.0 229.1688159544794
1722.4337196685306 332.8492571238973 4.526985893007158 0.5000297315804261 454.0 229.64194542237777
1731.511569634871 337.3844561307461 4.546963726179542 0.49908182640739795 455.0 230.11482084757034
1740.6831176902997 341.95710438238467 4.567065310842878 0.49856885925947125 456.0 230.58485867781556
1749.8546657457287 346.5297526340232 4.587166895506213 0.4985640755183951 457.0 231.0548965080608
1759.0270932870749 351.1027516087081 4.607269634716506 0.49763854250421247 458.0 231.52303358835755
1768.373659040075 355.74519374656046 4.627600974224177 0.49670031330622777 459.0 231.99009840019093
1777.720224793075 360.3876358844128 4.647932313731849 0.49670031330622777 460.0 232.45665208434008
1787.066790546075 365.03007802226523 4.668263653239522 0.4961900749532404 461.0 232.92085822313913
1796.511419876482 369.71153978474064 4.688722949899351 0.4952689220635058 462.0 233.38506436193822
1806.0353915558821 374.4245719707747 4.709285775527741 0.49485995388122817 463.0 233.84734456329724
