e[MeV/fm^3], P[MeV/fm^3], rho[fm^-3], v2[1], mu_q[MeV], mu_e[MeV]
94.94636686167317 0.4413807512378042 0.1 0.017144926874012978 317.95915870970356 100.14194102836514
96.25345916895651 0.46438280173863955 0.101370130672262 0.018050828425997673 318.0353072753812 100.71622101815169
97.57878587396496 0.4889147289631433 0.10275903392511473 0.018978478741635052 318.1154229041463 101.29329266428593
98.92261831843756 0.515056838407001 0.10416696696744283 0.01993741618724143 318.1996431681447 101.87339086851273
100.28523268360438 0.5428925939764973 0.1055941905322288 0.020928058904412294 318.28810773703464 102.45675835314887
101.66691010052308 0.5725087295449669 0.10704096892483764 0.021950831429947915 318.3809584218137 103.04364540530885
103.06793676350163 0.6039953672078681 0.10850757007196328 0.0230061667702052 318.47833922847735 103.63430959173816
104.48860404674332 0.637446142746121 0.10999426557124542 0.024094508557870375 318.580396421961 104.22901544452033
105.92920862436137 0.6729583388134567 0.11150133074156637 0.025216313272774044 318.68727860074745 104.82803411806668
107.39005259391891 0.7106330263661252 0.1130290446740369 0.02633262324504132 318.79913678245373 105.43164301794738
108.87144324503501 0.7504575631563305 0.1145776902836806 0.027379788949089157 318.9157811809634 106.03519591929809
110.37369030315959 0.7923452566411414 0.11614755436182667 0.028443750710363952 319.03680960138246 106.63104446790136
111.89710961867719 0.8365427599700687 0.11773892762922022 0.029602860408452614 319.16278568932495 107.22541138144616
113.44202400071198 0.8832022893798355 0.11935210478986052 0.03081675379852644 319.2939817061478 107.8202800772041
115.0087626359432 0.9324608268054214 0.12098738458557669 0.03207653840153257 319.4306135301825 108.41678515399795
116.59766107274434 0.9844526059126987 0.12264506985135126 0.0333788555828351 319.572877575836 109.01574285226425
118.20906130059554 1.0393129083643178 0.12432546757140178 0.034722164226582586 319.72096181198486 109.6178072901194
119.84331186574134 1.097179786861498 0.1260288889360307 0.03610575918483372 319.87505053699624 110.22353627590667
121.50076800626537 1.1581950535431216 0.12775564939925427 0.03752939680139894 320.0353269087984 110.8334244903535
123.18179180011872 1.2225049517695847 0.12950606873722095 0.03899312228419011 320.2019744838251 111.44792217954804
124.88675232321675 1.2902606752037458 0.13128047110743032 0.04049717991058882 320.37517825776854 112.06744650108215
126.61602581622238 1.361618808667125 0.13307918510876326 0.04204196213713013 320.55512543226473 112.6923887791011
128.36999585934686 1.4367417283704906 0.1349025438423348 0.04362797879016134 320.74200602035336 113.32311931570828
130.14905355487275 1.5157979820600824 0.13675088497318028 0.04525583735167221 320.9360133519554 113.95999066088581
131.95359771732294 1.5989626609987286 0.13862455079278757 0.04692622968453386 321.1373445144712 114.60333986649957
133.78403507131554 1.6864177710342154 0.14052388828248494 0.04863992261842359 321.3462007494494 115.25349004662196
135.64078045723807 1.7783526073010185 0.1424492491776985 0.05039775088765619 321.5627878181266 115.91075144995241
137.52425704491307 1.8749641354652484 0.14440099003308907 0.05220061149805344 321.78731634373486 116.57542218065164
139.43489655547157 1.9764573813647432 0.1463794722885824 0.05404945893201141 322.0200021353826 117.24778866062358
141.3731394916697 2.083045830182228 0.14838506233630352 0.05594530080258542 322.2610664963014 117.9281258984746
143.33943537689754 2.1949518357853512 0.15041813158842832 0.0578891936898025 322.5107365178817 118.61669761198014
145.3342430031443 2.312407040480186 0.15247905654596478 0.0598822389718191 322.76924535997193 119.313756238407
147.3580306881816 2.4356528051264106 0.15456821886847674 0.061925578515716895 323.03683251723027 120.01954285838335
149.41127654223357 2.5649406493030553 0.15668600544476283 0.06402039012815364 323.31374407080983 120.73428705289062
151.49446874439718 2.7005327009964972 0.15883280846450362 0.06616788269125529 323.6002329242818 121.45820670855176
153.60810582907197 2.8427021550743365 0.16100902549089094 0.06846393624411046 323.8965590223958 122.1915077831944
160.4079131098566 3.3345163108404705 0.16802560135226582 0.07619138572536299 324.0 122.44227864050416
284.66612857194514 3.4484071397081917 0.5789334624299274 0.00042603926166421766 325.0 124.7982666939683
677.01121534618 4.934207562845121 1.91890098513091 0.007147907619398149 326.0 127.02104345734786
959.8612751056269 7.641330911571978 2.9552769658620495 0.3552402935310478 327.0 129.13167695517254
968.0235015991261 10.622300934673527 2.983121195959911 0.5874017936632177 328.0 131.14398435889407
972.2779032290771 13.614047960632 2.9965932303457667 0.7730837443388454 329.0 133.07111619714257
975.8903433050604 16.621086962056516 3.0075831463182685 0.837596621880736 330.0 134.9225927049118
979.4735463928034 19.640792436783883 3.018406692230871 0.8424136410093683 331.0 136.7052561220642
983.0711074924751 22.67025130075401 3.0292441864358572 0.8420868416235101 332.0 138.42547405477518
986.6686685921468 25.699710164724138 3.040081680640843 0.841721951885777 333.0 140.08924994723924
990.2821272532628 28.739913301543233 3.050934623527827 0.8404631491584444 334.0 141.6981094642949
993.9351903656964 31.806882872477313 3.0618260526050527 0.8395610687631909 335.0 143.2578431637666
997.5882534781299 34.873852443411394 3.072717481682278 0.8395610687631789 336.0 144.77341091970396
1001.2413165905635 37.94082201434548 3.0836089107595037 0.8385114662746096 337.0 146.24383017245253
1004.9411456540715 41.03923804351502 3.0945457944463834 0.8372418689323036 338.0 147.67527602621647
1008.650271563275 44.143905477032575 3.105491714290604 0.8370347918936485 339.0 149.07022554695843
1012.3593974724787 47.24857291055013 3.116437634134825 0.8365492530305456 340.0 150.42625600200748
1016.0901506745699 50.36770972721253 3.1274045768481566 0.8352882615752693 341.0 151.75026724192753
1019.8559059427822 53.51026409817514 3.138405543415443 0.834508391315226 342.0 153.0434569123345
1023.6216612109944 56.652818469137756 3.1494065099827298 0.8345083913152243 343.0 154.30700614380973
1027.3874164792066 59.79537284010036 3.1604074765500165 0.833341179378996 344.0 155.53967277331367
1031.206349206552 62.973326293345615 3.171460134104366 0.8320699087659786 345.0 156.74516612025525
1035.029306174048 66.1539585960609 3.182516703409088 0.8319822403856598 346.0 157.9251006398289
1038.852263141544 69.3345908987762 3.19357327271381 0.831376868167073 347.0 159.08055683726147
1042.7028034389598 72.53349320320811 3.2046566514993864 0.8301144758713477 348.0 160.21259153999904
1046.5835402238663 75.75239635162457 3.2157693796113724 0.8294567054729836 349.0 161.32223640654
1050.464277008773 78.97129950004103 3.2268821077233585 0.8294245311584358 350.0 162.41049644846333
1054.3464802186347 82.19116912281616 3.2379962608335826 0.828171193850574 351.0 163.4783485994121
1058.285580716753 85.44853795070817 3.249165703875442 0.8269321459170911 352.0 164.52674036075354
1062.2246812148712 88.70590677860018 3.2603351469173014 0.8269321459170911 353.0 165.55658854961555
1066.1637817129895 91.96327560649219 3.271504589959161 0.8262079348167699 354.0 166.56781331863417
1070.136654502883 95.2427927629811 3.2827068415724407 0.8249449022252993 355.0 167.56023642653295
1074.1347083875214 98.53882402412557 3.293933555717044 0.8244089139990738 356.0 168.5363211398076
1078.1327622721597 101.83485528527007 3.305160269861647 0.8242550103641353 357.0 169.49688484267628
1082.1379979261053 105.13557331311196 3.3163939581558166 0.8230012807091978 358.0 170.44271012268118
1086.195600647917 108.47046568145572 3.327678499623909 0.8218873549194221 359.0 171.3745442786088
1090.253203369729 111.80535804979948 3.3389630410920015 0.8218873549194026 360.0 172.2916016608145
1094.3108060915408 115.14025041814324 3.350247582560094 0.8210454669813174 361.0 173.19271270097593
1098.4086096105764 118.50124935079 3.3615711442163865 0.8197825269975461 362.0 174.08167723008737
1102.5263623974072 121.8752034206097 3.372914069274342 0.8193678067828891 363.0 174.9591318458806
1106.644115184238 125.24915749042938 3.384256994332297 0.8190931494914562 364.0 175.82522528260012
1110.77499638316 128.63159578787779 3.395612655147484 0.8178397459342381 365.0 176.67568622756338
1114.9535062399016 132.04481407393266 3.4070145201051845 0.8168506005909997 366.0 177.51624753604267
1119.1320160966434 135.45803235998753 3.418416385062885 0.8168506005909961 367.0 178.34743435378095
1123.310525953385 138.87125064604237 3.429818250020585 0.81589235431424 368.0 179.16660278440034
1127.5359112747474 142.31461584187906 3.441265559351005 0.8146302120196367 369.0 179.97413892719072
1131.7757909831967 145.76730277955613 3.4527269205598308 0.8143360602416472 370.0 180.77367585867728
1136.015670691646 149.21998971723323 3.464188281768657 0.8139417903749937 371.0 181.56373895837805
1140.2748633721408 152.68503771260941 3.475668352845879 0.8126894035571546 372.0 182.3417775824483
1144.5767314908658 156.1773996580627 3.4871897666968144 0.811824502534602 373.0 183.113035723863
1148.8785996095905 159.66976160351598 3.4987111805477498 0.8118245025345949 374.0 183.8756803869025
1153.1804677283155 163.16212354896925 3.510232594398685 0.8107513618419802 375.0 184.62741291408136
1157.536138758993 166.68875706078302 3.5218060894110517 0.8094906944233173 376.0 185.37343265337012
1161.9006196232065 170.22100229106516 3.5333881123328923 0.8093162371829408 377.0 186.11029201281738
1166.2651004874199 173.7532475213473 3.544970135254733 0.8088036501748341 378.0 186.8385833323916
1170.655323419146 177.30181220949635 3.556577054701201 0.8075529429167787 379.0 187.56208621768963
1175.083047140582 180.87415092268603 3.5682202431588546 0.8068115668317333 380.0 188.27473512296038
1179.5107708620178 184.44648963587574 3.5798634316165083 0.8068115668317226 381.0 188.98213785668221
1183.9384945834538 188.01882834906542 3.591506620074162 0.8056251301790169 382.0 189.6832528772925
1188.4272080617661 191.62964979795933 3.60320873911821 0.804366586952586 383.0 190.37549397297113
1192.918810528562 195.24229411328133 3.614913649611087 0.8043107870806416 384.0 191.06426636715048
1197.410412995358 198.85493842860333 3.6266185601039647 0.8036813217639782 385.0 191.74341627231462
1201.9344377786317 202.4879443733823 3.6383547663594653 0.8024329291393535 386.0 192.41841008682437
1206.4905606552184 206.1411083313236 3.6501219554199626 0.8018141865124981 387.0 193.08711233993236
1211.046683531805 209.7942722892649 3.6618891444804604 0.801750742725563 388.0 193.74913665510493
1215.6060811747436 213.44948326250665 3.673659491085257 0.800512622742314 389.0 194.4077367470912
1220.2273719017358 217.1433828249265 3.685489515277309 0.7993220467270064 390.0 195.05755727798646
1224.8486626287279 220.8372823873464 3.6973195394693605 0.7993220467270028 391.0 195.70533422849687
1229.46995335572 224.53118194976625 3.7091495636614122 0.7985772745436428 392.0 196.34473274787123
1234.1306044193211 228.24957128630686 3.7210174954683053 0.7973318040363075 393.0 196.98139267269755
1238.8177162134157 231.98442433654208 3.732910911386016 0.7968346423784674 394.0 197.61167484125832
1243.5048280075102 235.71927738677732 3.7448043273037266 0.7966517657835048 395.0 198.23787031597547
1248.201627850518 239.46013056509915 3.7567070623275205 0.7954167350537773 396.0 198.85934778990693
1252.9552197043963 243.2361569080665 3.7686644265938725 0.794352241218732 397.0 199.475693825992
1257.7088115582746 247.0121832510339 3.780621790860224 0.7943522412187214 398.0 200.08866981057037
1262.4624034121532 250.78820959400127 3.792579155126576 0.7934938556384274 399.0 200.6957453872934
1267.2625580113222 254.59294203077096 3.804581251502969 0.7922518873748494 400.0 201.30051467927814
1272.0832946935545 258.41036339306197 3.8166031207685833 0.7918751041434824 401.0 201.89886428982257
1276.9040313757869 262.227784755353 3.8286249900341973 0.7915743586094663 402.0 202.49571333711043
1281.7411255348572 266.05524479125626 3.840662552568481 0.7903429835978137 403.0 203.08584853825403
1286.6296775898131 269.9142848212315 3.8527494835104554 0.7894034852432377 404.0 203.6750555154176
1291.5182296447692 273.7733248512067 3.864836414452429 0.7894034852432341 405.0 204.25745647114007
1296.4067816997251 277.63236488118196 3.876923345394403 0.7884332914303229 406.0 204.83929136948632
1301.3493699143314 281.5244177018636 3.889062045610118 0.7871953784794528 407.0 205.41440837990046
1306.3064136620926 285.42530196974064 3.9012145949309103 0.7869376318574588 408.0 205.9891331107018
1311.2634574098538 289.32618623761766 3.913367144251703 0.7865207013228392 409.0 206.5573881187232
1316.2437908251052 293.24123535933455 3.9255419736331696 0.7852935216924344 410.0 207.12525662830706
1321.270008361382 297.1841913572732 3.9377606980595465 0.784477784632319 411.0 207.68704469745765
1326.296225897659 301.12714735521183 3.9499794224859235 0.784477784632319 412.0 208.2483030928726
1331.3224434339359 305.0701033531505 3.9621981469123004 0.7833976893926398 413.0 208.80399385056722
1336.410448166799 309.0504714183607 3.9744758904672977 0.7821643581263231 414.0 209.35888053459985
1341.506527362852 313.03572856054393 3.986761346749331 0.7820241775814267 415.0 209.90881957615204
1346.602606558905 317.02098570272716 3.999046803031364 0.781492855832493 416.0 210.45756539050848
1351.7291769929473 321.02462371589326 4.0113613388210085 0.7802703848334538 417.0 211.0020756399369
1356.8958114955096 325.05241333860664 4.023714083731121 0.7795770381504283 418.0 211.5449040154655
1362.062445998072 329.08020296132 4.036066828641232 0.7795770381504248 419.0 212.08428703996188
1367.2290805006344 333.1079925840334 4.048419573551343 0.7783890401866707 420.0 212.62141415285072
1372.4655374759857 337.177688332895 4.060838800156324 0.7771607906939941 421.0 213.15595142848727
1377.7034267071892 341.2482436946007 4.073259390488378 0.7771365872833513 422.0 213.68758636143002
1382.9413159383926 345.3187990563064 4.085679980820433 0.7764927680274099 423.0 214.21754048833904
1388.2171739748258 349.4120433454935 4.098136662784751 0.775275492935954 424.0 214.74388539572888
1393.5270231321308 353.525599626902 4.110625655353191 0.7747030394920245 425.0 215.26950126157584
1398.836872289436 357.63915590831056 4.123114647921632 0.7746104825803641 426.0 215.79075153784586
1404.152199152683 361.75597133716116 4.135608838409966 0.7734042551330305 427.0 216.3120018141159
1409.534719208811 365.9127656413016 4.148166790048993 0.7722766029283292 428.0 216.8286018792416
1414.9172392649396 370.06955994544194 4.16072474168802 0.772276602928315 429.0 217.34494632953877
1420.299759321068 374.22635424958236 4.173282693327048 0.7715222701853008 430.0 217.85783155156358
1425.7280083631051 378.4102397797024 4.185883961421082 0.770310652786371 431.0 218.36945256400142
1431.1839160659747 382.6105111319876 4.198511428983871 0.7698574794577482 432.0 218.87881490603743
1436.639823768844 386.8107824842728 4.211138896546661 0.7696493886533062 433.0 219.38588862483826
1442.1083935107729 391.01852324291065 4.223778336345809 0.7684489126292604 434.0 219.89190664136743
1447.6384113834315 395.26251259120096 4.236475876703756 0.7674458647364162 435.0 220.3946031402605
1453.1684292560901 399.5065019394913 4.249173417061703 0.7674458647364091 436.0 220.8972996391536
1458.6984471287487 403.7504912877816 4.26187095741965 0.7665830835694081 437.0 221.39592633574898
1464.282243397948 408.02607060537696 4.274619251771683 0.7653775606784379 438.0 221.89440979105288
1469.88709973852 412.31402082004286 4.287387421813707 0.7650419482880721 439.0 222.39017105934653
1475.4919560790918 416.60197103470875 4.300155591855731 0.7647203107931162 440.0 222.88459992221763
1481.1169397798428 420.90169461592535 4.3129427211402716 0.7635260111332443 441.0 223.37763375677227
1486.7973686614644 425.2338504899043 4.3257820777721205 0.7626459135850112 442.0 223.86816092415333
1492.477797543086 429.56600636388316 4.33862143440397 0.7626459135850041 443.0 224.3585953974958
1498.1582264247074 433.8981622378621 4.351460791035819 0.7616768211850697 444.0 224.8453683813519
1503.9007789598047 438.26650547229224 4.364358551933529 0.7604778052028465 445.0 225.332141365208
1509.6575202305723 442.6431137211464 4.377269652077144 0.7602579381286887 446.0 225.81648344756059
1515.4142615013402 447.0197219700006 4.390180752220759 0.7598248204436402 447.0 226.29964454203414
1521.1988830579098 451.41250344973116 4.403118011320897 0.7586370980412056 448.0 226.78175367545967
1527.0326823408247 455.8338127117021 4.416101411913789 0.7578781935332088 449.0 227.26144012162266
1532.86648162374 460.25512197367294 4.42908481250668 0.7578781935331733 450.0 227.7411265677856
1538.7002809066548 464.6764312356438 4.442068213099573 0.7568049906704317 451.0 228.21775794927976
1544.6048515624866 469.1386261001777 4.455117880977489 0.7556128701668428 452.0 228.6941020972032
1550.5164602554041 473.6048869362372 4.468174138972149 0.7555068456087639 453.0 229.1688159544794
1556.4280689483217 478.0711477722967 4.481230396966809 0.7549643847568532 454.0 229.64194542237777
1562.3756050735115 482.5580798106865 4.49432022635619 0.7537836170515533 455.0 230.11482084757034
1568.36578034909 487.06954470458913 4.5074498987195275 0.7531440544478656 456.0 230.58485867781556
1574.3559556246687 491.5810095984918 4.520579571082865 0.7531380619414065 457.0 231.0548965080608
1580.3465295411017 496.09270292688905 4.533709615161527 0.7519686860517893 458.0 231.52303358835755
1586.4160343467572 500.64962628521823 4.546913258874333 0.7507899745104538 459.0 231.99009840019093
1592.4855391524127 505.20654964354736 4.560116902587138 0.7507899745104538 460.0 232.45665208434008
1598.5550439580682 509.76347300187655 4.573320546299943 0.7501403696332645 461.0 232.92085822313913
1604.6688241795132 514.3456658442641 4.5865653865846 0.7489669112274839 462.0 233.38506436193822
1610.8184272373699 518.9483039964806 4.5998435586410285 0.7484447547124802 463.0 233.84734456329724
1616.9680302952263 523.5509421486972 4.613121730697457 0.7483260484723289 464.0 234.30880224628586
1623.1257612675545 528.1582007075741 4.626407449020282 0.7471640236614192 465.0 234.76971747741462
1629.356237074403 532.8068119060606 4.639760706427363 0.7461085385127006 466.0 235.2285329357255
1635.5867128812515 537.4554231045471 4.653113963834444 0.7461085385127078 467.0 235.6873483940364
1641.8171886881 542.1040343030337 4.666467221241525 0.7453540428431822 468.0 236.14440461715412
1648.1005953473714 546.7826157808598 4.679869513149816 0.7441882261359467 469.0 236.60068023418128
1654.4127241746241 551.4774602009634 4.693298412926983 0.7437814640020477 470.0 237.05655806633607
1660.724853001877 556.1723046210669 4.70672731270415 0.7435522573580542 471.0 237.51039251233098
1667.0531382290774 560.8762611893055 4.720171146032358 0.7423979059426244 472.0 237.9642269583259
1673.4477061227294 565.6176009293799 4.733676245210999 0.7414636639922492 473.0 238.41661545396272
1679.8422740163815 570.3589406694545 4.74718134438964 0.7414636639922634 474.0 238.86810381685
1686.2368419100335 575.100280409529 4.76068644356828 0.7406065772087587 475.0 239.31947285900927
1692.6933101618079 579.8763959411767 4.77424862794174 0.7394487130434584 476.0 239.76870677141275
1699.1711089423948 584.6644950226234 4.787830483564768 0.7391552661061453 477.0 240.21794068381624
1705.6489077229814 589.4525941040702 4.801412339187795 0.7388178248013162 478.0 240.66615024978054
1712.1511972169073 594.2543990477269 4.8150167283932745 0.7376714479376929 479.0 241.11321801226603
1718.7130244794673 599.0895234150323 4.828675897514713 0.7368563928668692 480.0 241.56028577475155
1725.2748517420275 603.9246477823378 4.842335066636152 0.7368563928668621 481.0 242.0055298204765
1731.8366790045877 608.7597721496434 4.85599423575759 0.7358990538294776 482.0 242.45051652103123
1738.469696815876 613.6345847412161 4.86971875354258 0.7347494321526185 483.0 242.89497665377147
