e[MeV/fm^3], P[MeV/fm^3], rho[fm^-3], v2[1], mu_q[MeV], mu_e[MeV]
94.94636686167317 0.4413807512378042 0.1 0.017144926874012978 317.95915870970356 100.14194102836514
96.25345916895651 0.46438280173863955 0.101370130672262 0.018050828425997673 318.0353072753812 100.71622101815169
97.57878587396496 0.4889147289631433 0.10275903392511473 0.018978478741635052 318.1154229041463 101.29329266428593
98.92261831843756 0.515056838407001 0.10416696696744283 0.01993741618724143 318.1996431681447 101.87339086851273
100.28523268360438 0.5428925939764973 0.1055941905322288 0.020928058904412294 318.28810773703464 102.45675835314887
101.66691010052308 0.5725087295449669 0.10704096892483764 0.021950831429947915 318.3809584218137 103.04364540530885
103.06793676350163 0.6039953672078681 0.10850757007196328 0.0230061667702052 318.47833922847735 103.63430959173816
104.48860404674332 0.637446142746121 0.10999426557124542 0.024094508557870375 318.580396421961 104.22901544452033
105.92920862436137 0.6729583388134567 0.11150133074156637 0.025216313272774044 318.68727860074745 104.82803411806668
107.39005259391891 0.7106330263661252 0.1130290446740369 0.02633262324504132 318.79913678245373 105.43164301794738
108.87144324503501 0.7504575631563305 0.1145776902836806 0.027379788949089157 318.9157811809634 106.03519591929809
110.37369030315959 0.7923452566411414 0.11614755436182667 0.028443750710363952 319.03680960138246 106.63104446790136
111.89710961867719 0.8365427599700687 0.11773892762922022 0.029602860408452614 319.16278568932495 107.22541138144616
113.44202400071198 0.8832022893798355 0.11935210478986052 0.03081675379852644 319.2939817061478 107.8202800772041
115.0087626359432 0.9324608268054214 0.12098738458557669 0.03207653840153257 319.4306135301825 108.41678515399795
116.59766107274434 0.9844526059126987 0.12264506985135126 0.0333788555828351 319.572877575836 109.01574285226425
118.20906130059554 1.0393129083643178 0.12432546757140178 0.034722164226582586 319.72096181198486 109.6178072901194
119.84331186574134 1.097179786861498 0.1260288889360307 0.03610575918483372 319.87505053699624 110.22353627590667
121.50076800626537 1.1581950535431216 0.12775564939925427 0.03752939680139894 320.0353269087984 110.8334244903535
123.18179180011872 1.2225049517695847 0.12950606873722095 0.03899312228419011 320.2019744838251 111.44792217954804
124.88675232321675 1.2902606752037458 0.13128047110743032 0.04049717991058882 320.37517825776854 112.06744650108215
126.61602581622238 1.361618808667125 0.13307918510876326 0.04204196213713013 320.55512543226473 112.6923887791011
128.36999585934686 1.4367417283704906 0.1349025438423348 0.04362797879016134 320.74200602035336 113.32311931570828
130.14905355487275 1.5157979820600824 0.13675088497318028 0.04525583735167221 320.9360133519554 113.95999066088581
131.95359771732294 1.5989626609987286 0.13862455079278757 0.04692622968453386 321.1373445144712 114.60333986649957
133.78403507131554 1.6864177710342154 0.14052388828248494 0.04863992261842359 321.3462007494494 115.25349004662196
135.64078045723807 1.7783526073010185 0.1424492491776985 0.05039775088765619 321.5627878181266 115.91075144995241
137.52425704491307 1.8749641354652484 0.14440099003308907 0.05220061149805344 321.78731634373486 116.57542218065164
139.43489655547157 1.9764573813647432 0.1463794722885824 0.05404945893201141 322.0200021353826 117.24778866062358
141.3731394916697 2.083045830182228 0.14838506233630352 0.05594530080258542 322.2610664963014 117.9281258984746
143.33943537689754 2.1949518357853512 0.15041813158842832 0.0578891936898025 322.5107365178817 118.61669761198014
145.3342430031443 2.312407040480186 0.15247905654596478 0.0598822389718191 322.76924535997193 119.313756238407
147.3580306881816 2.4356528051264106 0.15456821886847674 0.061925578515716895 323.03683251723027 120.01954285838335
149.41127654223357 2.5649406493030553 0.15668600544476283 0.06402039012815364 323.31374407080983 120.73428705289062
151.49446874439718 2.7005327009964972 0.15883280846450362 0.06616788269125529 323.6002329242818 121.45820670855176
153.60810582907197 2.8427021550743365 0.16100902549089094 0.06836929092671873 323.8965590223958 122.1915077831944
155.75269698265143 2.9917337396216346 0.16321505953425178 0.07062586974489937 324.2029895510543 122.93438404130187
157.92876235071572 3.147924189027033 0.16545131912668123 0.07293888814634031 324.5197991166839 123.68701676721646
160.1368333559542 3.311582722530232 0.16771821839769796 0.07530962265178998 324.84726990304495 124.44957446265052
162.37745302703036 3.483031526758055 0.17001617715093623 0.07773935024399081 325.18569180339756 125.22221253408111
164.6511763385809 3.66260624060152 0.17234562094188846 0.08022934081146915 325.5353625258525 126.00507297487326
166.9585705625237 3.850656440604008 0.17470698115671374 0.08278084909070982 325.8965876696714 126.79828404643985
169.30021563082028 4.047546124855926 0.1771006950921248 0.08539510610913514 326.2696807702228 127.60195996234462
171.6767045098178 4.25365419321003 0.17952720603637126 0.08807331013729802 326.65496331028777 128.41620057898425
174.08864358625897 4.469374921459542 0.18198696335133058 0.09081661716551281 327.0527646953988 129.2410910962777
176.53665306502424 4.695118426948568 0.18448042255572536 0.09362613092559324 327.4634221909173 130.07670177168117
179.02136737862796 4.931311122916572 0.18700804540947988 0.0965028924862753 327.88728081859597 130.92308765076032
181.54343560845712 5.178396158724471 0.18957029999923283 0.09944786945729844 328.32469321044726 131.7802883175264
184.1035219177003 5.436833842957312 0.1921676608250214 0.10246194484455995 328.77601941782854 132.64832766772795
186.7023059958707 5.707102046267467 0.19480060888815343 0.10554590560734001 329.2416266737851 133.5272137083043
189.34048351478077 5.989696580702984 0.19746963178028315 0.10870043097556015 329.72188910684457 134.41693838621924
192.01876659578394 6.28513155216587 0.20017522377370764 0.11192608059426701 330.21718740464917 135.31747744991566
194.7378842880429 6.593939682573202 0.20291788591290028 0.11522328257098802 330.72790842603064 136.22879034663245
197.49858305753736 6.916672598244364 0.20569812610729854 0.11859232150941268 331.254444760397 137.15082015882766
200.30162728647443 7.253901081021378 0.20851645922536285 0.12203332662240762 331.7971942335924 138.08349358291213
203.14779978270525 7.6062152786506765 0.21137340718992417 0.12554626002513847 332.3565593597251 139.02672095345017
206.03790229870845 7.97422487101053 0.21426949907483864 0.12913090531688942 332.932946738833 139.98039631587767
208.97275605963816 8.358559188871052 0.2172052712029651 0.13278685656762157 333.5267664006589 140.9443975506967
211.95320229989505 8.759867282019684 0.22018126724548684 0.13651350783185046 334.138431095253 141.9185865518261
214.98010280761576 9.178817933783291 0.22319803832259236 0.14031004331829666 334.768355531599 142.9028094617232
218.05434047644283 9.616099619228022 0.22625614310553732 0.14417542834684327 335.4169555659666 143.89689696545923
221.17681986388018 10.0724204046151 0.2293561479201033 0.14810840122835245 336.08464734222235 144.90066464569247
224.34846775550957 10.548507786057039 0.23249862685147524 0.1521074662029518 336.7718463868946 145.91391340006604
227.57023373430096 11.045108465720485 0.23568416185055527 0.15617088757153552 337.4789666623489 146.93642992212156
230.84309075422277 11.562988064397524 0.23891334284173335 0.16029668515257334 338.20641958201674 147.96798724632671
234.16803571733496 12.102930769778695 0.2421867678321344 0.16448263118950246 338.95461299219335 149.00834535727213
237.54609005352904 12.665738920328916 0.24550504302236242 0.16872624882707177 339.72395012549293 150.05725186250152
240.97830030207166 13.252232525277945 0.24886878291876183 0.17302481226331912 340.51482853159905 151.11444272781222
244.46573869411006 13.863248721880725 0.2522786104472169 0.17737534867077653 341.32763899146863 152.17964307320295
248.00950373530299 14.499641171781702 0.25573515706851063 0.18177464196441262 342.162764421631 153.25256802695756
251.61072078776104 15.162279399011274 0.25923906289526366 0.18621923847491373 343.02057877565136 154.33292363466364
255.27054265051086 15.852048072851947 0.2627909768104763 0.19070545456502286 343.9014459501977 155.42040781926136
258.99015013772936 16.56984623951489 0.2663915565876935 0.19522938620322217 344.8057187034414 156.51471138753368
262.7707526540526 17.316586507263548 0.2700414690128177 0.19978692048454105 345.7337375937395 157.6155190777877
266.6135887663111 18.09319419028743 0.2737413900075891 0.20437374906129868 346.6858299466582 158.7225106428518
270.51992677112264 18.900606417257457 0.27749200475475955 0.2089853834196389 347.6623088584275 159.83536196194274
274.49106525784066 19.73977121107202 0.2812940078249792 0.21361717191002905 348.66347224382025 160.95374617444665
278.52833366645217 20.61164654681457 0.28514810330542434 0.21826431841262917 349.6896019362678 162.07733482823338
282.6330928401043 21.51719939538142 0.28905500493018527 0.22292190249163424 350.74096284770735 163.20579903477514
286.806735572045 22.457404760583426 0.2930154362124422 0.22758490086796312 351.81780219524643 164.33881062310573
291.0506871468638 23.433244717781683 0.2970301305784511 0.2322482100167762 352.9203488012077 165.47604328451476
295.36640587603665 24.445707462261286 0.30109983150336633 0.23690666967600826 354.0488124724866 166.61717369984964
299.75538362787967 25.49578637558757 0.3052252926489232 0.24155508703558404 355.2033834644437 167.76188264138815
304.21914635214523 26.584479118113485 0.30940727800300755 0.24618826136378225 356.38423203374396 168.90985604145197
308.7592545995923 27.712786755619547 0.31364656202113766 0.25080100881845846 357.59150808369253 170.06078602025093
313.3773040369901 28.881712927768064 0.31794392976988456 0.2553881871862518 358.82534090468107 171.21437186587718
318.0749259581095 30.09226306564702 0.3223001770722569 0.2599447202934084 360.0858390113974 172.37032095989775
322.8537877913715 31.345443665174663 0.3267161106550786 0.2644656218363881 361.37309007746103 173.528349642617
327.7155936049114 32.642261622538065 0.33119254829838535 0.26894601838995147 362.68716096714843 174.68818401277815
332.66208460991504 33.98372363716619 0.33573031898686767 0.27338117136401197 364.02809786289913 175.8495606572429
337.69503966315926 35.3708356869955 0.3403302630633898 0.2777664976981793 365.39592648633356 177.01222730700064
342.81627576976535 36.80460257999539 0.34499323238461127 0.2820975891039885 366.79065240961546 178.1759434167117
348.02764858723793 38.28602758509271 0.3497200904787409 0.2863702296889894 368.2122614531486 179.34048066585706
353.33105293190584 39.81611214478573 0.35451171270545256 0.2905804118231612 369.6607201648272 180.50562338043466
358.72842328893415 41.395855670886135 0.3593689864179913 0.2947243501361716 371.1359763753846 181.6711688750005
364.22173432709656 43.026255423985056 0.3642928111275013 0.2987984935632788 372.63795982379526 182.83692771567456
369.81300141952 44.70830647642269 0.3692840986696046 0.302799535386852 374.1665828462073 184.00272390551643
375.5042811716241 46.44300175776399 0.37434377337326313 0.3067244212496534 375.72174112150384 185.16839499440093
381.2976719574698 48.231332181053574 0.3794727722319532 0.3105703551439176 377.30331446632607 186.3337921161855
387.19531446572614 50.074286847456044 0.38467204507718605 0.3143348034070681 378.9111676722288 187.49877995655083
393.1993922564417 51.97285332629083 0.38994255475440603 0.3180154967793083 380.5451513775847 188.66323665540298
399.3121323297738 53.92801800694275 0.39528527730129825 0.32161043060026806 382.20510296689145 189.8270536481518
405.5358057078041 55.94076651868651 0.4007012021285392 0.3251178632416343 383.890847490275 190.99013545052233
411.8727280305149 58.01208421409693 0.40619133220302484 0.32853631288899976 385.6021985961955 192.15239939181075
418.32526016696573 60.14295671143323 0.4117566842336082 0.3318645527995736 387.33895947065554 193.31377530167202
424.89580884264774 62.334370491179754 0.41739828885938196 0.33510160517288057 389.10092377656383 194.47420515561976
431.58682728395144 64.58731354179983 0.42311719084054106 0.33824673377890235 390.887876587319 195.63364268444144
438.4008158806202 66.90277604970314 0.4289144492518606 0.3412994354925418 392.6995953091234 196.79205295268602
445.3403228670059 69.28175112843704 0.434791137678824 0.3442594308849447 394.53585058702333 197.94941191127197
452.40794502289003 71.72523558218649 0.44074834441643845 0.3471266540215865 396.39640719017103 199.1057059291027
459.6063283945767 74.23423069879462 0.44678717267077506 0.3500429385770536 398.2810248723229 200.2609313083735
465.2147118906666 76.2039301185031 0.45146882330663746 0.35236959119439604 399.0 200.6957453872934
470.95472252636705 76.55449356299124 0.47145838650832794 0.06276542897298043 400.0 201.30051467927814
492.52868026944407 77.94954949669803 0.546216313300631 0.06656234206656753 401.0 201.89886428982257
513.6795860935077 79.39677000431243 0.6192846674884587 0.07036361083906861 402.0 202.49571333711043
534.410229453891 80.89487207334747 0.6907194637701455 0.07423984806355266 403.0 203.08584853825403
554.7285444988706 82.44262614767693 0.7605807444574832 0.07817913174112512 404.0 203.6750555154176
574.6457400357574 84.03885768466728 0.8289309055890242 0.08217137384558848 405.0 204.25745647114007
594.1751185049668 85.68244766655751 0.8958334227887403 0.08620761924905462 406.0 204.83929136948632
613.3312827935083 87.3723323332452 0.9613518857589449 0.09027970045128253 407.0 205.41440837990046
632.1295837097921 89.10750233278954 1.0255492729964812 0.09438006046168423 408.0 205.9891331107018
650.5857246431024 90.88700146687619 1.0884874055487863 0.09850165844952885 409.0 206.5573881187232
668.7154763820809 92.70992511918716 1.150226544074669 0.1026379275433209 410.0 207.12525662830706
686.534466671488 94.5754184957304 1.21082508251632 0.10678276580586266 411.0 207.68704469745765
704.0580252004777 96.48267470998417 1.2703393180452132 0.11093054548468695 412.0 208.2483030928726
721.3010675220905 98.43093276575028 1.3288232700062252 0.11507615331145082 413.0 208.80399385056722
738.278003828554 100.41947548850278 1.386328517754931 0.11921505345466477 414.0 209.35888053459985
755.0026654998728 102.44762738241928 1.4429040434796991 0.12334339546385653 415.0 209.90881957615204
771.4882352155619 104.5147524567661 1.4985960341301756 0.12745816993521908 416.0 210.45756539050848
787.7471770416589 106.62025191830318 1.5534476265618913 0.13155749935402472 417.0 211.0020756399369
803.7911373689476 108.76356180575141 1.6074984769741305 0.13564113739311878 418.0 211.5449040154655
819.6308024117476 110.94415031796551 1.6607840677053816 0.13971140625437295 419.0 212.08428703996188
835.275645191866 113.161514715612 1.7133344266785144 0.14377526386137074 420.0 212.62141415285072
850.7334218226317 115.41517750120035 1.7651715370225975 0.1478494775299799 421.0 213.15595142848727
866.0089895516394 117.70467925827457 1.8163032698619088 0.1519792075286852 422.0 213.68758636143002
881.1004699550136 120.02956918533539 1.866703713732196 0.15642684077787905 423.0 214.21754048833904
895.9573167051376 122.38829621994387 1.9161008092702791 0.1608718020287876 424.0 214.74388539572888
910.6213393716754 124.77783691208218 1.9646845247988465 0.16447922320084807 425.0 215.26950126157584
925.219691350702 127.20114881148774 2.0130832486859207 0.16750783794016844 426.0 215.79075153784586
939.7568983288959 129.65808727139003 2.0613120450107862 0.1705012636126355 427.0 216.3120018141159
954.2373152727298 132.1485213500811 2.109385471760504 0.17345927000183714 428.0 216.8286018792416
968.6651296642947 134.67233329878644 2.1573175948185317 0.17638173401519985 429.0 217.34494632953877
983.0443667512409 137.22941792981516 2.2051220121779798 0.1792686351694046 430.0 217.85783155156358
997.3788930921883 139.8196821887891 2.2528118654191083 0.1821200377697636 431.0 218.36945256400142
1011.6724234524561 142.44304451999767 2.3003998707303284 0.1849360883203479 432.0 218.87881490603743
1025.9285241288812 145.0994345244531 2.3478983275466034 0.18771700496545396 433.0 219.38588862483826
1040.1506205403846 147.78879241037566 2.3953191505967273 0.1904630595417851 434.0 219.89190664136743
1054.3420018184504 150.51106859979632 2.442673887618816 0.19317457347554434 435.0 220.3946031402605
1068.505828271273 153.26622332344232 2.489973749422352 0.19585189532928649 436.0 220.8972996391536
1082.6451380498947 156.0542262486323 2.5372296391513456 0.19849538530391264 437.0 221.39592633574898
1096.7628555889262 158.87505612973314 2.584452191385299 0.20110538349770124 438.0 221.89440979105288
1110.8618015248044 161.72870049418663 2.631651821873821 0.20368216792362315 439.0 222.39017105934653
1124.9447056058618 164.61515536425176 2.6788387970179057 0.20622588471239123 440.0 222.88459992221763
1139.0142245568375 167.53442501222082 2.726023337193915 0.20873644450263829 441.0 223.37763375677227
1153.0729674118313 170.48652184762324 2.773215767948406 0.2112133189925416 442.0 223.86816092415333
1167.1235377911155 173.47146625118208 2.820426788482653 0.2136552051791174 443.0 224.3585953974958
1181.1686005661322 176.4892867630461 2.8676678979155046 0.21605937815964893 444.0 224.8453683813519
1195.2110039293207 179.5400203776374 2.9149521947000725 0.21842038026390842 445.0 225.332141365208
1209.2540073797268 182.62371340199226 2.9622958816664497 0.22072727996502106 446.0 225.81648344756059
1223.3017415462837 185.74042325295878 3.00972132041147 0.2229573999238692 447.0 226.29964454203414
1237.3602079429181 188.89022224380068 3.057263697018937 0.22506074658530117 448.0 226.78175367545967
1251.439656949941 192.07320595012803 3.1049869167304576 0.22691693386586032 449.0 227.26144012162266
1265.5609249584243 195.28951316898358 3.153026042305881 0.2281985520400891 450.0 227.7411265677856
1279.7750360719388 198.53937951512063 3.2017187737605632 0.22785519871500437 451.0 228.21775794927976
1294.2378534737277 201.8233083242516 3.252106935885538 0.2217273220034901 452.0 228.6941020972032
1309.6013374575537 205.142780222699 3.3085688395969046 0.20198757607004314 453.0 229.1688159544794
1327.7350583850243 208.5043155747416 3.383785160119725 0.2778140079584137 454.0 229.64194542237777
1338.0163579247062 211.8994512637559 3.406408277774202 0.33024835160099286 455.0 230.11482084757034
1348.4650917149431 215.3503830058096 3.429274554687714 0.3302687345645232 456.0 230.58485867781556
1358.866896273161 218.78573255242884 3.452071970571741 0.3302648792658278 457.0 231.0548965080608
1369.269900314724 222.221480606437 3.4748711353219375 0.33028670279478334 458.0 231.52303358835755
1379.9104020586426 225.73613312345853 3.4980165755736934 0.3303089085089681 459.0 231.99009840019093
1390.5509038025612 229.25078564048002 3.5211620158254493 0.33030890850897165 460.0 232.45665208434008
1401.1914055464795 232.76543815750153 3.544307456077205 0.33032089584085966 461.0 232.92085822313913
1411.9658501055105 236.32459311909966 3.5676467211461396 0.3303425288929702 462.0 233.38506436193822
1422.8486665785867 239.91975460403708 3.5911428081126093 0.33035211921763974 463.0 233.84734456329724
1433.7314830516632 243.51491608897447 3.6146388950790795 0.3303542857237751 464.0 234.30880224628586
1444.639019066574 247.1182910431072 3.6381704864759197 0.33037524978092137 465.0 234.76971747741462
1455.7677949809045 250.7951765465381 3.662019842524575 0.33039442358581717 466.0 235.2285329357255
1466.8965708952348 254.47206204996903 3.68586919857323 0.33039442358581717 467.0 235.6873483940364
1478.0253468095652 258.1489475533999 3.7097185546218854 0.3304078563247099 468.0 236.14440461715412
1489.3159440330924 261.8796034476065 3.7337986141859023 0.33042863756981156 469.0 236.60068023418128
1500.6943512693615 265.6394370732417 3.758003861703991 0.3304358463854733 470.0 237.05655806633607
1512.0727585056309 269.39927069887693 3.7822091092220798 0.3304398834040434 471.0 237.51039251233098
