M[M_sun], R[km], Lambda[1], P_c[MeV/fm^3], rho_c[fm^-3]
0.24162668629717493 15.618656898711224 2160425.4255784233 3.5677272577965504 0.1711233750220791
0.2536447693866577 15.277252029079913 1723232.8560014875 3.784833381207005 0.1738883447543975
0.266040667234737 14.981264066154909 1383003.21861424 4.011430444620866 0.17666701108830185
0.278817320231811 14.723473124394985 1116396.6706923186 4.2477741121547865 0.1794580465609287
0.29197223705692166 14.498363356717098 905811.7044624356 4.494489738256714 0.18226802050668478
0.30550886047210546 14.30118886536077 738627.4660134894 4.751733331594808 0.18509264708911122
0.3194259927028679 14.128097913199825 605063.9316148534 5.020186559703415 0.18793853147728234
0.3337261397064491 13.975876766352776 497673.87202558876 5.300074289739224 0.19080231252333668
0.3484073217917901 13.841974311837271 410973.72023668874 5.592124261265585 0.19369026901853664
0.36347096405136575 13.723932865563139 340623.5745889866 5.896504877633419 0.19659748463575394
0.3789257645285983 13.61994381636956 283275.21571779787 6.214079790525226 0.19953163096439067
0.3947588095187601 13.528390921696191 236377.09863399024 6.545105100476476 0.2024888628208397
0.41098494077569614 13.447820982208269 197836.349317122 6.890285887941338 0.20547293653583124
0.42759346239738694 13.377023315499281 166063.22338235594 7.250326154089629 0.20848690488971747
0.44458971778945533 13.314898268547395 139785.99362965507 7.625483091886788 0.21152628580820146
0.4619731283299811 13.260529307008388 117962.65291708865 8.016709308301458 0.21459729650744064
0.47973909603505427 13.213124974234564 99808.44600713626 8.424708293537911 0.21770155828008278
0.4978967904096373 13.171956682555306 84626.0187082531 8.849918623987802 0.22083650547871306
0.5164370702530544 13.136373242348695 71926.06456960502 9.293218235334257 0.2240056108534375
0.5353571236166769 13.105812942430022 61265.768786735185 9.755489976178607 0.2272117630712339
0.554665021993538 13.079800063760349 52295.64684131647 10.237543613452377 0.23045631335518738
0.5743492323528332 13.05781410403677 44721.85092138015 10.739846779400429 0.2337359125854127
0.5944073829078782 13.039500085605852 38320.36024962849 11.263651351629052 0.2370568382539136
0.6148459738211641 13.024482848015388 32895.61131482691 11.809891800753691 0.24042066288179442
0.6356516206918281 13.012418441612295 28286.248998191975 12.379547367825568 0.24382901984263883
0.6568236686132857 13.003016434229446 24366.26603033234 12.973302394654993 0.24727980617590833
0.6783568054010554 12.99596937548532 21023.85379161981 13.59249315614785 0.2507779124448134
0.7002462900815954 12.991062728486174 18168.855377098018 14.238313166039662 0.2543259252951396
0.722481391130141 12.987995526173 15725.67855472089 14.911952419927614 0.25792582993574203
0.7450717189647537 12.986639205189286 13631.09389918809 15.614433363409736 0.26157744919668985
0.7679941088892828 12.986755171960526 11833.947424764794 16.347036896408863 0.2652828238424741
0.7912402773531387 12.98814883464106 10286.654596642757 17.111372473525147 0.269046574438639
0.8148153985037445 12.990673815624186 8954.27111006261 17.908895545548535 0.2728711343615492
0.8387010353931784 12.994134952166016 7805.944161607733 18.74095921298749 0.27675747368697345
0.8628824954776169 12.998418921831238 6812.449000807232 19.608932761713866 0.2807062935870624
0.8873662413374193 13.003364641209766 5954.015622599871 20.514890697853385 0.28472384793548877
0.912123130487931 13.00885237016268 5209.8656223437565 21.4606276805088 0.2888131511355839
0.937146846278097 13.014737489064233 4563.997900178371 22.447612159384192 0.2929739969445304
0.9624301660210863 13.020959119301393 4003.589983298014 23.477901504126287 0.29721043928817437
0.9879518039141066 13.027342743551431 3515.631067061828 24.55390348900986 0.30152845545635876
1.0136958800276634 13.033801524461452 3091.2664759675326 25.677541618702286 0.305929535284834
1.0396622808230853 13.040262088200972 2720.713067168896 26.850815579026982 0.31041522110278547
1.0658141542072495 13.046586241822101 2397.5305889641495 28.076804661834114 0.3149941116496642
1.0921486854839855 13.052711833311859 2115.0912637151173 29.357540752928376 0.31966649115219975
1.1186480623879567 13.058552059382222 1867.869011624367 30.69582692388646 0.3244373664918995
1.1452803381266425 13.064002648113213 1651.6491798346065 32.09501539174528 0.3293144713685739
1.1720453260895491 13.069017280516663 1461.6258112033643 33.55709782544288 0.3342958299420615
1.1989025543670708 13.073473467094038 1295.0396737059673 35.08659370488176 0.33939485185919965
1.2258500402306542 13.077344486120637 1148.7138802368822 36.68549729906573 0.34460811922013523
1.2528476825025434 13.080501547138308 1019.866263096223 38.35889012830601 0.3499502482613074
1.279889885634022 13.082938490036222 906.3728501757123 40.10904431043649 0.35541799991961065
1.3069357483405852 13.08452517786669 806.5357718916281 41.94137205565704 0.3610255863186077
1.3339742234697798 13.08524217766144 718.3720411042901 43.85941873539013 0.3667752805859605
1.3609843995496256 13.085030375063386 640.4182146107569 45.86781436248689 0.3726745078575879
1.3879152790418963 13.083769341478646 571.609952491407 47.97192308832173 0.37873339274445256
1.414765654341624 13.081461767362494 510.6539835998179 50.17653725734683 0.3849577634588668
1.4414972742142362 13.078022835441638 456.73698926928637 52.48681174987036 0.39135424957967546
1.4680928968062474 13.073419875340319 408.881028460603 54.909197274559894 0.39793471617611054
1.494503533421182 13.067552297533188 366.42439459187574 57.449885576033985 0.4047082274188825
1.520715299909681 13.060402102231418 328.7414134354655 60.115506676055595 0.41168455782458935
1.5466993338387223 13.051910027761409 295.1907411117435 62.91316832952927 0.4188742507480941
1.57241549664639 13.042025735583495 265.37588662203075 65.85049925842611 0.42628868165107753
1.5978301662588712 13.03068611082492 238.83942464355852 68.9356965472013 0.43394012670581233
1.6229268514090172 13.017866364811164 215.16438958439252 72.17757763095484 0.44184183736167815
1.6476795127357702 13.003521939109875 194.03505799022426 75.58563736165148 0.4500081215777778
1.672028054489349 12.987586442646702 175.17448776686638 79.16975384249902 0.45845294234423345
1.6959655214377554 12.970027832770365 158.31463125915806 82.94024684341781 0.46719009988288
1.7194454716963452 12.950811100932302 143.23081573100154 86.90979763949416 0.47624089349352244
1.7424211009093349 12.92983663151427 129.733885667371 91.08992519483482 0.4856194200983334
1.764909639906444 12.907209906891595 117.63727703945955 95.4948491493848 0.4953481068269141
1.786835890739995 12.882769838797277 106.78948537431008 100.13811537751114 0.5054439812447258
1.8081729667536859 12.85650662375754 97.0527450792633 105.03631890995717 0.5159330042480987
1.8288817015502408 12.828364305179903 88.29897453146937 110.20600770886523 0.5268377231445787
1.8489606400145762 12.798389249443426 80.43710810792115 115.6649013528216 0.5381818196027282
1.8683358147810534 12.766445489585529 73.3631108811452 121.43305973746021 0.5499940565077699
1.887013929321807 12.732619502748458 66.98831728697692 127.53192272631024 0.5623042850179153
1.9049346032929335 12.696795816462402 61.23514427961085 133.9840587437498 0.5751422411129025
1.9220736854927138 12.658971727395299 56.05358001349974 140.81512426132383 0.5885440983490182
1.938385627604929 12.619076059283417 51.373150088481815 148.05280109473597 0.6025481107509744
1.953880147450191 12.577226026011573 47.14704610457474 155.7255185866117 0.6171897775749269
1.9684951106172646 12.533285511873713 43.326577598432934 163.8670153708526 0.6325169867155073
1.9822075096979137 12.487278333282525 39.86617136695953 172.51117793299915 0.6485716459689358
1.9949929489576217 12.43919146252713 36.73175887427517 181.69712663832354 0.6654063145117448
2.0068275649635456 12.389024264918401 33.89104789906389 191.4669781386471 0.683075752912507
2.017671889000499 12.33674176197526 31.316710587962667 201.8667892098833 0.70163922420864
2.0275065580862126 12.282350193257212 28.9827045159244 212.94642291296435 0.7211590712266811
2.036312389426701 12.22587236538411 26.85985088979611 224.76161177679933 0.7417063751955987
2.0440536742284583 12.167270091454213 24.933589545697433 237.3733260007948 0.7633575727705763
2.050710526870598 12.106553479163024 23.180282564510062 250.84857748058718 0.7861956651504816
2.056280182979889 12.043796791565176 21.58676740715981 265.26065223292045 0.8103093378058017
2.0607231209887242 11.978939063558032 20.136306479082375 280.69091382675504 0.8357969632790835
2.06402494181811 11.912035720708465 18.81595020801806 297.2295558473358 0.8627669173555288
2.0661816963624027 11.8431236889055 17.613489680026458 314.97689178210686 0.8913393593336812
2.067169207032017 11.772221959952345 16.51827870202555 334.0422380754703 0.9216397150727325
