M[M_sun], R[km], Lambda[1], P_c[MeV/fm^3], rho_c[fm^-3]
0.24162668629717493 15.618656898711224 2160425.4255784233 3.5677272577965504 0.1711233750220791
0.25364417359160857 15.277269607596907 1723215.6154346354 3.784822287196144 0.173888206472904
0.2660400738516774 14.981270359949091 1382899.5075523588 4.011407122698109 0.176666729256629
0.27881569169887777 14.723501494982191 1116421.1950248084 4.247737773202563 0.17945762508384455
0.29196992386461645 14.49839633894201 905879.6487942976 4.494439428609238 0.18226746029708385
0.3055059877997281 14.301191462014854 738692.117568136 4.751667342886901 0.1850919342851245
0.31942156828993334 14.12814386324493 605108.3507033985 5.020104405737654 0.18793767909817907
0.33371982970520125 13.975929591549209 497666.4812431642 5.299973807488854 0.19080130083380564
0.34840135736806926 13.842024639729258 411005.06378720107 5.592005199740742 0.19368911706553107
0.3634638391696395 13.7239857966956 340646.13484297256 5.896364561790685 0.196596166759665
0.3789174281254808 13.619999815659249 283311.61690685246 6.213916522190306 0.19953014215376408
0.3947499949726071 13.52845468431598 236407.61493639307 6.544919049053635 0.20248723140120453
0.41097441332149875 13.447873550324756 197862.74731808095 6.890073461513356 0.20547112742322926
0.427583551626229 13.37704654960804 166078.48352072452 7.250085359092811 0.20848491285441925
0.44457821941739634 13.31493084591124 139802.2075341761 7.625214593752038 0.21152414839040512
0.46195982440197053 13.260565918206591 117980.50321813188 8.016408423513305 0.21459496892034938
0.4797234491782861 13.213166375099556 99813.04977709566 8.424372675629138 0.21769903490259404
0.4978822136316831 13.171977188333823 84640.10057229402 8.849549510349966 0.220833832938265
0.5164200345086211 13.136401544706834 71936.68554823115 9.292809652210616 0.2240027344027749
0.535338238756834 13.105861937624578 61274.60978902447 9.755039153015375 0.2272086764972238
0.5546448807159389 13.079809831523244 52298.07932404394 10.237047611333988 0.23045301017456998
0.5743274993830676 13.0578556319901 44729.4999703863 10.7393077534129 0.2337324518716034
0.5943850457753727 13.039534265050266 38327.14086436875 11.263061195105777 0.23705315094527654
0.6148222997925995 13.02450073730264 32901.81954425674 11.809247027006931 0.24041674158163287
0.635625784941337 13.012457692520174 28291.940933599424 12.378844272628191 0.24382485676380342
0.6567964864241971 13.003014281695991 24369.658387145642 12.972544206752808 0.24727547268476902
0.6783297822685604 12.995966877924582 21028.30420629728 13.591669108404385 0.2507733243677534
0.7002168337417913 12.991050814786878 18172.402190883808 14.237418839624727 0.25432107353069094
0.7224509404216859 12.988007961989378 15729.403839608878 14.910983112075336 0.2579207048397437
0.7450382846489454 12.98664926433238 13633.594479126063 15.613393527257402 0.2615721342440297
0.7679596689363238 12.986758803574965 11836.480746562862 16.345912449434596 0.2652772187563284
0.7912043698068477 12.988136617485132 10288.854521627647 17.11015777181295 0.2690406677555451
0.8147796967883176 12.990666068178472 8956.500538828133 17.907584570974947 0.2728649138809367
0.8386607622665098 12.994133684101518 7807.3355907645955 18.739557780450756 0.27675103482958785
0.8628424088542396 12.998393469970877 6814.435689063481 19.607422647864727 0.28069951865860027
0.8873219784436592 13.003353236233556 5955.2205643957905 20.513264633832232 0.28471672227082284
0.912077970849444 13.008853004430524 5211.079302130456 21.458877899671343 0.28880565908075173
0.9370984811416694 13.014738864667518 4565.149100162478 22.44574595100892 0.2929662457773975
0.9623817494464137 13.020947713338398 4004.5614074283476 23.475895446840656 0.2972022920934797
0.9879020793704064 13.027333069215851 3516.5537795595665 24.551748139548444 0.301519893276141
1.013643741839917 13.033788485661317 3091.8524806408614 25.675245320566827 0.30592067342808726
1.039607960907348 13.040244621003106 2721.4160199181656 26.84835025728766 0.31040590756118364
1.0657593859777448 13.046571859345798 2398.2265470663388 28.074158775252965 0.31498432336468085
1.0920914579650587 13.05270192068551 2115.708081974042 29.354723679541213 0.3196563514176979
1.1185896960559234 13.058534145460998 1868.5743734233515 30.69280502794769 0.3244267065581615
1.145220110923377 13.063994930131868 1652.0676902149696 32.0917985367053 0.329303418571504
1.1719831441349495 13.06900462735719 1462.0410340478916 33.553648274835645 0.33428420460085156
1.1988387743472961 13.073466204351721 1295.4684291441456 35.08289517596779 0.33938262182675466
1.2257851890048064 13.077330473039124 1149.0606647863333 36.68156052540972 0.3445954197977204
1.2527815315563218 13.08049023450387 1015.7093823227843 38.35469913213061 0.3499370512161274
1.2798224337643977 13.082939864296183 906.684427962074 40.10455145250848 0.35540410051814825
1.3068672073916303 13.084521521277251 806.7625712786606 41.936588083513534 0.36101112364604926
1.3339038168909367 13.085233463112548 718.5948447464283 43.85429000797143 0.3667600353556896
1.3609106825767365 13.085032549409323 640.5699516076148 45.86235162699812 0.37265862296484303
1.3878427482669904 13.08377793559058 571.7931962374093 47.96610300975589 0.37871682692209196
1.4146995241192766 13.081482569682068 510.8154077794263 50.17029601072001 0.38494027479801884
1.441422484618146 13.078032469579673 456.87014646301293 52.48015924379212 0.39133598429046323
1.4680175718657875 13.073433339516075 409.00477986454194 54.902104049766024 0.3979156224906541
1.494426036536708 13.06757178468403 366.53058985559204 57.44231978688782 0.4046882495671533
1.5206376244748168 13.060423217161425 328.83191437813025 60.10743387687638 0.41166363570572406
1.5466210725142289 13.051937163573166 295.2880733815724 62.904551239598256 0.41885231956913066
1.572337692578989 13.04205913860777 265.45830623168695 65.84129750329673 0.4262656715296202
1.5977617312822303 13.030731762533163 238.91681447161474 68.92586637364906 0.43391596223271806
1.6228483780238858 13.017910049119823 215.23924722791318 72.16707159257626 0.4418164371193911
1.6476009954307989 13.00357021350713 194.09762388728547 75.57440397175066 0.4499813976094162
1.6719495572596297 12.987636626765338 175.22051612632276 79.15779585382909 0.45842504449347476
1.695886982347381 12.970090001496091 158.36081999836608 82.92744757507393 0.46716068720150333
1.7193669833647403 12.950878751385616 143.2773500399955 86.89609119748523 0.47620985514607
1.7423494081309594 12.929940206987917 129.77573259498334 91.0753058742106 0.485586897491123
1.7648325164858132 12.907293573507785 117.67849669700746 95.47917610185476 0.4953137166610117
1.7867583812915293 12.882858931630663 106.81561945100329 100.12137495563844 0.5054078561405871
1.80809831993206 12.856603836697262 97.08357397682647 105.0184242975588 0.5158950050011623
1.828808300935334 12.828471838359023 88.32836914014545 110.18686420999144 0.5267976991807528
1.8488883318336584 12.798506345940595 80.46329465271944 115.64432736851849 0.5381393208506942
1.8682652829709583 12.766567598599089 73.38642889502141 121.41101783181398 0.5499491872653315
1.886944350839278 12.732750165809591 67.00783079927301 127.50835884802231 0.5622571016334912
1.9048668869828922 12.696937004244562 61.25490819722098 133.95878492212887 0.5750923427415707
1.92200995037284 12.659121596507203 56.07425932037157 140.78797818252698 0.58849120746439
1.9383239414490065 12.61923403606708 51.39166870282591 148.02362017693764 0.6024919798037481
1.9538189845657146 12.577395091575168 47.15963341234039 155.69422038711937 0.617130464353895
1.9684376375125467 12.533467289085893 43.33778909461253 163.83341020328416 0.632454211983211
1.9821538890525499 12.487468378897942 39.879359649981836 172.4749563389213 0.6485047667558582
1.9949446186691533 12.439395302034638 36.745033456739534 181.65815729906498 0.6653353313199448
2.00678082185467 12.389237736448308 33.90266225156424 191.42500796377175 0.683000302625777
2.0176287058188556 12.33696614629894 31.327299977573784 201.82153900928932 0.70155890956615
2.0274657345418454 12.28258389645688 28.990991083811966 212.89769849845962 0.7210738307785942
2.036276699239537 12.22612162785848 26.86968869899188 224.70896210326916 0.7416153689814908
2.044022882240428 12.167529323707907 24.94255422904747 237.31649454532564 0.7632606699183748
2.0506838233274314 12.106825624301981 23.18685383493749 250.78715360098744 0.7860923121568866
2.0562561764891814 12.04408365794773 21.593301864903655 265.19405388430704 0.8101985142844265
2.0607057266821722 11.979236962955413 20.142347239818594 280.61888784662483 0.8356788239077699
2.0640123445860614 11.912343739912197 18.821035842812297 297.1514125794537 0.8626403112597619
2.0661746160674 11.843446555780481 17.618931212050597 314.89200365155295 0.8912034701328747
2.067168362421373 11.772558971252112 16.52365011106004 333.9500451342267 0.9214941036863583
