M[M_sun], R[km], Lambda[1], P_c[MeV/fm^3], rho_c[fm^-3]
0.24162668629717493 15.618656898711224 2160425.4255784233 3.5677272577965504 0.1711233750220791
0.2536390740576597 15.277425617584022 1723251.1432598438 3.7847513188890063 0.1738873218871918
0.26603184528454693 14.981453615420536 1383184.0390068367 4.011257934822008 0.17666492640919096
0.27880345627696596 14.72372912850212 1116670.0066442525 4.247505320217753 0.17945492897951992
0.2919533677217253 14.49865967633664 906106.5612788665 4.494117612550365 0.1822638768005787
0.3054835823225524 14.301497377242095 738851.0361804159 4.751245238674657 0.18508737475403425
0.31939678394771603 14.128400276797807 605299.8682647647 5.019578905925767 0.18793222683480643
0.33368795626011605 13.976305309043905 497911.1995815655 5.299331079564697 0.19079482963008787
0.34836318045919673 13.842307556244268 411176.6156751895 5.591243640906458 0.19368174877431177
0.3634196625661791 13.724311839423816 340826.9978885355 5.895467065515423 0.19658773728471726
0.37886695530085757 13.62032357268295 283467.7783803006 6.212872230359801 0.19952061946967908
0.3946940580450213 13.528748198985927 236553.14388845232 6.54372904783503 0.20247679669813026
0.41091176573780014 13.448155651467037 198001.85369718052 6.888714781939933 0.20545955633783422
0.42751268510116597 13.377336132073333 166214.86106467826 7.248545254969622 0.20847217196770298
0.444501537876437 13.31520302893825 139912.87535920335 7.623497323538176 0.21151047781530166
0.46187481952130843 13.260820501798555 118065.56657899264 8.014484039159328 0.21458008225157343
0.47963252829014336 13.213393076643667 99894.70604197243 8.422226175294146 0.21768289622082734
0.49778287328740767 13.172179521928326 84717.90990440868 8.847188809965356 0.22081674045883076
0.5163119146883665 13.1365946083264 72010.20818175563 9.2901965552316 0.22398433803713502
0.5352217985795789 13.106015816699745 61333.37930994793 9.752155947051264 0.22718893654302363
0.5545207505517047 13.079957052966417 52355.700765354166 10.23387550794111 0.23043188520341495
0.5741921208843392 13.057966280015384 44372.00165032731 10.735860536095936 0.23371031966861422
0.5942440912061957 13.039655425529876 38368.92377155142 11.259287032745728 0.23702956991055257
0.6146698509526872 13.024601153036514 32938.53357064478 11.805123630221175 0.24039166444943985
0.6354623810833723 13.012507061460873 28094.183102560022 12.374347961735793 0.2437982337733699
0.6566251000794848 13.003083764496527 24401.013204673018 12.967695629091262 0.24724776020310846
0.6781465841745089 12.996037225964805 21052.83582161081 13.586399427420986 0.25074398419586985
0.7000267274549605 12.991084722277229 18195.68807364896 14.23169980865932 0.25429004750858625
0.7222488061016109 12.988030701105274 15749.557158029356 14.904784669921453 0.2578879313395557
0.7448266245502682 12.986656832701764 13651.8206070225 15.60674414764971 0.261538147026183
0.767736613074453 12.986751156421398 11851.48214986361 16.338722106141137 0.2652413766984109
0.7909716386156344 12.988122880788046 10303.349932522795 17.102390389116454 0.26900289760374846
0.8145335109751395 12.9906443550111 8969.435050107446 17.899201681845618 0.2728251376714233
0.8384059063886102 12.99410086215501 7818.196412379056 18.730596561920493 0.27670986266710024
0.8625770280405378 12.998353231738463 6824.500841658805 19.59776661071825 0.280656198109668
0.8870409354749302 13.003295384153368 5964.467657259533 20.502867318555364 0.2846711596231504
0.9117905790496881 13.008778924196866 5218.958305467635 21.447689665934448 0.28875775430385725
0.9367992984758504 13.0146671195249 4572.215142578934 22.433813397593124 0.2929166847438739
0.9620663172308134 13.020864179348001 4010.9023827465753 23.46306886822842 0.2971501995465876
0.987581496567487 13.027253139944339 3522.2048919763183 24.537967182118233 0.3014651480743984
1.013317544201343 13.033714411283087 3097.1546164077504 25.66056331876093 0.3058640127555244
1.0392638056141037 13.040168057960324 2725.936346385318 26.8325877709866 0.310346359726282
1.0654084229351726 13.046502275622041 2402.236165554873 28.05724204587996 0.3149217410267724
1.0917271925881 13.052615543467383 2119.3202834698996 29.336712650462157 0.3195915227718415
1.1182141853595673 13.0584652306498 1871.8311549503687 30.673484729762524 0.32435855295438926
1.1448349908560773 13.063917594051096 1654.9482832200897 32.07118629810691 0.3292324582959543
1.1715880755832275 13.068934053388649 1464.6682597699096 33.53159435678981 0.33420988062318296
1.1984374920281748 13.073416663052562 1297.753095142492 35.059249811905595 0.33930443301807367
1.225370286046373 13.077281075414062 1151.1168025841216 36.65639231521665 0.34451423104759277
1.2523564737377264 13.080453261081145 1022.0421650654997 38.32772924130283 0.349851645235376
1.2793888108931561 13.082904867440638 908.3947092765677 40.075828907508225 0.35531524255949976
1.3064245286921186 13.084508752623043 808.2762359509072 41.906004840319724 0.36091866586853333
1.3334528533667476 13.085228543721383 719.9436203478973 43.82150329700635 0.3666625762946631
1.3604531664649298 13.085042981697743 641.936469505677 45.82743012733703 0.3725570759875557
1.3873764524485073 13.083807946285262 572.907540977354 47.928897613159066 0.378610928353214
1.4142253890102834 13.081533581149465 511.82832914312644 50.13039889804782 0.3848284786915587
1.4409506660463915 13.078121378263965 457.78194800074357 52.437633730611665 0.3912192251642026
1.467530617566567 13.073531759105254 409.8266579609253 54.856761906201804 0.3977935695947859
1.4939362702695633 13.067688875179229 367.2835063270869 57.39395753956011 0.40456054658895274
1.5201437236212954 13.060571803373277 329.49879465031506 60.055831444443434 0.4115298986708827
1.5461225361178021 13.052117008041188 295.89753623620334 62.84947043218459 0.4187121345351445
1.5718371102940498 13.042265176476057 266.01415094124417 65.78248037065407 0.42611859204892905
1.597253280378162 13.030962154658296 239.40900359259263 68.86303338505094 0.4337615065606646
1.6223449870379536 13.018188811078883 215.68785532666962 72.09991962936054 0.44165408513910454
1.64709582100198 13.00388347269984 194.50272397107867 75.50260411105667 0.4498105874423609
1.6714497863655227 12.987988702837255 175.60105866332887 79.08128911253962 0.4582464140002226
1.695384736538916 12.970483336194107 158.70765788224628 82.84564166881208 0.466972697467171
1.7188498829687826 12.951269272830114 143.59252749184407 86.80848864575108 0.47601147846766767
1.7418655043360243 12.930438093490379 130.06489127248415 90.98187020626104 0.4853790375223683
1.7643458044200764 12.907827553202871 117.93412566524103 95.37900762398863 0.4950939246540392
1.786273873887889 12.883428949668788 107.05682761199883 100.01438646082248 0.5051769796103388
1.8076174250413621 12.857216280606197 97.29272289038133 104.90406122899883 0.5156521547853608
1.8283466159009178 12.82916752317631 88.52326905921109 110.06414240667772 0.5265405016316153
1.8484242948128093 12.79922801669531 80.63574283753793 115.51284553510573 0.537867724753756
1.8678233259183254 12.767380387368986 73.5404718925936 121.27015753669407 0.5496624473240067
1.886503936379311 12.73359217715108 67.15053862571152 127.35732960727968 0.5619539871524042
1.9044390751215325 12.697831170563852 61.390781061989045 133.7972766230035 0.5747734752112155
1.9215787831712465 12.660020329323281 56.19380058125121 140.61450900143325 0.5881532235326238
1.9379322411769422 12.620286091318805 51.504717614625676 147.83715180249274 0.6021332986081233
1.9534351800286682 12.578472502688747 47.264386339377005 155.49422623128316 0.6167514554088881
1.968074148554152 12.53462121378693 43.43503011940775 163.61821281048307 0.6320515142612698
1.9818111935071543 12.488693649877378 39.96431129061778 172.2435117734002 0.6480774296712488
1.9946185521519673 12.440684604659516 36.82364412702009 181.40916083243243 0.6648817808034422
2.006474201570176 12.390586430945868 33.97737993397782 191.1568434674125 0.6825182200945226
2.0173570058746484 12.338420926002822 31.39643809126521 201.53242375711682 0.7010457585124117
2.0272114448913556 12.284094643558197 29.05226636842152 212.5863924164425 0.7205292194129566
2.036035381545696 12.227672135777256 26.92515242980558 224.37258542160816 0.7410339338792468
2.043821585697394 12.169195466541407 24.993087749929323 236.9534092788954 0.7626415761855305
2.050118182172979 12.109538737621092 23.285431290286486 250.57100846369318 0.954906487414448
2.053349246906804 12.049708399092292 21.90793562556935 265.8214284538036 1.2188932359299431
