M[M_sun], R[km], Lambda[1], P_c[MeV/fm^3], rho_c[fm^-3]
0.24162668629717493 15.618656898711224 2160425.4255784233 3.5677272577965504 0.1711233750220791
0.2536439600627162 15.277269337342574 1723214.8102925238 3.7848185557592786 0.1738881599623436
0.2660398417078522 14.98127908033191 1382977.8271907845 4.0113992784620125 0.17666663446366512
0.27881515790537087 14.723503764946802 1116475.3887544088 4.247725550773118 0.1794574833220818
0.2919692714616904 14.498427820181044 905893.7968209776 4.4944225072488 0.18226727187380815
0.30550401211459594 14.301244209220497 738679.4901211953 4.75164514802358 0.18509169453824106
0.3194211210791116 14.12813967084432 605093.6814624388 5.020076773866591 0.18793739240685187
0.33371811103963916 13.975982945086937 497707.55391490815 5.299940011123935 0.19080096056048923
0.3483993468691352 13.842040591473921 411013.8932500876 5.59196515448874 0.1936887296167019
0.3634607384325034 13.724013080552005 340645.3126445809 5.896317367963043 0.19659572350524848
0.3789150955706647 13.620008180544415 283308.8481150284 6.213861608659623 0.19952964140848445
0.3947472140415906 13.528470068253899 233298.31205123244 6.544856472822199 0.2024866826921912
0.41097217867031594 13.447872583505909 195383.1226147827 6.890002014531469 0.20547051895074994
0.42757937503879984 13.377069439156637 164076.11640674164 7.250004370894287 0.20848424285980835
0.44457424161219794 13.31494325982516 139800.64258163978 7.625124288168696 0.21152342949989542
0.461955657651731 13.260602149879315 117984.74071911402 8.016307225376444 0.21459418607094558
0.4797199093031311 13.213174413417855 99816.39639419524 8.424259795792306 0.2176981862040242
0.49787658579636523 13.17199248760067 84648.74134861001 8.849425365009346 0.22083293407295568
0.5164137967390485 13.136414394851933 71944.18907074674 9.29267223227788 0.2240017669578813
0.5353324845830292 13.105852783440447 61277.96749345516 9.754887526726 0.22720763838338626
0.5546383211981566 13.079817042272794 51815.64120491187 10.236880790304562 0.2304518992115911
0.5743212791417557 13.057843879955943 44732.75564727372 10.7391264624757 0.23373128792762968
0.5943772407709224 13.039526865336459 38329.81023523309 11.262862707866272 0.23705191079341223
0.6148140810749337 13.024506300609877 32903.82146235837 11.809030170870136 0.2404154227345047
0.6356179595518718 13.01245668896529 28293.739775295508 12.378607801842875 0.24382345660273672
0.6567877499282331 13.003016289686487 24372.072301469027 12.972289207231995 0.2472740152120755
0.6783190928651833 12.995983858755157 21028.96529286239 13.591391959041557 0.2507717812743539
0.7002063541877906 12.991067717348887 18172.705478688138 14.237118054355186 0.25431944175592386
0.7224405917463174 12.987996749017219 15731.063151926477 14.910657109350446 0.25791898114044953
0.745027526242472 12.986642803298281 13634.833977169066 15.613043804753342 0.2615703466945691
0.7679473539847826 12.986754471421005 11836.895957074597 16.345534271103865 0.2652753336322001
0.791191517710241 12.988137234657355 10289.275827594583 17.10974923961116 0.26903868120178837
0.8147643908435794 12.990671849106128 8956.581359256772 17.907143661017816 0.27286282179471666
0.838648303159032 12.994124671967075 7808.09507618193 18.739086448363707 0.2767488693025216
0.8628274523449253 12.998407470680343 6815.19760957924 19.60691476509141 0.28069724010890135
0.887303368380818 13.003341141999586 5955.7667622542185 20.512717755887408 0.2847143257668739
0.9120629645536739 13.008839598776468 5211.704608538759 21.45828941467496 0.2888031393584148
0.9370830275052207 13.014732970086463 4565.604441436579 22.44511831039622 0.2929636389156167
0.9623601279027384 13.020934567459262 4004.7971380784443 23.475220774052296 0.29719955204682136
0.9878856653663104 13.027331131231952 3516.7677116022087 24.551023258892414 0.3015170136694116
1.0136243798320728 13.0337906219352 3091.980341496475 25.674473037985152 0.30591769304087135
1.0395903253921714 13.040239322341352 2721.652120356331 26.847521131336098 0.310402775272639
1.065740833456959 13.046568236010055 2398.54659276398 28.073268924742468 0.3149810314207058
1.0920720164673954 13.052700427127572 2115.965679721369 29.353776258290935 0.3196529412829165
1.118568464708489 13.058533541042806 1868.719563429122 30.69178872456053 0.3244231214821085
1.145199954241699 13.063991367397708 1652.236971312406 32.090716668217084 0.3292997013779383
1.1719625259083295 13.069000243824526 1462.2012627506776 33.55248815090424 0.33428029486358896
1.1988177517684073 13.073458440440971 1295.521698291311 35.0816513209745 0.3393785087355017
1.2257637221502098 13.077325963608326 1149.1759391664382 36.68023654896113 0.3445911488546444
1.2527578885080404 13.080496454623534 1020.2770921052628 38.35328966113484 0.34993261292708283
1.279799309425961 13.082933012131438 906.7962131576057 40.103040466671494 0.35539942603275637
1.3068430254827952 13.084517670678972 803.4439143703987 41.9349791970951 0.36100625973866113
1.3338779314465994 13.085241783495201 718.6386588738974 43.85256518249877 0.3667549082823708
1.360887655478506 13.08503640395741 640.6653899026504 45.860514476589 0.37265328078101134
1.3878178621450417 13.08377578784483 571.8614621778917 47.964145687325946 0.37871125575061887
1.4146750300793396 13.081488493719947 510.8638525374385 50.168197053386066 0.3849343932882593
1.4413978565309336 13.078036758854994 456.9205821572237 52.47792198362207 0.3913298416122652
1.4679911615543555 13.073438652120176 409.05479181846 54.89971858032486 0.3979092012359358
1.4943994924701487 13.067577909312039 366.55471550735285 57.439775399301574 0.4046815309820913
1.5206113977688192 13.060432511068095 328.86523625836395 60.104718987987134 0.41165659958023826
1.5465952781758887 13.05194621249442 295.3193680020243 62.90165331295033 0.4188449441154163
1.5723112628255311 13.04206848899971 265.4965364310131 65.83820296215484 0.4262579332485501
1.5977351170839549 13.030743472074517 238.94937909505327 68.9225605051556 0.43390783576680786
1.622821983829553 13.017924282977086 215.25740106610652 72.16353844203856 0.441807895090849
1.647573703774946 13.003587651403445 194.11116173730866 75.57062622593102 0.4499724104416375
1.671923216104475 12.987656181216954 175.25284528944437 79.15377443817442 0.4584156625767604
1.6958595802461143 12.970111194344065 158.37467925558346 82.92314325409603 0.4671507958844323
1.7193407524520046 12.95090155968753 143.2908460105594 86.89148181354746 0.476199417159311
1.7423266683471474 12.929963792541278 129.79158327854523 91.07038950869642 0.48557596038750306
1.7648066225958106 12.907321417106044 117.68807401746832 95.47390539334069 0.4953021515496398
1.7867333036214708 12.882888000920877 106.83672270369182 100.11574531475902 0.5053957076198045
1.8080725160267856 12.856636860685908 97.0922861324021 105.01240653161416 0.5158822262625651
1.8287834836331913 12.828504521758715 88.33880752652327 110.18042647680116 0.526784239593139
1.8488636821235964 12.798544687272765 80.46949410963884 115.63740860510491 0.5381250290729633
1.8682513315638516 12.766639896783529 73.38947752371786 121.40360544988613 0.5499340983720613
1.8869211525936986 12.732794358142918 67.01473050965701 127.5004112313675 0.5622411508302801
1.9048449919683481 12.696983667554147 61.2643915579063 133.95028574737745 0.5750755627316411
1.9219882423542576 12.659171911321808 56.08098641786718 140.77884943124005 0.5884734211853944
1.9383034673332433 12.61928952627757 51.39614114403006 148.0138071815989 0.6024731040189871
1.95380065059865 12.577450488014613 47.16669849125556 155.68369542596096 0.6171105184989363
1.9684186321561503 12.533527470831784 43.34244809986772 163.82210949525293 0.6324331021666932
1.9821357189617306 12.487532803583138 39.882305887299715 172.46277583212017 0.648482276781839
1.9949256082569442 12.439464529587704 36.74817923508493 181.64505283805775 0.6653114613625165
2.0067652012395047 12.389308718572062 33.9065616068373 191.41089444983166 0.6829749305925008
2.01761436668462 12.337041833350193 31.33038388339962 201.8063225685888 0.7015319018848846
2.0274525419764244 12.282663175156438 28.994749030480804 212.8813138368011 0.7210451667932858
2.036264740214471 12.226204747031435 26.87204967927902 224.6912575658967 0.7415847662671573
2.044012321403375 12.167616355921378 24.944746346044738 237.2973838799722 0.7632280844784116
2.0506745214526005 12.106917612951527 23.189847580784267 250.7664987378618 0.7860575578894871
2.0562504565371733 12.04417869205354 21.596316081104025 265.1716591266322 0.8101612481065477
2.060699069638699 11.979336474467933 20.14335406939041 280.59466807147095 0.8356390978394143
2.0640076057642327 11.912445837405656 18.82357379196931 297.12513591112094 0.8625977383487801
2.066171597446106 11.843554987456443 17.62042621963861 314.8634590875704 0.8911577759002223
2.067167762328743 11.772671802384744 16.525070666654106 333.91904440843643 0.9214451405162931
