M[M_sun], R[km], Lambda[1], P_c[MeV/fm^3], rho_c[fm^-3]
0.24162668629717493 15.618656898711224 2160425.4255784233 3.5677272577965504 0.1711233750220791
0.25364477635984095 15.277269733875942 1723250.1366537535 3.784834309817938 0.17388835632908478
0.2660407500693325 14.981247802526433 1383017.3713915062 4.01143239675895 0.17666703467873854
0.27881655975421726 14.723502868407271 1116401.845653562 4.247777153876853 0.1794580818403209
0.2919724980900024 14.49835330948309 905843.8227163977 4.4944939493932505 0.18226806739866747
0.30550893976183124 14.301190430886667 738639.4123312883 4.751738855148868 0.1850927067540369
0.3194266127152392 14.128082745260626 605057.8206548457 5.02019343637683 0.18793860282542318
0.3337268466617714 13.975863968685005 497661.7219192214 5.300082700593915 0.19080239720668726
0.34840782108840906 13.84197009785034 410971.09849607403 5.592134227315696 0.193690365442813
0.3634732294148499 13.723878190294316 340647.0149771772 5.896516622801205 0.19659759494885531
0.37892625644640093 13.619951871208713 283280.9167828282 6.214093456964093 0.19953175558585767
0.39475942621742444 13.52840767883683 236391.5320220244 6.54512067401145 0.2024889993797026
0.41098577963188465 13.447834137231965 197837.4094883799 6.890303669245833 0.20547308796888197
0.4275943955798827 13.377023081429895 166055.91446635406 7.250346310045187 0.20848707163477226
0.4445909238435452 13.314904253348754 139783.58718569466 7.6255055667976075 0.2115264647229429
0.4619740691680122 13.260523018543942 117965.56814210056 8.016734494219277 0.2145974913408769
0.4797402321500968 13.213119126154266 99796.16786368408 8.424736386887307 0.21770176950279646
0.4978983348260909 13.17195413749099 84630.20820879361 8.849949521195015 0.22083672918769465
0.51643856295378 13.136368712991999 71925.83678224884 9.29325243645911 0.22400585163148867
0.5353586709461431 13.105811854323616 61265.28465642205 9.75552771314773 0.22721202143849983
0.5546663218045756 13.079795219477536 52296.470184795384 10.237585132286808 0.23045658985442816
0.5743509856554123 13.057815054186507 44721.7007516942 10.739891899706315 0.233736202271753
0.5944095656030616 13.039497775427588 38320.35111311347 11.263700752017352 0.23705714690843366
0.6148482197834343 13.024480201875349 32895.69464699948 11.809945773102063 0.2404209911237234
0.6356536469234664 13.012428194638813 28285.974599550333 12.379606222223067 0.2438293683238936
0.6568259642065105 13.003017955555919 24365.450627055594 12.97336586082998 0.247280168922539
0.6783589863111928 12.995968889961931 21023.450792844847 13.592562135428853 0.25077829650296934
0.7002488800708723 12.991058162328207 18168.878889488013 14.238388028338942 0.25432633142676686
0.7224854273431939 12.98800261251796 15725.382774957372 14.912033558927487 0.25792625894821997
0.7450744822058762 12.986639159131553 13630.8731836002 15.6145204063408 0.2615778941024156
0.7679964353965657 12.986765785750215 11833.443582070951 16.347131022146005 0.2652832930356662
0.7912441396876267 12.988139724571967 10286.39991781622 17.111474154540087 0.26904706887898255
0.8148206252327834 12.990669708040977 8954.354568229117 17.909005285640312 0.27287165507043787
0.8387030964035239 12.994147161189682 7805.563163245095 18.741076525387022 0.2767580126767502
0.8628853884329326 12.99841868025854 6812.230511992384 19.609059171948626 0.280706860710063
0.8873698463780835 13.003364570395451 5953.789208580539 20.515026814430104 0.2847244444194332
0.912127078303363 13.00886148123275 5209.669015434675 21.460774153607254 0.2888137782909748
0.9371492818631953 13.014745214990787 4564.043673838285 22.447768378805197 0.2929746457910674
0.9624342041685793 13.020963105673225 4003.499533481286 23.478069430559685 0.2972111212873162
0.9879567329396239 13.027346009038984 3515.560356625057 24.55408391299818 0.3015291721952131
1.01370023162872 13.033802298301385 3091.025038818607 25.677733841788047 0.30593027711074205
1.039666678921376 13.040260767657292 2720.6593534685926 26.851021951486 0.31041600074077424
1.0658196491004595 13.046589750512949 2397.515026797141 28.077026149847452 0.31499493103013587
1.0921535445008088 13.052712919659992 2115.0507376290852 29.357776571426946 0.3196673399540013
1.1186517823116386 13.058552875720313 1867.6435822619815 30.696079888690427 0.3244382588416372
1.1452862591410093 13.064005923847212 1651.5946323522119 32.09528467714417 0.32931539660668097
1.1720508502189022 13.069014486500699 1461.6272419223258 33.55738659056738 0.334296803110304
1.198907713695042 13.073472974074775 1295.0241029510773 35.086903312867285 0.3393958756488729
1.2258557046155063 13.07734149601748 1148.658060449451 36.68582685135181 0.34460918230479654
1.2528532810542186 13.080494125677273 1019.7980994945856 38.359240962492386 0.349951353004527
1.2798966734001072 13.082940789701832 906.4288211300304 40.1094204147171 0.35541916346060654
1.3069417570093746 13.084522044440584 806.5485194365422 41.94177253029262 0.3610267970141027
1.3339798062250503 13.08523770669145 718.3545034465602 43.859848071055225 0.36677655679359317
1.3609881170395064 13.085030716896503 640.3707484175893 45.8682716594636 0.37267583761507705
1.387922004108924 13.083770365739852 571.6017248420907 47.972410300156895 0.37873477950661083
1.4147723571956856 13.08145900717638 510.6271972040535 50.17705972733392 0.384959227477348
1.4415036624908835 13.078019883867695 456.73392532866785 52.4873686484873 0.39135577861462567
1.4680991808035009 13.073417384412043 408.8734162519635 54.90979106808298 0.39793631456148326
1.4945091943696902 13.067549604970681 366.4048417417403 57.45051893053013 0.4047098998237
1.5207215795862818 13.060398267912786 328.74252368174797 60.11618247527259 0.41168630928046396
1.5467058146155337 13.051906661161167 295.18656768384994 62.91388969457047 0.418876086679475
1.5724221156313454 13.042024296858617 265.3741726390094 65.85126956940945 0.4262906079085183
1.5978346177815632 13.03068419449836 238.81752286869846 68.93651946712586 0.43394214960258726
1.6229335932002755 13.01786212034481 215.16268640217848 72.1784571320243 0.44184396371411006
1.6476860821005228 13.003517291377005 194.02473627785594 75.58657775433714 0.4500103587496913
1.6720346746000447 12.987581592265311 175.17004902243315 79.17075489629754 0.4584552777912926
1.6959715777491735 12.970020903785835 158.30152975287263 82.94131832693913 0.4671925621488914
1.7194520051710578 12.950805466135334 143.22692550686696 86.91094506944769 0.47624349185782094
1.7424284338650229 12.929826843237487 129.74117438226114 91.09114904879242 0.4856221427229046
1.7649156668505532 12.907202954940242 117.63570264080683 95.4961612194017 0.49535098580150216
1.7868421109737602 12.882764337152148 106.78479035037091 100.13951680611312 0.5054470054668496
1.8081796748927739 12.856498802902697 97.04843302777189 105.03781696553523 0.5159361853722588
1.8288924078263924 12.82836715564027 88.29671652440868 110.20761031954959 0.5268410737772128
1.8489661268856572 12.798380170035903 80.43170713977113 115.66662372262351 0.5381853774243948
1.8683417253878136 12.766436114790023 73.35862684632151 121.43490500054719 0.5499978127872015
1.8870163199747638 12.732610306689889 66.98021557907418 127.53389422766847 0.5623082308217926
1.9049401588683146 12.696784085697976 61.23306421809969 133.98617458143 0.5751464184334448
1.9220790325049615 12.658959722752206 56.05328140111506 140.8173968446314 0.5885485262055211
1.938392132434146 12.619062735897845 51.37279168325426 148.05524403569626 0.6025528098694554
1.9538905515021434 12.577209703793157 47.13075190793128 155.72813878752194 0.6171947431179375
1.9684997717989268 12.533270945704068 43.325700280474756 163.86982871309831 0.6325222420622028
1.9822123881731435 12.487263065142471 39.864204694938444 172.5142103261926 0.6485772449514126
1.994997337650868 12.43917461474065 36.73086527016123 181.70038907700192 0.6654122570890337
2.0068324463051503 12.389006677221905 33.89066837919591 191.4704918129888 0.6830820694870113
2.017675685772204 12.336722750953882 31.31740937974127 201.870577495403 0.701645948041754
2.027509311640074 12.28233053020266 28.98060063278416 212.95050206807315 0.7211662074644959
2.0363154172908677 12.225851967129604 26.85992609869565 224.766019566368 0.7417139941648027
2.044056732542297 12.167248964038071 24.933066179814592 237.3780839025077 0.763365685430065
2.050712705870132 12.10653038110154 23.17975006365556 250.85371987654187 0.7862043178441835
2.056282246385788 12.04377303623146 21.586386981996974 265.26622785707445 0.8103186159683309
2.0607248298304137 11.978913947221688 20.135015135018676 280.69694387532616 0.8358068539622217
2.0640249223048968 11.912009662782616 18.814964015450695 297.2360980649566 0.8627775169203163
2.06618296164065 11.84309630398841 17.61311442129509 314.98399871542625 0.8913507361360994
2.0671698847265154 11.772194892797108 16.51819666780599 334.04995660853257 0.9216519058791522
