M[M_sun], R[km], Lambda[1], P_c[MeV/fm^3], rho_c[fm^-3]
0.24162668629717493 15.618656898711224 2160425.4255784233 3.5677272577965504 0.1711233750220791
0.2536156271883378 15.278005602112028 1724077.8321886733 3.784312545201677 0.17388185278485066
0.265981495260882 14.982566036273692 1384412.3494643979 4.0103356434085065 0.17665378106175797
0.2787266385333649 14.725124586623759 1118055.2796558393 4.246068409838274 0.17943826298449572
0.29184497056715847 14.500355339804857 907625.7824567262 4.4921284823623235 0.18224172737428182
0.3053484544554303 14.303319003801413 740384.9112069003 4.748636469950787 0.1850591950729065
0.31922663003943696 14.130385535900286 606696.2201584504 5.0163313920633525 0.18789853262505865
0.33348640345443764 13.978275933376187 499257.60747960705 5.295359465747949 0.19075484206905227
0.34812712832943427 13.844342791607913 412473.64961534843 5.58652654768626 0.19363600458587907
0.3631476806097393 13.726293136185621 341964.4554834456 5.889922100795978 0.1965356578026326
0.3785572243529619 13.622247000274266 284509.1160162501 6.2064208807858865 0.19946179092949556
0.3943470004549665 13.53062253666961 237471.4229209716 6.536378124210812 0.20241233902855726
0.4105202768953728 13.449972832032772 198830.09861014417 6.880322600757591 0.20538808500124325
0.42707941762168367 13.379037800219274 166951.88939513234 7.239033264395374 0.20839348170739655
0.44402343920912263 13.316814222653237 140572.80198965222 7.612891917369549 0.21142605196294562
0.46135086795521535 13.26235197052307 118665.88119520791 8.002600532546804 0.2144881537205231
0.47906627681541436 13.214786645167678 100421.12280231206 8.408972142301723 0.21758324442152263
0.49716274037050334 13.173490263068228 85186.00943737559 8.832613205253315 0.22071120685303883
0.5156407677934189 13.137771749253712 72421.99527524781 9.274063894233937 0.2238707630979573
0.5345049188656801 13.107084342980976 61708.96925585385 9.734357134522435 0.22706707645099083
0.5537487976275678 13.080896608520524 52679.829489964664 10.214294832338839 0.23030148554235014
0.5733656683849517 13.05880136943389 45068.588195378536 10.579100296485718 0.23267433919748665
0.5932326849445102 13.04036620893657 38662.5896207318 11.236965796297058 0.24843154108431895
0.6131389130152872 13.024745420187031 33296.68452996273 11.785368541585198 0.26035009082895266
0.6332068885851727 13.01140203914803 28746.223513389436 12.359645571298307 0.271983126450462
0.6534757363437941 12.99998037713683 24876.137096422284 12.960854518174333 0.283344651507995
0.6739759348296751 12.990182285704938 21565.482478579754 13.590146622904825 0.2944516389890276
0.6947249000576323 12.981867304710507 18726.44868839044 14.245982879138104 0.305170890739774
0.715742262600773 12.974813923504499 16286.117657301618 14.931957904921585 0.3156674803771414
0.7370621459743675 12.968928792104098 14177.92762740195 15.649627631621623 0.32596956376865277
0.7586819487333433 12.964094367438642 12359.295205872293 16.398831254285952 0.3360260672273191
0.7806125704106777 12.960246496772548 10784.615069934463 17.180185382564712 0.34582980520052015
0.8028689467327618 12.9572430801001 9418.317662025618 17.997876161092076 0.35551033235467505
0.8254516818657357 12.955020692576175 8233.215550870631 18.849095996438674 0.3649282554191508
0.848355396282323 12.953474211790295 7204.476111757666 19.73967271322458 0.3742512762114599
0.871584006382085 12.95253998609207 6308.91720133696 20.667203211318537 0.3833686733326225
0.8951475059424707 12.952239609956694 5528.534144172958 21.63724816482834 0.39241268069170243
0.9190202916511715 12.952378415883238 4849.447354166667 22.6477607013091 0.4012936466247065
0.9432187168252415 12.953012209598873 4257.053925141254 23.703069310706294 0.410095426126326
0.9677074303556206 12.953923774860211 3740.2682461982045 24.805286596642375 0.4188334739584155
0.9924881767266426 12.955149148225097 3288.905705071374 25.955332983644134 0.4274970189681695
1.0175537258264706 12.956594118469695 2894.488583032734 27.15507891248909 0.4360978251099944
1.0428825955795062 12.958192221393023 2549.3481258713396 28.407978882714385 0.44467441741392566
1.0684464254822057 12.959742786644084 2247.4791629067577 29.71636445249571 0.45323913229314217
1.0942468876783298 12.961390419284065 1983.2212858177043 31.082820288660685 0.4618069689400482
1.1202513914631242 12.962867172925801 1751.4316418011058 32.51019179813889 0.4703949599353082
1.1464462795411912 12.964252395824724 1548.3850697043345 34.00159520949954 0.47902175217601106
1.1727976198203114 12.965345947762728 1370.1571894475067 35.56009626883503 0.48770298644811566
1.1992801476105934 12.965996697908851 1213.47495872305 37.18789957741188 0.4964420700840402
1.2258957722918775 12.966382527853101 1075.6564717145964 38.89036568994599 0.5052804798311491
1.2525832753530854 12.966154896046174 954.6242139466104 40.671503599376386 0.5142384020135048
1.279328673649372 12.965441725818225 848.0687665320518 42.53306548498502 0.523310473179965
1.3061154211595298 12.964099266951122 754.115119017139 44.48238719055437 0.5325499550715869
1.3328895088936261 12.96197488642069 671.2768775985558 46.521487465553584 0.5419526066231036
1.3596477075243736 12.95911262487035 598.142920834738 48.65685606932262 0.5515575666054038
1.3863379526789474 12.955371733649933 533.6238618880664 50.893765479154425 0.5613893233792687
1.4129237737289166 12.950650238964966 476.5341479622827 53.23747707388696 0.5714712363213634
1.4393827398800731 12.944898552763254 426.0161378216367 55.69380931777067 0.5818304483727587
1.4656954567499583 12.938109847663775 381.3068487923336 58.26916067410298 0.592497591959016
1.4918008584318583 12.930136032020023 341.61419215107105 60.970539635459936 0.6035066488458756
1.5176927689071695 12.920948388657461 306.4381237380753 63.805601672279415 0.6148949270922148
1.5433077477346258 12.910502664515937 275.18080975504284 66.7826930981596 0.6267031301468968
1.5686280776135781 12.898705783100548 247.4240890007311 69.90856023235821 0.6389622872467788
1.5935983410682453 12.885468231138535 222.7019075935121 73.19454694273104 0.6517301343576183
1.6182156886572296 12.870691911668247 200.6868365248101 76.64803789093874 0.6650423004162149
1.6424075448708464 12.854450420282745 181.0661759511525 80.28115869739281 0.6789603123357083
1.6661684097903662 12.836597300609945 163.56169121824468 84.10487189674424 0.6935397487461465
1.6894220457192834 12.817063298719575 147.93644835521727 88.13124323899991 0.7088426942558183
1.7121923236514685 12.795906983510953 133.95674970315744 92.3735436608681 0.724938011225272
1.7343904900858762 12.772951309248775 121.44896277731733 96.84579012687439 0.741899630791113
1.755991829333787 12.748202157661257 110.25851403399022 101.56283908124976 0.7598075294272928
1.7769644321434215 12.721600225296863 100.22388704935611 106.54212101759717 0.778753942948633
1.7972699745192737 12.693119910999386 91.22130701901379 111.80138849642366 0.798835665653831
1.8168654354387426 12.662647331171167 83.13223151434012 117.35973755035005 0.8201586271126393
1.8357307563825433 12.63026805219147 75.86379357980985 123.23829723838097 0.8428403158570249
1.8538053920566941 12.595804798222614 69.32698452736109 129.4603979556107 0.8670104363638188
1.871084226111805 12.559323298846698 63.43983574956613 136.05176859138268 0.8928117653577913
1.8875026094473855 12.520745325145747 58.13315567106477 143.0383244768336 0.9203969270067606
1.903036702392225 12.48003853153354 53.347535342675464 150.45114423470375 0.9499393043413219
1.9176378212339473 12.437137333626504 49.032605930547916 158.32272517611608 0.9816266484941213
1.9312968245806497 12.392098927794013 45.13208138493637 166.68915611670204 1.0156664725704412
1.9439670982002368 12.34487819759641 41.60472344651188 175.58880698257303 1.0522861658318847
1.955623304009376 12.295446463822122 38.41785821849083 185.0661305102038 1.0917388889815398
1.966213408201286 12.243731059968141 35.53077305741797 195.1683185974881 1.1343021378187235
1.975718896903617 12.18979016397857 32.91645856096126 205.94804082162076 1.1802829532244332
1.9840990470815334 12.133613271885816 30.547883388691943 217.46349923916884 1.2300205903838946
1.9913508751120514 12.075114977224159 28.398284087420574 229.77896456729982 1.2838901760965624
1.997423387236055 12.014404161111264 26.450608047776175 242.96540979554064 1.342307045718681
2.002302513767422 11.95146102873204 24.68176137954204 257.10234735406345 1.4057312281203107
2.005948032705417 11.88623946154588 23.078568695433948 272.2779415803767 1.4746727054678983
2.008352238373623 11.818820897952321 21.622074150299227 288.5902856041201 1.5496974804815868
2.009491841229848 11.74921581176547 20.299947941387714 306.14924354832687 1.631433991639946
