M[M_sun], R[km], Lambda[1], P_c[MeV/fm^3], rho_c[fm^-3]
0.24162668629717493 15.618656898711224 2160425.4255784233 3.5677272577965504 0.1711233750220791
0.25364386940119205 15.277272954626962 1723126.1587832547 3.7848183960419832 0.17388815797154455
0.26603977585397093 14.98126399186378 1382938.5722262927 4.01139894270416 0.17666663040622962
0.2788149143903743 14.723523917623988 1116437.7573177193 4.247725027615252 0.17945747725423894
0.2919693399133935 14.49844545014339 905925.6261302446 4.494421782962613 0.18226726380871336
0.3055039670789142 14.30124512493131 738673.0333686181 4.751644198015934 0.1850916842763454
0.31942151373905603 14.128130749934659 605134.3862365672 5.020075591139264 0.18793738013559935
0.33371855175029846 13.975939861034185 497675.38731878635 5.299938564538682 0.19080094599577604
0.348399260955031 13.842041319723846 411014.33124923764 5.5919634404335525 0.19368871303274643
0.3634611599217875 13.724008872404283 340666.165226273 5.89631534792904 0.19659570453266165
0.3789150013207425 13.62001120864052 283299.3964422693 6.2138592582012695 0.19952961997513438
0.39474713296882347 13.5284632453937 236410.40662396565 6.544853794379629 0.20248665920586825
0.410971655712655 13.447885470778738 197878.0275841875 6.889998956397261 0.20547049290639574
0.42757947376716515 13.377088651921635 166088.78837262496 7.250000904371081 0.20848421418215027
0.4445739035238756 13.314960581705568 139806.67482908224 7.625120422837384 0.21152339872937276
0.4619545324523102 13.26058417555462 117986.57662747455 8.016302893816134 0.21459415256282466
0.4797193364365892 13.21316408468468 99816.93923181467 8.424254964225932 0.21769814987739947
0.4978761618646257 13.171993186296465 84647.72178569727 8.849420051251457 0.22083289559907818
0.5164145705041243 13.136404063332972 71942.57318520351 9.292666350335033 0.22400172554863695
0.5353324793550676 13.105849891356899 61277.06666220767 9.754881036716874 0.22720759394934842
0.5546376230142471 13.079822000968674 52300.551988587744 10.236873649924508 0.2304518516594454
0.5743209811093214 13.057842867685947 44731.41424691426 10.739118702749515 0.23373123810778393
0.5943772725105995 13.03952580924737 38329.78150478637 11.262854212098548 0.23705185771170173
0.6148124815477992 13.024527954024297 32903.43815169456 11.809020888871737 0.24041536628446775
0.635617706987441 13.01246015001851 28294.435471592966 12.378597680293407 0.24382339667229128
0.6567865493455161 13.003034654005537 24372.445334982098 12.972278292611245 0.24727395282857906
0.6783184315514146 12.995991995599095 21029.47364057301 13.591380096359051 0.2507717152261159
0.7002071284803578 12.991065204747343 18174.13941178871 14.237105180004866 0.25431937191194504
0.7224403445893289 12.98800396741901 15730.586029520213 14.910643155639443 0.2579189073619196
0.7450273397582592 12.986639782735637 13634.901125124836 15.613028835785522 0.2615702701831349
0.7679468869884989 12.986761479315561 11837.086754624517 16.345518084167757 0.2652752529443835
0.7911909965388497 12.988143498328183 10289.506273535453 17.10973175346754 0.26903859617259324
0.8147638737450009 12.99067303419637 8898.50874506674 17.90712478904128 0.2728627322485374
0.8386458551989501 12.994140621846173 7807.989714821373 18.739066274259024 0.27674877661294894
0.8628277574448733 12.998393415083187 6815.124144383351 19.60689302654608 0.2806971425817582
0.8873024798237621 13.00334067937486 5955.740607964957 20.51269434827403 0.28471422319108264
0.912063047574187 13.00884880692123 5211.697619038955 21.45826422620132 0.28880303150866493
0.937082178699667 13.014734197896725 4565.582482206212 22.445091445988115 0.2929635273361597
0.9623590782935071 13.020934265166883 4004.667194114526 23.475191896581137 0.2971994347668307
0.9878842555141405 13.0273319304399 3516.7818603397 24.550992232434332 0.3015168904160226
1.0136260310283909 13.033786275032902 3092.032047493332 25.674439982639168 0.30591756547392507
1.0395895902830228 13.040243205514253 2721.6835941846202 26.847485642995125 0.3104026412040772
1.0657399783057093 13.04656681055097 2398.5498407895634 28.073230837286903 0.31498089051864603
1.0920710626884422 13.052702604497899 2115.9680627250686 29.35373570670905 0.3196527953221205
1.118568636716294 13.058536621828436 1868.7486058357065 30.691745224709976 0.32442296803356696
1.1452000277133696 13.063984405448076 1652.2526104577482 32.090670362071826 0.32929954227458413
1.1719621059359615 13.069004676019896 1462.1695575255721 33.552438495302255 0.33428012751909053
1.1988166091578705 13.073459567201201 1295.5239450425343 35.08159808155349 0.33937833268716966
1.2257628400286942 13.077326080039999 1149.1829548596306 36.680179880217 0.34459096605004796
1.2527575366974577 13.08049367249696 1020.278036267943 38.35322933309347 0.349932422959864
1.2797986949308937 13.082935926817395 906.7773240233441 40.10297579364747 0.35539922595602585
1.30684127686979 13.084518556332412 803.4384482719656 41.93491033378296 0.36100605155443577
1.333878433202147 13.085232756616643 718.652835816795 43.85249135683447 0.36675468883431667
1.3608861487370065 13.08503467689112 640.6833842885334 45.86043584326077 0.3726530521259744
1.3878168439493377 13.083774849071462 571.8476305453079 47.96406191047141 0.3787110172946471
1.4146735753138175 13.081485177619813 510.8709457839093 50.16810721437606 0.38493414154945277
1.4413966664736808 13.078035614889457 456.91784493239646 52.47782622507216 0.39132957869516477
1.467990719773668 13.07343887713056 409.0596668771475 54.89961647823188 0.39790892639546416
1.4943986243894485 13.067576895700025 366.5688710943253 57.439666495317844 0.4046812434155735
1.5206118096324432 13.060431522945791 328.8712577725043 60.104602786345495 0.4116562984226714
1.5465941582310248 13.051947346202281 295.3219609037513 62.90152927708202 0.41884462843427017
1.5723102255556023 13.042068705359018 265.49498401401377 65.83807051096764 0.42625760203805146
1.5977340669993438 13.030743994692106 238.95205887162533 68.92241900893087 0.43390748794164513
1.6228214011337112 13.017925893569585 215.2637736101465 72.16338721790734 0.44180752947924223
1.647572256592614 13.0035887548763 194.1163887209085 75.5704645328784 0.4499720257776972
1.6719218281654589 12.98765671428633 175.24997251375657 79.15360231580779 0.4584152610172483
1.6958592385031557 12.970111306748926 158.379544675998 82.92295902312232 0.46715037252219127
1.7193396093991902 12.950902612517684 143.29227691717975 86.89128452561272 0.47619897039920633
1.7423256402488376 12.929965633599275 129.79214806027662 91.07017908168042 0.48557549226484786
1.764805264331609 12.907322610667135 117.69059347651394 95.47367980016475 0.49530165654783925
1.7867322197877624 12.882887434863084 106.83648199324384 100.1155043589942 0.5053951876477175
1.8080719538900463 12.856637533218 97.09472578282193 105.01214896380633 0.5158816793167853
1.8287825346374749 12.828507122238074 88.34047551589566 110.18015093410014 0.5267836635066476
1.8488625957616027 12.798545268535785 80.47117617395578 115.63711247401635 0.5381244173683214
1.8682497725959337 12.76664192515883 73.3876312088349 121.40328819162683 0.5499334525505076
1.88692013268032 12.732795784110316 67.01591894405102 127.50007106476433 0.5622404681186218
1.9048441767807969 12.69698536429171 61.264259240013665 133.94992197378318 0.5750748445296153
1.9219873095827633 12.659174476683749 56.0814632468481 140.77845871148145 0.5884726599147214
1.9383011478336374 12.619293676512267 51.395989270880975 148.01338717591727 0.6024722961171619
1.9538002541461301 12.577452686366103 47.167212589307574 155.68324494786185 0.617109664797845
1.9684176699741804 12.53353104900822 43.34311848799949 163.82162581492403 0.6324321986478192
1.9821349808111692 12.487535547254303 39.88382137461365 172.46225449618726 0.6484813141920406
1.9949243987471863 12.439468164089648 36.74834233019216 181.64449195667675 0.6653104397093039
2.006764602708338 12.389312570552955 33.90723720855902 191.41029038081692 0.6829738446503884
2.017613357127677 12.337045538137009 31.331058698337472 201.80567129419055 0.7015307459370707
2.0274519091745313 12.282666176592901 28.994824846618958 212.88061256245086 0.721043939955766
2.036264736572315 12.226207675681922 26.872665819306427 224.69049980088548 0.7415834564522955
2.0440118439761856 12.16762035487621 24.94476627542551 237.2965659327496 0.7632266898032591
2.05067397177719 12.106921909161636 23.190127181413384 250.76561469914833 0.7860560703890541
2.05625026805063 12.044182997308003 21.596149870655317 265.170700620799 0.8101596530971531
2.060698646571408 11.979340815027092 20.143820424192903 280.5936314552964 0.8356373975476178
2.0640068343063684 11.91245106938778 18.823232106325037 297.12401126058177 0.8625959162133905
2.066171645294962 11.843559571632705 17.620546367635416 314.8622373719969 0.8911558201738821
2.0671672119372575 11.772677126093038 16.52516418812399 333.91771757023497 0.921443044881341
