M[M_sun], R[km], Lambda[1], P_c[MeV/fm^3], rho_c[fm^-3]
0.24162668629717493 15.618656898711224 2160425.4255784233 3.5677272577965504 0.1711233750220791
0.2536443063211601 15.277281530757685 1723231.2393842165 3.78482538670986 0.17388824510684725
0.2660405818432449 14.98125297720216 1382919.4452439935 4.011413638512102 0.17666680799639572
0.2788166115524089 14.723455298835894 1116457.831074022 4.247747925775028 0.17945774283838553
0.2919710274298544 14.498385145967353 905834.8343658799 4.494453484370063 0.18226761681124282
0.3055061832616688 14.301227164873321 738686.0971001574 4.7516857791156335 0.18509213343158087
0.31942350316685564 14.128107512232349 605138.076122915 5.020127358259451 0.18793791723945155
0.3337215725186041 13.97594962282583 497660.6803492003 5.3000018806050155 0.19080158348350368
0.3484030236431112 13.842010581496544 410996.3028977905 5.592038463562562 0.19368943890215776
0.3634665672669762 13.7239554606784 340642.2705779166 5.896403763664169 0.19659653495195673
0.3789195341842617 13.619989980685165 283305.20692319836 6.21396213654023 0.19953055810171214
0.39475140950149 13.5284839116136 236400.4615277637 6.544971028540203 0.2024876871910809
0.41097811004071305 13.44785093992918 197857.48466166062 6.890132809632543 0.20547163285671674
0.4275858638786268 13.377043891919843 166070.94769174154 7.250152632790693 0.20848546939248105
0.44458204325010714 13.314926638752198 139798.66604610905 7.625289607109127 0.21152474554496098
0.4619635098039092 13.260555513404412 117977.23853611707 8.016492484986667 0.2145956192038066
0.4797286216214845 13.213139179237054 99804.74373819587 8.424466440753205 0.2176997398852458
0.4978860946766802 13.171998958598062 84640.44486953903 8.849652633413115 0.2208345795933033
0.5164250851653868 13.136394747185713 71935.80606455878 9.292923802123514 0.22400353802527811
0.535345173129284 13.105823282624844 61273.73337550631 9.755165103786483 0.22720953882287243
0.5546505348921721 13.079802051730223 52303.03441694003 10.23718618400573 0.2304539330145064
0.5743338026019819 13.057846558368865 44326.00083770661 10.739458345894821 0.23373341872198505
0.5943925167662366 13.039505561088573 38324.54974089651 11.263226072173198 0.23705418110017745
0.6148285276231757 13.024498767744662 32899.053262964844 11.809427162728745 0.24041783710737133
0.635633652568214 13.0124271165132 28058.97340711551 12.379040701845282 0.24382601983577343
0.6568044579966814 13.003032668789698 24370.013508564974 12.972756027427609 0.247276683364885
0.6783366361442082 12.99597332052157 21026.573983069004 13.591899328553003 0.2507746061718612
0.7002248533144073 12.991063231350353 18171.06372264671 14.237668693719868 0.2543224290013512
0.7224602896214675 12.988010735809185 15728.90279524507 14.911253913909825 0.2579221366711222
0.7450474520466697 12.98665191039897 13633.174986760889 15.613684032741148 0.2615736191153627
0.7679690143244537 12.986748697690286 11835.366704965654 16.34622659277662 0.26527878468209853
0.7912139309727624 12.988139310271125 10288.154438628539 17.110497129724852 0.2690423179381544
0.8147903693617845 12.990657107178004 8955.685365485733 17.907950824706035 0.2728666517287023
0.8386731406351728 12.994132699067734 7806.894507705853 18.73994930548723 0.27675283368454995
0.8628521768291135 12.998404375422608 6814.029035589734 19.607844535195692 0.2807014114009839
0.8873339951047023 13.003368663596298 5955.013962786297 20.51371891410938 0.28471871299743456
0.9120898134787941 13.008853766957259 5210.764813234739 21.459366742605635 0.2888077521646338
0.9371107738416544 13.014749120603511 4564.731336078997 22.4462673202071 0.2929684112482241
0.962395300355453 13.02095086624509 4004.283268260642 23.476455885396984 0.2972045682009795
0.9879165101552644 13.02733305601129 3516.3124013338534 24.55235028554748 0.301522285316343
1.0136576489151135 13.03379310404243 3091.642239094917 25.675886843114615 0.3059231491871494
1.0396249605730492 13.040240950273597 2721.277430750706 26.849038999472786 0.31040850950513754
1.0657746242756037 13.046578967536906 2397.9334942723635 28.074897961237518 0.3149870579350604
1.0921068989543932 13.052706894909903 2115.6006759895777 29.355510689434947 0.31965918417008876
1.118605749601976 13.058541421839955 1868.4351244925215 30.693649258270497 0.32442968463533
1.1452368806281312 13.063995816528418 1651.9732398889414 32.09269723197163 0.3293065063999212
1.1720009938991425 13.069005946318256 1461.933065423018 33.55461197710676 0.3342874523768671
1.1988584127062925 13.07346934345431 1295.3425268752408 35.08392843395482 0.33938603853080085
1.2258028168773718 13.077331482410054 1148.951106929946 36.68266034056922 0.3445989676311772
1.2527991952499455 13.080497200444135 1020.0763293961326 38.35586996799217 0.34994073806601145
1.2798432279739023 13.082933877918656 906.642281421703 40.10580661746567 0.3554079835792022
1.306885805366021 13.08452663282665 806.7004916474681 41.93792457514 0.36101516406271367
1.3339234041905355 13.085231764040824 718.5243036117708 43.85572281125652 0.3667642943880442
1.3609319792463697 13.085031296628612 640.5603673620845 45.863877739621714 0.3726630606930457
1.3878631094778484 13.083772134474263 571.7556995216509 47.96772895049217 0.3787214548742925
1.4130650585778604 13.080668629938796 513.9701579220707 50.2314779619121 0.537925859794808
1.4286269655715205 13.067808482084555 477.74207205223456 52.95429738130049 0.8169725621443912
1.436486454487892 13.042622891269302 454.37860457256767 56.18222328202901 1.0742124365443053
1.4389278197225321 13.005953841181492 438.1497779034275 59.90522572191609 1.3108824106205548
