M[M_sun], R[km], Lambda[1], P_c[MeV/fm^3], rho_c[fm^-3]
0.24162668629717493 15.618656898711224 2160425.4255784233 3.5677272577965504 0.1711233750220791
0.2536368048214872 15.277461432298134 1723323.1047754388 3.7847001530638895 0.17388668412986494
0.26602648195886486 14.981549860647625 1383305.3912804783 4.011150377711817 0.1766636266449902
0.2787935164662997 14.72393591607859 1116845.279674194 4.2473377367712875 0.1794529852640838
0.29194061037326435 14.498857028277255 906307.2542129174 4.493885609153608 0.18226129338891064
0.30546753097925156 14.301749018713775 739062.3240236951 4.750940942265583 0.18508408777205781
0.3193754887811383 14.128658124420797 605409.23280674 5.019200079092985 0.18792829636020258
0.3336647412481869 13.976471803559486 498061.430103486 5.2988677541903195 0.1907901647123637
0.3483357962203102 13.842520947752305 411320.49680905306 5.590694664410434 0.1936764372756945
0.3633877796039158 13.724546712350087 340952.6844207198 5.8948201107663225 0.19658166094880347
0.3788320476582849 13.620522725283013 283584.2072573007 6.21211947447766 0.19951375524241105
0.3946524971220819 13.528976863230783 236660.79996767337 6.542871276580204 0.20246927520301763
0.41086680643693796 13.448353149598365 198094.07271194865 6.887735444559127 0.2054512158897363
0.4274627304736606 13.377521772652514 166290.61117403986 7.247435168971065 0.2084629885107276
0.44444537752228225 13.315374288722019 139988.05908612255 7.622259560956662 0.2115006244292741
0.4618131954684788 13.261027026512014 118145.04563298494 8.013097021694243 0.21456935255012555
0.47956599159676444 13.213543764663397 99956.03748613746 8.420679096218157 0.2176712643489528
0.49770930288129794 13.172348974022796 84773.53639712605 8.84548737677574 0.22080442135557146
0.5162336499722885 13.136735632455895 72056.95889453976 9.28831324827548 0.22397107943875344
0.5351373138056008 13.106139028521808 61377.281974730045 9.750078007880289 0.22717470987154184
0.5544306781946992 13.080071554931513 52392.421364939335 10.231589403332835 0.23041666063853614
0.5740950372087312 13.058078089238425 44810.27307235039 10.733376200752321 0.23369436946615746
0.5941420690557064 13.039755364432033 38398.35691270852 11.25656712726364 0.23701257589188027
0.6145600002600795 13.02467126076072 32964.953680119055 11.802152100698617 0.24037359259205515
0.6353462109893517 13.012565601544186 28118.34892439386 12.371107753304464 0.2437790482588149
0.6564971604824332 13.00312218938042 24420.581176264663 12.964201620374455 0.2472277898820689
0.6780171294912766 12.996062086215899 21072.907051209404 13.582602033206857 0.25072284132226835
0.6998876228890765 12.991114893481823 18211.38788196828 14.227578686079763 0.25426769021746065
0.7221037201711955 12.988042831054976 15765.17863920821 14.900318169796991 0.2578643152697377
0.7446745664646475 12.986657575076114 13664.859859178749 15.601952784716916 0.2615136567571072
0.7675764337356081 12.986749756379515 11862.807759606681 16.33354103829626 0.2652155503746609
0.7908014830757395 12.988119576402248 10313.123634079462 17.096793637366595 0.26897568249520803
0.8143595974982223 12.990605928606161 8978.681859502149 17.893161545809157 0.2727964776578207
0.838224410435227 12.994053194542168 7826.561541605286 18.724139822679554 0.2766801972910948
0.8623856979927909 12.998317270182511 6831.768472963358 19.590809374943525 0.28062498538044583
0.886841410921715 13.003257107715319 5970.923388625973 20.49537613261934 0.284638332084852
0.9115834433301615 13.008730565868257 5224.856447113737 21.43962878670568 0.2887232399533254
0.9365843735595364 13.014625850602393 4577.989479988105 22.425216388365204 0.2928809776619359
0.961843634650448 13.02081085353628 4015.2614655720326 23.453827925766696 0.297112669333499
0.9873499290687778 13.027207888506075 3506.9488291761822 24.528038852262977 0.30142570753308295
1.0130749026757873 13.033650369781405 3100.55049456775 25.649986012209354 0.3058231928924676
1.0390184268569018 13.040096933464662 2729.301538402902 26.8212322834503 0.31030346073914733
1.0651543876445835 13.046434496629791 2405.1849276822495 28.045055275554606 0.314876656864125
1.0914638300296908 13.052567485047394 2121.884011433756 29.323737763232614 0.3195448211444365
1.117943564514859 13.058404463957379 1874.1788957131005 30.659566952207626 0.32430945709221487
1.1445571195301625 13.063864761593944 1657.002748345057 32.05626039807751 0.3291808387273346
1.1713022446025203 13.068885495386434 1466.5911072126898 33.5157079628718 0.3341563418377235
1.19814530683315 13.073365900851217 1299.479779816109 35.04221739508851 0.3392481114331582
1.2250700154313354 13.077235622442188 1152.6649481668674 36.63826326660156 0.3444557495430769
1.2520497694245618 13.080422670917669 1023.4056908021304 38.308295173799465 0.3497900823698965
1.2790762055857872 13.082876425353263 909.6927294518534 40.055140443063124 0.35525123936207603
1.3061038214797394 13.08448725078276 809.4310075383015 41.883976542725286 0.3608520709876329
1.3331267087444199 13.085231495970044 720.9405317064168 43.79788843918472 0.36659238072451206
1.3601221809014254 13.085053956278035 642.8128534436004 45.80227814883476 0.3724839374507092
1.3870414987072421 13.083829252818342 573.72256566353 47.90210118930862 0.3785346570808618
1.4138783904068222 13.081550319551702 512.6239017385822 50.10166450700593 0.38474796176126397
1.4406048660872146 13.078173329845738 458.44323396858135 52.40700694606274 0.3911351354886958
1.467177812252959 13.073587321325245 410.4589666820101 54.82410725718759 0.3977056691524502
1.4935839114523657 13.067774827601145 367.8120921752438 57.35912858873085 0.40446857896969884
1.5197869419995063 13.06068170499611 329.98925312704665 60.01866980689863 0.4114335875673014
1.54576479038595 13.05223956243615 296.3402239425692 62.809804696482274 0.41861118208421627
1.5714764340052632 13.042414297178638 266.4145880172072 65.74012491109967 0.4260126770082632
1.5968909245849965 13.031131418204168 239.76081056104815 68.81778705305686 0.4336502823013698
1.6219833823306213 13.018373115683316 216.00875884070777 72.0515643101634 0.44153717743524745
1.6467229075885996 13.004099327638139 194.79885359079887 75.45090313038371 0.4496875920345661
1.6710875469668056 12.988239959261081 175.86436248091073 79.0259854758843 0.45811689390822724
1.6950191208355845 12.97075930603132 158.95498501622077 82.78673830215521 0.466837337702148
1.7185075582753475 12.951621169014231 143.80592691057723 86.74541309298111 0.4758686433744061
1.7415072234479163 12.930779767858708 130.26394023425635 90.9145961985862 0.4852293776179638
1.7639906031733235 12.908201300820856 118.11724314967482 95.30688791695303 0.494935677913255
1.7859229614339718 12.883836880375865 107.22390698452898 99.93735828326172 0.5050107561449355
1.8072607406772643 12.85763870628287 97.44998013936396 104.821725626653 0.5154773149611973
1.8280069506321386 12.829644862209896 88.66135766453596 109.97571639032492 0.5263550582658525
1.848082338812284 12.799721983075651 80.7644270418643 115.41819053167865 0.5376722001796062
1.8674957368091931 12.767940312868594 73.6609487205193 121.16875363314014 0.5494560261367559
1.8861839871774908 12.734195031236286 67.25675443253847 127.24860821901721 0.5617357841936645
1.9041188075191924 12.698444634157525 61.486774991535356 133.68086405537863 0.5745434063378103
1.9212862244303957 12.660741425268348 56.281884029780294 140.48964065873295 0.5879099325160128
1.9376440504847796 12.62101947959546 51.584282927858254 147.7029303813252 0.6018751170265754
1.953156396342605 12.579236931407543 47.337602815191666 155.35027293261692 0.6164786494979873
1.9678091543102358 12.535439965836064 43.49842571628356 163.46320477104393 0.6317612719333388
1.9815633869799585 12.489576903636452 40.02585506441149 172.07693143489658 0.6477698572897193
1.9943985270888451 12.44165760219512 36.87800520713034 181.22995335871283 0.6645553519052095
2.0062547013943184 12.391569484496161 34.029758979870884 190.9638467760717 0.6821712676278521
2.0171422064486273 12.339419990211407 31.442833090130247 201.32435604178696 0.7006764588418889
2.0270234756582943 12.285175601416276 29.096730883797747 212.36185609132016 0.7201356334904655
2.035882738579329 12.22885042286009 26.96703274391209 224.13052188445323 0.7406155212925589
2.043674903800251 12.170392587677796 25.0300195332809 236.69182863032216 0.7621950809390232
2.050385027682929 12.109828152195163 23.269939628931002 250.11110026781526 0.7849527740662283
2.056010343037101 12.047215718205146 21.668337985985378 264.4624559686544 0.8089810928478376
2.0605036683769633 11.98249010025959 20.211808418292993 279.8265957303938 0.8343774868180789
2.06387283619533 11.915753627229691 18.884853291084347 296.29306521728256 0.8612496347334073
2.0660920039797217 11.846993257287998 17.67663068308692 313.9596129019021 0.88971089592983
2.0671451326997685 11.776247404344641 16.57743797544035 332.937467256515 0.9198948178126629
