M[M_sun], R[km], Lambda[1], P_c[MeV/fm^3], rho_c[fm^-3]
0.24162668629717493 15.618656898711224 2160425.4255784233 3.5677272577965504 0.1711233750220791
0.25363837820885127 15.277439577933226 1723248.6353786853 3.784730246391214 0.1738870592286725
0.2660294372925957 14.98150525189222 1383266.6234345508 4.0112136374859135 0.17666439110202678
0.27879808510276555 14.723866296190945 1116748.655587009 4.247436300692348 0.17945412845703543
0.29194845435863287 14.4987475735511 906179.178759777 4.494022061052305 0.18226281281247145
0.3054767477484408 14.30160305823421 738940.5502090048 4.751119912344546 0.18508602099048016
0.3193899784988888 14.128450505554419 605338.3104950655 5.019422882992279 0.18793060803665218
0.3336779345436309 13.976360012143898 497963.0149213088 5.299140254213311 0.19079290833543594
0.34835183609162657 13.84243641014456 411255.9230099622 5.5910175381475495 0.1936795611679206
0.36340868569692597 13.72435815092182 340877.47895117936 5.895200607834783 0.19658523465779223
0.3788533351504536 13.620386155771651 283523.4527774907 6.212562195372423 0.19951779232390063
0.3946753541917269 13.528863161023192 236606.7861222027 6.5433757588832675 0.20247369883129332
0.4108934225018653 13.448238651054135 195538.27969019915 6.8883114217184955 0.20545612115292491
0.4274927219685905 13.377425157547183 166245.4325608127 7.2480880409757065 0.20846838955350522
0.44447806263180406 13.315260724710532 139943.56958640672 7.6229875207953794 0.2115064194576669
0.4618508112039383 13.260871204230114 118104.26119291963 8.013912759361222 0.2145756629404752
0.479604827755058 13.213446916594654 99918.84676699099 8.42158896679721 0.21767810530373152
0.4977525428590272 13.172249261911936 84741.49762416554 8.846488023348506 0.22081166646430167
0.5162794746230834 13.136647802959702 72029.32265046716 9.289420854697358 0.22397887705701466
0.5351864851118865 13.106072378212524 61355.748997376824 9.751300076892223 0.2271830768028764
0.5544834461077875 13.080026046353861 52371.47637648 10.232933893257457 0.2304256144169469
0.5741529649701386 13.058014735784145 44790.24331684978 10.734837268745524 0.23370374997525603
0.5942032056159141 13.039679028676074 38380.801640672405 11.25816673164742 0.23702257024901704
0.6146243854265242 13.0246333369235 32950.6379414386 11.803899681997448 0.24038422080212707
0.6354146263485937 13.012537297168667 28334.241725869575 12.373013340622782 0.2437903313827269
0.65657023503956 13.003093212888649 24409.820407943316 12.966256463561134 0.24723953452309586
0.6780933077215665 12.996042434225954 21061.810508744136 13.584835291515612 0.2507352755062058
0.6999689328829057 12.991108326417852 18202.131028765478 14.230002321990787 0.25428083856056355
0.7221897963773954 12.988023001800928 15755.848596762968 14.902944913906852 0.2578782038560052
0.7447641102089417 12.98665854958582 13657.596470807182 15.604770572633834 0.2615280594198259
0.76767110881091 12.986744043858385 11856.258700114005 16.336588000612995 0.2652307387176053
0.7909029258651675 12.98811483463103 10238.589346695582 17.100085050617803 0.2689916875232826
0.8144627829337571 12.990617980278957 8973.330758696064 17.896713698698463 0.2728133323692894
0.83833026546358 12.994089710520239 7821.536672953891 18.7279369661027 0.27669764320042933
0.8624975007628188 12.998340081331582 6827.717995637989 19.594900841715543 0.2806433412114988
0.8869584620315569 13.003279068018223 5966.967402796867 20.499781594312097 0.2846576375010673
0.9117048347187774 13.008766934045534 5221.285423614558 21.444369261088035 0.2887435372918509
0.9367117778558502 13.014653872515638 4574.802613700968 22.430272138426833 0.29290197636938436
0.9619745782690938 13.020842484463849 4012.516092201767 23.45926234315313 0.29713474011722807
0.9874856890778212 13.027232289105722 3523.895408622079 24.533877488698273 0.30144890166390953
1.0132154315313966 13.0336882263468 3098.3863764759612 25.65620628055988 0.3058471981059883
1.039164039349541 13.040134911550226 2727.3940003176513 26.82791015873989 0.31032868854950946
1.065303817202839 13.046470543246121 2403.4089421635467 28.052221982084912 0.31490316962790343
1.0916178531226226 13.052597191487763 2120.3841460838444 29.33136791806933 0.3195722850169097
1.1181028212899962 13.058434226921095 1872.6414295350721 30.66775156423786 0.32433832884150116
1.144719815442435 13.063897162632077 1655.8893841752963 32.06503782384556 0.3292111944801432
1.1714706744699475 13.068917170680818 1465.4692953225199 33.52505019572706 0.3341878261256703
1.198317507280822 13.073394371551123 1298.440567641523 35.05223352694256 0.33928123206582006
1.2252464971451968 13.0772649126819 1151.765850520809 36.64892425474838 0.344490140240553
1.2522293333334003 13.08044071620238 1022.5907283420879 38.31972354952781 0.3498262849588548
1.2792591740606174 13.082891498715576 908.916966921891 40.06730644026387 0.3552888768930181
1.3062923157926833 13.084499307401497 808.7089079018449 41.896930397375 0.36089123245273935
1.3333178668294208 13.085228551302746 720.3258986543466 43.81177522411372 0.3666336594310374
1.360315609449479 13.085048916427766 642.253164584654 45.817068793720544 0.3725269466368798
1.3872385834911989 13.083812697914935 573.2734820866052 47.91785879946867 0.3785795083260446
1.4140777792307972 13.081528910887144 512.1382095251366 50.11856166722106 0.3847953094662923
1.4408083112869408 13.078141586748757 458.0416179349552 52.425016859621834 0.39118458396359757
1.4673870653671957 13.073557822658428 410.0597247510934 54.84330957773675 0.39775735834590653
1.4937913546283281 13.067725363632873 367.5024990443476 57.37960941743115 0.40452265964141204
1.5199964998510511 13.060622289317333 329.7008092799912 60.04052226923711 0.41149022217500003
1.5459763332598684 13.052165010485284 296.084020379845 62.83312957659281 0.4186705457585078
1.5716887849741934 13.042324237570536 266.1813449941985 65.76503134999291 0.4260749586247531
1.5971040289078486 13.03103461783756 239.55526644497857 68.84439331793665 0.433715685660569
1.6221964875846306 13.018259031342401 215.80557819182826 72.07999864288934 0.44160592256204817
1.646946713535046 13.003970944380796 194.62643480683906 75.4813046841373 0.44975991661048026
1.671300845075873 12.988091724085825 175.71482214794293 79.05850535022962 0.458193054851189
1.6952231620721798 12.970572586215901 158.80815370551844 82.82137477935156 0.4669169322258674
1.7187013700205607 12.95140133978882 143.67599678276073 86.78250274324961 0.4759526331838091
1.7417181133210466 12.93057850898177 130.14819624888307 90.95415446942015 0.4853173802096933
1.7641991610114574 12.907980019426294 118.00759575760227 95.34929534460666 0.49502872927864555
1.7861292778802382 12.883598758782588 107.12759628607628 99.98265177641719 0.5051084975381624
1.807475218363688 12.85740572731123 97.3537399458208 104.87013974393493 0.5155801224407254
1.8282057169665846 12.829361095782762 88.57985350361376 110.02771146720792 0.5264641001797369
1.8482889088554777 12.799443416448467 80.68913135770312 115.47384804236646 0.5377871693907568
1.86768813505298 12.767609786555102 73.5904957197684 121.22837924519915 0.5495774020325589
1.886366561424954 12.733813313276313 67.19538266513254 127.31253621247562 0.5618640871664452
1.9043114737555982 12.698101424865495 61.42966775128813 133.7493761824171 0.5746789048685431
1.9214616282913977 12.660333649752273 56.231782081797085 140.5630623362522 0.588052985864673
1.9378068089432805 12.62055798147891 51.53653771663027 147.7818511817575 0.6020269251127616
1.9533253541636306 12.578807459339908 47.295276193378726 155.43491556119722 0.6166390557519935
1.9679654231386565 12.534962334138527 43.46227245721065 163.5543469240442 0.6319319296021614
1.981708573242486 12.489057298306058 39.98939236739217 172.17487739002505 0.6479507037866749
1.9945228985045291 12.441065139634135 36.84770320929582 181.33532324196213 0.6647472846085843
2.006382685968295 12.390990881679366 33.99618728943929 191.07732375610817 0.6823752665558154
2.0172727972856865 12.338848561167005 31.415427592126246 201.44669366403156 0.7008935960537617
2.0271315626842954 12.28453396029456 29.07023122132165 212.49388656504183 0.7203670836410855
2.035967234963363 12.228140638501522 26.94188211322666 224.27284633022427 0.7408615324853387
2.043760803737136 12.169689092337576 25.00831066811657 236.8457537003562 0.7624580135347113
2.0504625778163765 12.109109005937617 23.24812017751013 250.27745401457085 0.7852332088808401
2.056064306135746 12.04642199900085 21.648991967890602 264.64244924191445 0.809280612111931
2.060559118339219 11.981699324222443 20.19427742656053 280.02159488489036 0.834697900903768
2.063912917572886 11.914928284290317 18.869126677356633 296.5042297445869 0.8615917591043358
2.0661122563069116 11.846119750490518 17.662251141940637 314.18898556226094 0.8900780764449343
2.067152339734267 11.775340181766573 16.564659075266412 333.18655831863947 0.9202882372480349
