M[M_sun], R[km], Lambda[1], P_c[MeV/fm^3], rho_c[fm^-3]
0.24162668629717493 15.618656898711224 2160425.4255784233 3.5677272577965504 0.1711233750220791
0.2536447439404116 15.277275858186075 1723270.5199904868 3.784833940365246 0.17388835172403522
0.26604074721663534 14.981265418190487 1382988.0922388318 4.011431620090581 0.17666702529315964
0.2788169983546856 14.72350571135972 1116421.9812972473 4.247775943711669 0.17945806780422843
0.291972463234266 14.498360336306634 905790.5706463191 4.494492273970165 0.18226804874244254
0.3055091113521459 14.301186683970247 738590.6516902077 4.751736657573264 0.18509268301602627
0.3194263359785299 14.12809008141744 605064.5232490051 5.020190700455181 0.1879385744391801
0.333726512286122 13.975865211064207 497666.068809971 5.300079354289628 0.19080236351495564
0.34840762243956774 13.841971774435304 410972.14153875894 5.5921302622680935 0.19369032707988673
0.3634704715194181 13.7239423001032 340636.86500536674 5.896511949921456 0.19659755106017984
0.3789261929496161 13.619945404681788 283280.1096841286 6.214088019695555 0.1995317060045155
0.3947585630896328 13.528409019765217 236391.21839928892 6.545114477993586 0.20248894504899634
0.41098544283338595 13.447818251102847 197837.00903999002 6.890296594853898 0.20547302772039158
0.4275938087329092 13.377018681660804 166058.61210986512 7.2503382908842315 0.2084870052943088
0.4445912136894022 13.314887406622686 139778.49902887188 7.625496625026433 0.21152639354069483
0.4619738339811371 13.260542858119212 117965.23043718174 8.016724473857646 0.21459741382527858
0.4797395093909846 13.213118783711794 99808.83773904118 8.424725209786363 0.21770168546662266
0.49789795610414894 13.171977901769246 84630.61075690352 8.84993722856211 0.22083664018378016
0.5164378697397625 13.136373507469441 71926.87482039815 9.293238829342203 0.22400575583653734
0.5353580656204711 13.105812754418169 61265.89785628284 9.755512699273226 0.22721191864556767
0.5546659202083201 13.07979474827876 52296.782001106694 10.237568613773554 0.23045647984757378
0.5743503295242876 13.057826894837856 44722.11813041734 10.739873948325032 0.23373608701832455
0.5944088130885088 13.039501171297747 38321.617798127794 11.263681097778157 0.23705702410839152
0.6148474644578438 13.024502033832443 32895.56981817301 11.809924299879404 0.24042086053070236
0.63565272957931 13.012431846130793 28286.479778814424 12.379582806645821 0.24382922967852322
0.6568250789509972 13.003019422805155 24365.556780786166 12.973340610427362 0.24728002460159207
0.678358104120299 12.995981539500075 21024.059365134955 13.59253469160118 0.25077814370308954
0.7002477576192022 12.99105236126057 18168.405102546305 14.238358243913964 0.2543261698448077
0.72248464336521 12.987988696185916 15725.328963145992 14.91200127727587 0.2579260882629592
0.7450733825509072 12.986639177869547 13630.9615120304 15.614485775771236 0.26157771709391536
0.7679951978468726 12.9867527313214 11833.520098126215 16.347093573634865 0.2652831063642306
0.7912420641783493 12.988143843216859 10286.072221943272 17.111433700111025 0.26904687216279305
0.8148190089962342 12.990668998325521 8954.106003120647 17.90896162485323 0.27287144790312506
0.8387018146224062 12.994149456017887 7805.745285957027 18.74102985190617 0.27675779823625524
0.8628834127452736 12.998420787359112 6812.349081584837 19.609008878832004 0.28070663507656696
0.8873684519561486 13.00336719164904 5953.9106039444805 20.514972659578714 0.28472420710447754
0.9121254462060605 13.008853003799388 5209.805759833065 21.460715878342164 0.28881352877316546
0.9371469165395077 13.014747206894627 4564.071162452694 22.447706225898465 0.2929743876432774
0.9624326109302226 13.020957653235165 4003.5369335875707 23.478002619936355 0.2972108499495235
0.9879545159231924 13.027351190926048 3515.5516882617226 24.5540121301348 0.3015288870359738
1.0136983633425627 13.033809612753268 3091.026232484886 25.67765736457102 0.30592998197043286
1.039664653805289 13.040263171618951 2720.681652078098 26.850939844840266 0.3104156905566515
1.065817104368866 13.046586103696953 2397.54918520811 28.076938029370435 0.31499460503417365
1.0921509570976957 13.052720442407116 2115.075893265207 29.357682749464086 0.319667002252542
1.1186502295291703 13.058553235571214 1867.849616054272 30.695979244946034 0.3244379038143073
1.1452836780059497 13.064006451787149 1651.6219420705522 32.0951775401334 0.32931502849446453
1.1720481592288345 13.069013720649767 1461.6134742549805 33.557271703405284 0.33429641592872233
1.1989063681215686 13.073479004277345 1295.0438179047649 35.086780133219584 0.33939546832717205
1.2258529656019417 13.07733801300231 1148.6773982625957 36.68569573671775 0.34460875934928314
1.2528502585443888 13.080502388569874 1019.8331105230102 38.359101380697105 0.3499509134748349
1.2798948448468659 13.082941660979023 906.430377678934 40.109270779025806 0.3554187005377677
1.3069385839858838 13.084521056009953 806.5155637322233 41.94161319867351 0.36102631533047946
1.3339774223392071 13.08524255101945 718.3612985677478 43.859677256857 0.36677604904545746
1.3609872224912631 13.085030642025412 640.4110831167384 45.86808972064615 0.3726753085617104
1.3879188562224196 13.08376796414726 571.6146519030817 47.97221645948552 0.378734227773487
1.4147701298710795 13.081460771846269 510.65776281644247 50.176851858934896 0.38495864500718635
1.4415007017166976 13.078021007726656 456.7237559557492 52.48714708239277 0.3913551702771437
1.4680966688454795 13.073419990292507 408.8753199308534 54.90955482306428 0.39793567863238066
1.4945064671512993 13.067550100024752 366.404004719871 57.45026694587014 0.4047092344453663
1.5207181975369546 13.06039940001527 328.73396028123045 60.115913603647634 0.4116856124510282
1.5467032685652347 13.051909475483013 295.19100889252127 62.91360269422293 0.418875356240773
1.5724194762308756 13.042023987003994 265.36853059819873 65.8509630955303 0.4262898415328559
1.597832795849483 13.030687034097161 238.82616861020375 68.93619206235908 0.43394134477817237
1.622931003581534 13.017863437045131 215.1651075657733 72.17810721599393 0.4418431177290078
1.6476841553369934 13.003518987574084 194.0328353900245 75.58620361208442 0.4500094686741386
1.6720318520997037 12.98758245929574 175.16158775750276 79.17035661953089 0.4584543486161526
1.6959694625346857 12.970023963234773 158.31253512601032 82.94089202912969 0.4671915825177668
1.7194494078037732 12.950807706040797 143.22850554063518 86.91048855572303 0.47624245807884363
1.7424257511339518 12.929831768217547 129.74356366603783 91.09066212914726 0.4856210595059228
1.7649134516362333 12.90720546536706 117.63468121193401 95.49563920225899 0.4953498403793303
1.786839294828719 12.882766020412825 106.78757027409367 100.13895923690956 0.5054458022566978
1.8081774267472064 12.85650092627275 97.05101488266415 105.03722095247524 0.5159349197372767
1.828885475931427 12.828359728215762 88.29907185451128 110.20697270835346 0.5268397407018112
1.848964139846427 12.798383995348404 80.43371975382387 115.66593846423139 0.5381839619170211
1.868339415673593 12.766439774262844 73.36185062335652 121.43417084800278 0.5499963183216581
1.8870160033470036 12.732614026298535 66.98297925656402 127.53310985013982 0.5623066609522711
1.9049379793236387 12.696789148420022 61.23422166988132 133.9853327784341 0.5751447564529535
1.9220770508293379 12.65896475810103 56.05346558594955 140.8164926790063 0.5885467645470467
1.938389641756818 12.61906730236917 51.373472193706 148.05427209176608 0.6025509402869484
1.9538830903817146 12.577217397869699 47.1462022295528 155.7270963191436 0.617192767536008
1.968499621994883 12.533274246138708 43.326535055639106 163.86870940170718 0.632520151179222
1.9822101159982506 12.487269405175802 39.86539518462855 172.5130038633895 0.6485750173497585
1.994994122272259 12.439183186112095 36.731269064017596 181.69909108850393 0.665409892784987
2.0068299403810825 12.38901439155402 33.890928583041756 191.4690938680704 0.6830795563846657
2.017674697346509 12.336729819175465 31.31676225635244 201.86907029387882 0.7016432729077217
2.0275083740818536 12.282338383916356 28.981298052023096 212.94887914137345 0.7211633682513314
2.0363141457144494 12.22585973358592 26.859564024199788 224.76426588934487 0.7417109628923191
2.0440552682371775 12.167257523044979 24.933821057523645 237.3761909300465 0.7633624577381273
2.050711928715376 12.10654006175381 23.179561884569317 250.8516739293651 0.7862008752943669
2.0562811217420713 12.043782963434003 21.585629969829597 265.26400954585387 0.8103149245695787
2.0607244497728527 11.97892354893498 20.13584306239241 280.6945447669338 0.8358029188660706
2.064025578240154 11.91201954247451 18.815392902665174 297.2334951850603 0.8627732997884974
2.066181799703239 11.843107797135938 17.61274908029806 314.981171157768 0.8913462097724264
2.0671707939601722 11.77220580093813 16.518351596578388 334.04688571978795 0.921647055655681
