M[M_sun], R[km], Lambda[1], P_c[MeV/fm^3], rho_c[fm^-3]
0.24162668629717493 15.618656898711224 2160425.4255784233 3.5677272577965504 0.1711233750220791
0.2536439181860338 15.277277737253323 1723230.4338583644 3.7848179492815586 0.1738881524028914
0.2660397094604552 14.98128218088582 1382976.4176695535 4.01139800352404 0.17666661905679215
0.27881440908825583 14.72353370159178 1116449.620054378 4.247723564240972 0.17945746028130255
0.2919691539206932 14.498423586758935 905881.3463760052 4.494419756993549 0.18226724124907762
0.30550494358372526 14.301208356285926 738638.046840931 4.751641540660423 0.18509165557183424
0.31942068222415904 14.128129576737752 605147.4267223228 5.020072282822019 0.18793734581053104
0.3337184716740493 13.97594949214462 497677.6080185581 5.2999345181601845 0.19080090525545873
0.34839902063634365 13.842043357004394 411015.5564300967 5.591958645890447 0.19368866664422296
0.3634614384507041 13.724034993090884 340657.1409653237 5.896309697504684 0.19659565146268032
0.37891466456914524 13.620011589157382 283311.27650619805 6.213852683517028 0.19952956002193054
0.3947464875312354 13.52846242964942 236413.75355948918 6.544846302261186 0.20248659351011086
0.41097083752946667 13.447892115406127 197873.45354669265 6.889990402209205 0.20547042005534064
0.4275788401343854 13.377088212696867 166087.99485558044 7.249991207841579 0.2084841339652467
0.44457349702249654 13.31494224404826 139808.55265843985 7.625109610766122 0.21152331265833338
0.46195608790335996 13.260568627216635 117982.17149493274 8.016290777614373 0.2145940588342085
0.47971903933481413 13.21316344014827 99815.10863740674 8.424241449413024 0.21769804826489977
0.49787539203957726 13.171998490711559 84648.82805865252 8.849405187658233 0.2208327879803125
0.5164132436264325 13.13641515318277 71940.29640574692 9.292649897421798 0.22400160971910207
0.5353318698103225 13.105851372557758 61279.13345602939 9.754862882928304 0.2272074696589025
0.5546372950903837 13.07983440209206 52302.42215232622 10.23685367692669 0.23045171864707142
0.5743200984603557 13.057843825312345 44731.88176579035 10.739096997324928 0.23373109875223458
0.5943769471595773 13.03952193043054 38330.78269625208 11.262830447828618 0.2370517092321132
0.6148124767748214 13.024515668536262 32904.1601855459 11.80899492536828 0.24041520838304759
0.6356169835629574 13.012433887946736 28293.967777042897 12.378569368409666 0.2438232290355268
0.6567855574080648 13.003035885050512 24178.190753052346 12.972247762359892 0.24727377833018185
0.6783159961470985 12.995985544584345 21029.33304871706 13.59134691420347 0.2507715304767637
0.7002054408584738 12.991067481268495 18174.41390241215 14.237069168027418 0.2543191765452098
0.7224382866998594 12.988007529893034 15730.70314313627 14.910604124490911 0.2579187009895244
0.745026095607596 12.986653518751236 13635.348301843416 15.612986964776427 0.2615700561663105
0.767946513504518 12.986759128619804 11837.285978573555 16.345472806277417 0.2652750272454562
0.7911895523785929 12.988141404377716 10289.494006350471 17.10968284145513 0.2690383583300399
0.8147622679109287 12.990667659897468 8898.743468843435 17.907072000600305 0.27286248177115957
0.8386458033596184 12.994131834071096 7808.154677980944 18.739009843526897 0.2767485173429329
0.8628252505566906 12.99840104715858 6815.073477641422 19.606832219787677 0.28069686978018205
0.8872956567773734 13.003366416851511 5955.425543885016 20.51262887282761 0.2847139362675243
0.9120601768819019 13.008844897046037 5211.5700018715615 21.45819376936451 0.28880272983289307
0.9370804072278432 13.014735925695895 4565.654019193773 22.44501630125769 0.29296321522773044
0.9623572253132466 13.0209336577434 4004.945023131325 23.475111120947815 0.297199106712983
0.9878820849866806 13.027331574227956 3516.8756655597867 24.550905445695317 0.30151654565350805
1.0136239327623808 13.033782543510872 3092.0516265306505 25.674347520733132 0.30591720864562255
1.039588284113806 13.040239089027839 2721.6620504897564 26.847386375562817 0.31040226618959293
1.065737768420924 13.046564156226497 2398.570043020492 28.07312429966262 0.3149804963896477
1.0920712425729813 13.05269732382389 2115.9238475235693 29.353622276479246 0.3196523870429397
1.1185663698149715 13.058533687264662 1868.8587684994131 30.691623547643207 0.32442253880982946
1.1451955153511553 13.063988102888247 1652.2481609230097 32.09054083529435 0.3292990972333346
1.1719591067272597 13.069003103169472 1455.3584856493014 33.552299599494724 0.3342796594258984
1.1988139586105269 13.073462507175527 1295.559160426622 35.08144916116431 0.33937784024781503
1.2257598909558036 13.077328955469106 1149.1989646431434 36.68002136739826 0.344590454712232
1.2527549630065689 13.080490193403412 1020.2617426846195 38.35305976583547 0.34993188678409226
1.2797957115224712 13.082937059181658 906.8103568916277 40.10279489143271 0.35539866630500894
1.3068391975125995 13.084524400247851 806.8178869696808 41.934717710587385 0.3610054692253333
1.3338757408799242 13.085234936438386 718.6653085452906 43.8522848530621 0.3667540749983093
1.360883906111812 13.08503473804165 640.6907118240849 45.86021589160099 0.3726524125364259
1.38781386951621 13.083775894462306 571.868245382665 47.96382757145952 0.378710350290173
1.4146703992939693 13.081490551462037 510.87062305808456 50.16785591844869 0.3849334373905709
1.4413939114984236 13.078036336820682 456.9334605147699 52.47755837114978 0.39132884326865014
1.4679875188698401 13.073438896738786 409.05299684086566 54.89933088030534 0.3979081576172096
1.4943964743518463 13.067575402274887 366.57337949518757 57.43936187131041 0.4046804390403608
1.5206076918510312 13.060431884932264 328.87070602200043 60.10427774951197 0.4116554560309414
1.5465905782289222 13.051948875345593 295.321072431379 62.90118232654942 0.4188437454175809
1.5723066258344822 13.042071102841884 265.49257170684194 65.83770002132208 0.42625667558308467
1.5977309313836885 13.03074524165006 238.94621374044482 68.92202321874325 0.43390651501260286
1.6228180492120574 13.01792752757223 215.2602592355017 72.1629642170782 0.4418065067984599
1.6475704438906056 13.003589581785569 194.1276503226452 75.57001224866575 0.4499709498042736
1.671919067289786 12.987659006426027 175.25460527074407 79.15312085899853 0.4584141377840205
1.6941246009804274 12.970009636014545 159.38725559072418 83.03903944702758 0.6596138523519042
1.7078732575605204 12.946015148657247 148.85851394076005 87.6480738921267 0.9581968153534721
1.714682061405595 12.91270195369422 141.61672809132116 93.02535346956276 1.23796999191163
1.7161820347951635 12.869824951335332 136.38454943671522 99.17229364077652 1.5001285081752256
