M[M_sun], R[km], Lambda[1], P_c[MeV/fm^3], rho_c[fm^-3]
0.24162668629717493 15.618656898711224 2160425.4255784233 3.5677272577965504 0.1711233750220791
0.2536415476804634 15.277355705500877 1723180.6602106725 3.7847921070229784 0.1738878302916049
0.2660371051942715 14.981312228426882 1383023.3726623552 4.011343678175623 0.17666596256701714
0.2788105079275397 14.72358582056998 1116463.449748915 4.247638918135278 0.17945647851403546
0.29196312436059785 14.498510568001931 905937.2579631924 4.4943025692045895 0.1822659363358497
0.30549553794221046 14.30136438584717 738745.5096305826 4.751487832414468 0.18508999522942132
0.3194102618687337 14.128260825831202 605241.5898214362 5.019880922134179 0.18793536036953626
0.33370570912296027 13.97612012823115 497767.32437746285 5.299700467382601 0.19079854875248894
0.3483851801365274 13.842108320470718 411090.4848296824 5.591681320933494 0.19368598344897497
0.36344573981439204 13.724113137047544 340720.9011252551 5.895982868307929 0.19659258181369998
0.37889708102695224 13.62011223021832 283367.97043939575 6.213472395404369 0.1995260922522398
0.3947259509938312 13.52858281655704 236470.43743815934 6.544412950344873 0.20248279359923457
0.41094819788288833 13.448012739827366 197924.3776598963 6.889495621240345 0.20546620629298304
0.42755252417017503 13.377203438039984 166131.69534163724 7.249430355375895 0.20847949417653228
0.44454590289382406 13.315050794492462 139849.15474852032 7.624484237195198 0.21151833428259495
0.4619237354580117 13.260671729610982 118017.20810567476 8.015589975715214 0.2145886375649445
0.4796855798459959 13.213252354751479 99841.46071821617 8.423459755071674 0.21769217101624144
0.49783883151266933 13.172078808200121 84674.84968639536 8.848545483310296 0.22082656335351003
0.5163740784664986 13.136481049021096 71964.80525932669 9.291698271417772 0.22399491021270676
0.5352885569046765 13.105915514916287 61301.690400807194 9.753812883763437 0.2272002808088229
0.5545927419401175 13.079887640652062 52321.23052022262 10.23569846110983 0.23044402536038228
0.5742701330712227 13.057904089737528 44347.74976016461 10.737841584369045 0.23372303861217955
0.5943247425701174 13.039573613484633 38344.72158321293 11.261455959659495 0.23704312140515935
0.6147584018053395 13.024548673989377 32918.19340671264 11.807493243159549 0.24040607564971705
0.6355539859716394 13.01246607317465 28308.01955421509 12.376931866864421 0.24381353326736993
0.656723850805243 13.003062934736239 24383.227799139164 12.970481961078855 0.24726368573416033
0.6782508796028547 12.996000294308196 21038.443717425605 13.589427740592845 0.2507608450322771
0.7001355898605359 12.991087760595455 18182.32432552357 14.234986333079252 0.25430787706396324
0.7223666619072194 12.9880003213533 15737.091850967665 14.908346678162813 0.2579067650198369
0.7449486954413107 12.986647116882605 13641.942809256618 15.610565277532277 0.26155767810748703
0.7678648249649216 12.986759506746198 11842.147472777851 16.342854086513288 0.2652619735842296
0.7911052120084309 12.988127081692632 10294.689515949358 17.10685394804336 0.26902460237932213
0.8146754463456672 12.99065506922558 8961.70195068338 17.904018921242724 0.27284799512791347
0.838553560116637 12.99410887576265 7762.036774855997 18.735746119162727 0.2767335222181758
0.8627309696771672 12.998380043273308 6818.921411183167 19.6033154184537 0.28068109211052705
0.8871996615407681 13.003336799651679 5959.400953675905 20.508842070489667 0.28469734191252644
0.9119569111523212 13.008818923778417 5214.598872867214 21.454118883165364 0.2887852823502224
0.9369708017888843 13.014704226134347 4568.245086830853 22.44067030454634 0.29294516443162677
0.9622443612749241 13.020909024598625 4007.2588001640665 23.47043948071675 0.29718013379392505
0.9877638416582489 13.027311621542415 3518.7990179087205 24.545886176023675 0.3014966064778618
1.013503360078333 13.033762330605105 3094.2068987397847 25.669000049005604 0.3058965717223611
1.0394623412669355 13.040206419162853 2723.383924732776 26.841645335748762 0.31038057757496185
1.0656102498819717 13.046553673469022 2399.680385432778 28.06696282203955 0.3149577024047041
1.0919362119284604 13.052670087785176 2117.314434631829 29.347062196444618 0.3196287747827247
1.1184297684262905 13.058504418605251 1869.9593427307252 30.684586554617677 0.3243977153609461
1.1450570499966428 13.063968821172184 1653.1662442434995 32.083049894308076 0.32927335909793376
1.1718151039696325 13.068977802494988 1463.230008085254 33.54426685461038 0.3342525882474275
1.1986662876969543 13.073439986132882 1296.4042598238339 35.072836705527315 0.3393493611918655
1.2256079798442512 13.077309327432568 1149.8774296558288 36.67085419096491 0.3445608828201064
1.2526001343772661 13.080478931795847 1020.9775674226796 38.34323241064714 0.34990075587722613
1.2796367087435783 13.082921775673261 907.4021537977505 40.09233297248484 0.35536630062288554
1.306678278468275 13.084516777618257 807.4207231891221 41.92357798890177 0.3609717921590172
1.3337116719696915 13.085234342221352 719.2005483279585 43.840342453080986 0.366718576009411
1.3607164715910756 13.085035941473187 641.1383271302368 45.847495833421306 0.3726154243351287
1.3876444399271353 13.083791157142407 572.2659404171367 47.95027553232618 0.3786717768121061
1.4144978443142326 13.081505560689694 511.2404058523733 50.153323320118005 0.3848927154485229
1.4412260558153513 13.078081619890112 457.2538241060654 52.46206828050247 0.39128631328336805
1.4678121348438424 13.073472611759087 409.3586346805694 54.882814719989895 0.3978636990840071
1.4942178463233158 13.067617065794066 366.8451873879722 57.421745509663296 0.4046339221398505
1.520427382561584 13.06048715342886 329.12075857221106 60.085481003318776 0.41160674086419397
1.546409798614252 13.052012894532773 295.54915410576336 62.88111841419657 0.4187926811654911
1.5721249254396865 13.04214594704897 265.69959604690666 65.81627496081427 0.4262030995818129
1.5975473781733893 13.030834577820542 239.13135503126958 68.89913516439154 0.4338502517360062
1.6226348256676786 13.01803154198472 215.42556645101428 72.13850272789996 0.44174736673734083
1.6473856842898196 13.003704793715361 194.2703063808974 75.54385748067773 0.44990872823105404
1.6717353255742688 12.987788758091323 175.38215271186343 79.12527921520808 0.45834918354758647
1.6956739111661001 12.970258468861642 158.508357765312 82.89264359004027 0.4670807077452616
1.7191458860982132 12.951058283482235 143.41567587777283 86.8588207340849 0.47612545588388516
1.7421425376556734 12.930144987543825 129.9022141888121 91.03555341777619 0.48549846290790966
1.764627412071503 12.907524141679207 117.78279430686385 95.4365587690903 0.49522020471693845
1.786552457479067 12.883100704136064 106.91619746882284 100.07585564047133 0.5053096274332561
1.8078942236139655 12.856867018736304 97.17124799982354 104.9697669974641 0.5157916811224215
1.828608610626972 12.82875412150337 88.41298496373973 110.13471002032972 0.52668849309758
1.8486915601932568 12.798812819151562 80.53917697288111 115.58838562641785 0.5380237645155252
1.8680819993069175 12.766930063289808 73.44676206045898 121.35108528256846 0.5498271865578968
1.8867574099406434 12.733107637758408 67.0681385341296 127.44409906629137 0.562128132764295
1.9046845734382076 12.697317983942112 61.31127381092694 133.8900659403635 0.5749566701345115
1.9218330578959792 12.659531184254286 56.124846007240045 140.714169317746 0.5883473997277039
1.9381542382662602 12.619669078534265 51.43925927667679 147.94427951000114 0.6023393640834515
1.9536556401970868 12.577865424618755 47.20380740319226 155.60912381137052 0.6169691978245636
1.9682832276698876 12.533958014580328 43.37842587676096 163.7419368866035 0.6322831794316974
1.982008988295089 12.48799231393882 39.91581269049041 172.37647567440203 0.6483229329764765
1.9933389946070297 12.441447577284219 37.00199892165822 181.8712825708968 0.9197699061847325
1.999920002402895 12.392965265743328 34.801342137140594 192.69545196995716 1.2058834568338934
2.002093759005059 12.340076744364511 33.09518514671891 204.92970624963397 1.4899132059160778
