M[M_sun], R[km], Lambda[1], P_c[MeV/fm^3], rho_c[fm^-3]
0.24162668629717493 15.618656898711224 2160425.4255784233 3.5677272577965504 0.1711233750220791
0.25364022259066266 15.277412886428241 1723248.5247824837 3.78476815121325 0.17388753169399332
0.2660338093985547 14.981386937188061 1383096.0199817 4.011293318971975 0.17666535400576103
0.2788058218140702 14.72368167119626 1116599.6523137602 4.247560452517174 0.1794555684311106
0.2919572479669642 14.498628968248955 906080.4488217452 4.494193938908795 0.18226472671229424
0.3054886359382156 14.301448285667897 738824.762760997 4.751345349792319 0.18508845614516994
0.3194013621158006 14.128359832418548 605208.6528735617 5.019703538398409 0.1879335199448138
0.33369656595192376 13.976171352069416 497858.7325516819 5.29948351351845 0.1907963643870685
0.3483721397633835 13.842270897327495 411154.58205208636 5.591424256058994 0.19368349627559805
0.36342966884150457 13.724245909999903 340783.28561643837 5.895679918316351 0.19658973644326802
0.3788782772444307 13.620288289965844 283420.9873403395 6.2131198953490285 0.1995228778761728
0.3947069612959697 13.528674591203652 236519.55293587394 6.544011267005106 0.2024792713789924
0.41092721205607957 13.448105661953043 197971.6930861113 6.889037001760169 0.20546230049703768
0.42752983332245087 13.377265792133596 166172.4905378928 7.248910497558379 0.2084751935260361
0.44451991968689447 13.315122778159072 139885.72414662276 7.6239045786041615 0.21151371982749104
0.4618948160346411 13.260758277199963 118053.62211801563 8.014940407872412 0.2145836126325274
0.4796541114250752 13.213329442791837 99875.75642855374 8.422735214475338 0.21768672348384618
0.4978048480701244 13.1721482581843 84697.4420707122 8.847748642053132 0.2208207938823441
0.5163375805112445 13.136546195889824 71988.69630608363 9.290816236972578 0.22398870063522416
0.5352476201146327 13.106007742387487 61320.06446590402 9.752839677792755 0.22719361772559965
0.554551637020317 13.079912210786901 52342.557009467906 10.2346277421001 0.23043689478946633
0.574225024412786 13.057970110407643 44765.20016585689 10.7366780048903 0.23371556807149418
0.5942754838379332 13.039603713360226 38358.06175461607 11.26018202527516 0.23703516184007253
0.6147062751625532 13.02457293428817 32929.663277934356 11.806101430764855 0.24039761110816962
0.6355008763277075 13.012486982558245 28318.399377504626 12.375414184121738 0.24380454695523396
0.6566651720122617 13.003081118465241 24392.665606049817 12.968845377249837 0.24725433169210645
0.6781905909833713 12.996013124551371 21047.370237111474 13.587649021692455 0.250750941601987
0.7000705491654738 12.991093146997297 18189.70356250969 14.23305594539442 0.2542974046165604
0.7222975665672403 12.988018661702183 15744.158294887491 14.90625447556693 0.2578957027560507
0.7448772597309585 12.986646020089983 13647.774967339605 15.608320870806976 0.26154620618908114
0.7677886430812705 12.986762012882995 11847.495150775181 16.340427089993884 0.2652498756152921
0.7910273571532977 12.98812528564962 10231.16933667111 17.104232185696947 0.2690118536368348
0.8145940215503558 12.990637204112396 8966.66553653735 17.901189409970176 0.272834569299245
0.8384661312000853 12.994104014495239 7815.583473776595 18.73272140716712 0.27671962523158405
0.8626399472172076 12.998367477437943 6822.328299890223 19.600056188739828 0.2806664700022895
0.8871061027829289 13.003303407236842 5962.11516533171 20.505332642508687 0.2846819630549684
0.9118582895004311 13.008794915269608 5217.118459335172 21.450342502856323 0.2887691129833297
0.9368700683137509 13.014698171957885 4570.658491629955 22.436642699943548 0.29292843605507707
0.9621395847370031 13.020877865768323 4009.400825813595 23.46611012439305 0.2971625509915174
0.9876572222805714 13.027273218263053 3520.8558578799416 24.541234698238615 0.30147812836478194
1.0133966149407987 13.03373312223974 3095.96687763008 25.66404445100925 0.30587744711529885
1.039346388835094 13.040188296499833 2724.9562935582485 26.836325054883705 0.31036047851187426
1.0654922522996995 13.046516179826694 2401.415925430788 28.061252964501918 0.3149365791588361
1.091812278532943 13.052638122782856 2118.5597832434396 29.3409829938759 0.31960689338612674
1.118303891616598 13.058476090130938 1871.0441402902209 30.678065453596364 0.32437471175453664
1.144927361151964 13.06394000038039 1654.1679749402008 32.07609888009898 0.32924944791552435
1.171680702638495 13.06895255141754 1464.0928351804876 33.53682311701859 0.3342275020842617
1.1985293863079591 13.073420095037251 1297.1791212046646 35.06485583461613 0.3393229706153812
1.2254683918147902 13.077289250540808 1150.6159222914296 36.66235933962761 0.34453347974466697
1.2524558412697444 13.08046238352858 1021.6015658088037 38.33412587984633 0.34987190838399923
1.279492269867885 13.082904674515849 908.013479486689 40.08263849354182 0.35533630914375197
1.3065285614040891 13.08450406235236 807.9799619941161 41.91325550480825 0.360940585725753
1.333558764780925 13.08523237750694 719.6155236021192 43.829276280179556 0.3666856816205447
1.3605616187233247 13.085039756061393 641.5773005896128 45.83570915089324 0.37258115026343686
1.3874873440965552 13.083799388988956 572.6509615514856 47.93771801682008 0.37863603406932156
1.4143374554074095 13.081524759527296 511.5889895512935 50.139857335400706 0.3848549822753628
1.441064307940828 13.078105787698993 457.5566850475885 52.447715195322516 0.3912469050891002
1.4676464078315445 13.073509195864858 409.6251394367375 54.867511008266874 0.3978225042443612
1.494051010982933 13.067661337373226 367.0976015536009 57.40542250098762 0.4045908204037597
1.5202611214715065 13.06053646852559 329.34343336659856 60.06806442250173 0.41156160264559205
1.5462415952629502 13.052071736482233 295.7579435298092 62.86252787489026 0.41874536676494317
1.571955189425266 13.04221672241294 265.8788271171233 65.79642340808721 0.42615345833044915
1.5973722946861693 13.030905177214922 239.27599733452746 68.877928260525 0.4337981210533511
1.622464373988476 13.018117398932155 215.5802168188142 72.11583817496437 0.44169257109362176
1.647215483978617 13.003808392854216 194.40664949982315 75.51962427265023 0.4498510780034429
1.6715651648912415 12.98790586255064 175.5128207915401 79.09948327835393 0.4582890019220304
1.6955037278237577 12.970390340737866 158.62852815544167 82.86503337365201 0.4670172595484154
1.7189774671524205 12.951201308575769 143.51677329735432 86.82925418170335 0.4760585021897615
1.7419832488594402 12.930326225614115 129.9982111430592 91.00401821977367 0.48542830870004317
1.764461869900872 12.907699912146771 117.87333826367498 95.40275130010475 0.4951460235811432
1.786388507310773 12.883296172856713 106.99033906466033 100.03974646845323 0.5052317054065931
1.8077327187854086 12.8570720451276 97.24046211019514 104.93116897244464 0.515709718135388
1.828457853487398 12.82900852136871 88.47824908017158 110.09325579899617 0.5266015570277869
1.8485352628664842 12.799056337069581 80.59721697386227 115.54401021396662 0.5379321002261787
1.867929607021952 12.767195420830404 73.50407812920861 121.30354475910356 0.5497304114737804
1.8866085503066796 12.733393466170671 67.1182985604022 127.3931266669979 0.5620258315656289
1.9045408238260502 12.697619410996012 61.35744224357758 133.83555700760405 0.5748490525763709
1.9216944590570293 12.659855021679565 56.16603600148153 140.65562378728058 0.5882333307706172
1.9380266191880169 12.620041500381815 51.47676979490067 147.88134698778666 0.6022183102458837
1.9535227341349644 12.578196533320487 47.240231353540096 155.54162658801116 0.6168412838297302
1.9681594738503123 12.5343472623803 43.4094022260275 163.66925416010872 0.6321470858212334
1.981893098157435 12.488404997417168 39.94513712524629 172.29836460713682 0.6481787094312588
1.9946948642727889 12.440381422423878 36.80392555501153 181.46817266970882 0.6649892716832866
2.0065455526069935 12.390264899387468 33.96080834869893 191.22039717143733 0.6826324713504601
2.017417058855712 12.338061304663995 31.379068681258627 201.60094164827504 0.7011673710104849
2.0272720520706087 12.28373725985159 29.038845253667613 212.66016828108425 0.7206582858742775
2.0361017060135604 12.227331802439053 26.912616710191116 224.45230141662157 0.7411717248743961
2.043869103344676 12.168801524923532 24.98117301822747 237.0394534356848 0.7627882893770074
2.0505512935115036 12.10816135126713 23.223350532959735 250.4872161159326 0.785586820369341
2.0561425394713044 12.045448018425366 21.62583750548126 264.8694148244173 0.8096582960276381
2.060619031374658 11.980685753232205 20.17262922873971 280.26748786503026 0.8351019414987764
2.0639571167305646 11.913868859559301 18.849565565614164 296.77051298302194 0.8620231856635281
2.0661387669137286 11.845019676812797 17.64497725545238 314.4782366436076 0.8905411105348612
2.0671585037259046 11.774196244924978 16.547662775584556 333.50068281518986 0.9207843717982485
