M[M_sun], R[km], Lambda[1], P_c[MeV/fm^3], rho_c[fm^-3]
0.24162668629717493 15.618656898711224 2160425.4255784233 3.5677272577965504 0.1711233750220791
0.2536446440091942 15.27726061106635 1723148.4813738642 3.784831198281697 0.17388831754528658
0.26604044716801595 14.981253738558205 1382953.4112202064 4.011425855649315 0.17666695563328888
0.2788161748932273 14.723503711265236 1116389.0753623673 4.24776696185724 0.17945796362825245
0.291971793338271 14.498369326469717 905832.2531821063 4.494479838975285 0.18226791027588854
0.30550796059068835 14.301193655148642 738596.546859953 4.751720347170061 0.1850925068325428
0.31942580114038216 14.128088008509106 605052.8226474081 5.02017039445897 0.18793836375663203
0.33372373090925916 13.975916454322558 497647.34451270406 5.300054518050161 0.19080211345523498
0.34840614810854054 13.841984216931635 410979.88435225317 5.59210083373634 0.1936900423507465
0.3634698533291715 13.723944686759062 340641.3079944681 5.8964772678870805 0.19659722531917348
0.3789243138884303 13.619975059796205 283292.5793481711 6.214047664401608 0.19953133801282566
0.394757018663066 13.5284187332872 236391.28613951942 6.5450684913002855 0.20248854180782108
0.4109830222246099 13.447852345469231 197849.1933563366 6.890244088916604 0.20547258055779632
0.42759233178364964 13.377017336852843 166059.69490558957 7.250278772928484 0.20848651291751405
0.4445881194087448 13.314911285901898 139791.39156544724 7.625430259517799 0.2115258652285732
0.4619705392887378 13.260533501201163 117965.8215094678 8.016650103126226 0.21459683850754488
0.47973642441331965 13.213118805777267 98736.7818974984 8.424642253822837 0.21770106175374726
0.4978947040780083 13.171952102131675 84634.63009580957 8.849845993208453 0.2208359796008378
0.5164337346297415 13.136377231242605 71930.82322725907 9.293137837999168 0.2240050448511863
0.5353535666055845 13.105826332516562 61268.090270819754 9.755401267100547 0.22721115572192904
0.5546606994170419 13.079790312427358 52296.83038334473 10.237446014313083 0.23045566338299323
0.574345150875298 13.057819143418074 44321.656222164725 10.739740714256312 0.2337352316143326
0.5944029319006461 13.039504464332241 38323.36582836642 11.263535225272133 0.23705611269433413
0.6148413289667204 13.024496427870329 32896.35702837406 11.809764927072068 0.2404198912781261
0.6356473745214121 13.01242510614669 28287.976910305977 12.379409017898697 0.24382820066245584
0.6568183812541017 13.003021024985175 24366.396901747314 12.973153203813737 0.2472789534622383
0.6783514393673669 12.995975252192958 21024.437944484678 13.59233100564857 0.2507770096342761
0.7002404120611884 12.991060133471127 18169.11346834094 14.238137186337617 0.2543249705966673
0.7224760518712571 12.987991045836292 15726.385376424743 14.911761685603212 0.2579248214514711
0.7450652521265484 12.986639244151673 13631.744214801942 15.614228750732714 0.2615764033524099
0.7679870314096728 12.986751205832284 11833.937576031776 16.346815634217215 0.2652817209059432
0.7912334206582365 12.988140459534309 10286.891234837842 17.111133451192707 0.26904541215397604
0.8148076199154095 12.990673475193548 8954.476509409875 17.908637578809483 0.2728699103278179
0.8386931521793809 12.994138832965758 7806.26361630382 18.740683446086223 0.27675620668074774
0.8628741203417488 12.99840829520821 6812.812427812996 19.608635608627576 0.28070496044856885
0.8873576153973033 13.003356168679563 5954.167620701136 20.514570728185387 0.2847224457787915
0.9121144614290142 13.008858363817986 5210.151976852781 21.460283365903614 0.2888116768801536
0.9371361475607302 13.014749447160865 4564.451362124058 22.447244934227246 0.2929724717002948
0.9624206401126556 13.0209544106139 4003.7365964416217 23.47750675948159 0.2972088361128822
0.9879416715701238 13.027340987539764 3515.8357568802053 24.553479366579342 0.3015267706192827
1.0136861812381053 13.033802994311179 3091.4473058632498 25.677089760334276 0.3059277914763689
1.039651541366127 13.040260805319852 2720.8267653281023 26.850330460008845 0.3104133884104901
1.0658033529245836 13.046585969841418 2397.6748691155885 28.076284011005278 0.31499218553585195
1.0921379440808558 13.052711898776364 2115.2157296047512 29.356986415728375 0.31966449587864454
1.1186366494570434 13.058547270460977 1867.9973051572383 30.69523228127824 0.32443526885156715
1.1452687482248631 13.06400925122762 1651.6905864462535 32.094382384699365 0.32931229641871285
1.1720335110284286 13.069019437470425 1461.7093955818866 33.55641902792694 0.3342935423244458
1.1988900514373346 13.073469978067422 1295.129372288961 35.085865912641864 0.3393924452475673
1.2258369331687369 13.077339646434448 1148.774800467255 36.68472262431289 0.34460562023929964
1.2528335828383028 13.080496991739702 1019.9393291966367 38.35806542680892 0.34994765135535433
1.2798775615074138 13.082942828132623 906.474437681694 40.108160207347666 0.35541526480001356
1.3069223959014504 13.084522287150714 806.6143625902607 41.940430665953066 0.36102274035491266
1.3339606175747716 13.085238915568556 718.4332314562968 43.8584095030858 0.3667722806256155
1.3609691591346067 13.085035256122719 640.4386016887325 45.86673940250397 0.3726713820199798
1.3879016380685978 13.083767851382555 571.6701412321128 47.970777808568194 0.37873013290856966
1.4147517981779092 13.081461210826738 510.72268708310975 50.1753090976621 0.38495432202008417
1.4414823409640176 13.07802303444686 456.7576253530719 52.485502660166 0.39135065530982077
1.468077123799988 13.07342291787869 408.8950850583531 54.90780145751311 0.39793095888765284
1.4944876316976603 13.067554924308396 366.43718101408217 57.44839676469071 0.40470429613667336
1.5207004156433048 13.060405971074129 328.75522388151893 60.11391809177932 0.41168044072117604
1.5466838491721802 13.051915619967458 295.2109443071977 62.91147263575335 0.41886993507262077
1.5724000447241133 13.0420313859513 265.3956518468832 65.84868850974215 0.42628415365108613
1.5978139354820007 13.0306944931234 238.85004441684055 68.93376213325986 0.4339353715411764
1.6229127454120422 13.017872119438792 215.17582366127488 72.17551021458907 0.4418368390098059
1.6476643626948517 13.003532866954242 194.04636834365175 75.5834268105634 0.4500028627291256
1.6720116696622063 12.987597006009356 175.17884674117542 79.16740069848925 0.45844745248618035
1.6959504345459644 12.970038232069347 158.3226445088839 82.93772814419992 0.46718431191941295
1.7194301339789175 12.950824306955644 143.24025372108153 86.90710041739243 0.4762347856125206
1.7424086343196246 12.92986984571009 129.75049502006473 91.08704832722871 0.4856130201268467
1.764893962737183 12.90722689901921 117.6452966825866 95.49176491771883 0.49534133933396346
1.7868210979037469 12.882787466392367 106.79577211468064 100.13482109611299 0.505436872328387
1.808158453401083 12.85652594941589 97.05876286554039 105.03279749365066 0.5159255265131907
1.8288672850509466 12.828386144154063 88.30351511320467 110.20224052170296 0.5268298469583234
1.8489371613741188 12.798417365879644 80.44471408519526 115.40389606212246 0.537548840931241
1.8609447928882648 12.767987512954434 75.3572614703155 122.29046736262767 1.1764930302444618
1.861458671626114 12.730223224529183 73.0456252168754 130.76156958314832 1.7327329403576275
