M[M_sun], R[km], Lambda[1], P_c[MeV/fm^3], rho_c[fm^-3]
0.24162668629717493 15.618656898711224 2160425.4255784233 3.5677272577965504 0.1711233750220791
0.2536442221340991 15.277300468092488 1723212.816803764 3.7848231804831816 0.173888217607296
0.26604067148904936 14.981254189516791 1382922.0954605767 4.0114090005700325 0.17666675194960293
0.27881632157561737 14.723469714326377 1116421.893458296 4.247740699195121 0.17945765902094885
0.2919702661947868 14.49838888022369 905821.4981107913 4.494443479507233 0.1822675054047732
0.30550526007155754 14.301228682283972 738620.6743671843 4.751672656242287 0.18509199167950335
0.31942194118442296 14.128132209974764 605100.3974012478 5.020111020694621 0.18793774773091074
0.3337201081158299 13.975995152894503 497690.5214731564 5.299981898206976 0.19080138229391222
0.34840183758536364 13.842020588297618 411002.5386118585 5.592014786425307 0.19368920981934146
0.3634649513001287 13.723971938996502 340646.08447473845 5.8963758598266125 0.19659627287320933
0.37891817283190704 13.619992293073995 283283.4204630545 6.213929668306208 0.19953026203051213
0.3947508554977419 13.528431636242686 236413.60618560173 6.5449340296052165 0.20248736276040416
0.41097617604569114 13.447857198422602 197859.2707722082 6.890090565707591 0.20547127308972485
0.42758414299437575 13.37704895441498 166081.89602935838 7.250104747440647 0.20848507324925208
0.44457905495826516 13.314923224072599 139792.26659736765 7.625236212670442 0.21152432049089653
0.4619608667785966 13.260564742836474 117980.94795846757 8.016432650098448 0.2145951563325718
0.47972583122555335 13.213146144526535 99808.79214699967 8.424399698804717 0.2176992380790967
0.4978829065607694 13.171980139906873 84641.89092548446 8.849579230480936 0.22083404812471166
0.516421182843289 13.136410071785491 71937.12478988557 9.292842550274992 0.22400296600719904
0.5353407671773586 13.10583609628236 61274.90926929231 9.755075452080531 0.22720892501983805
0.5546474585562938 13.079818001885581 52299.57235096999 10.237087548022272 0.2304532761373346
0.5743291263097905 13.057858737029411 44727.800999914536 10.73935115420129 0.23373273051810875
0.5943870127751902 13.039520673101876 38328.10225670487 11.263108712698592 0.23705344783605634
0.6148239090880155 13.024519745515692 32900.718147502885 11.80929894212802 0.24041705731218757
0.6356287327536699 13.01242954698655 28290.887428729366 12.378900883515625 0.2438251919610686
0.6567988098757166 13.00301298648642 24370.0190707175 12.972605253439577 0.2472758216025972
0.6783305633736817 12.995977046713344 21027.169571430124 13.591735457793924 0.25077369378337827
0.700219176933795 12.99106363203132 18171.992197560496 14.237490847487988 0.25432146417686347
0.7224527308872669 12.98800151289957 15729.071347264133 14.911061157042887 0.2579211174929064
0.7450402380694422 12.986658630043362 13633.76800842649 15.613477250783985 0.2615725621831616
0.7679625197695337 12.986761176088221 11835.951647225234 16.346002985348157 0.26527767005515035
0.7912055920906764 12.988145689065641 10288.558395729986 17.11025557451591 0.26904114333697077
0.8147806850149084 12.990662818714938 8955.85978173862 17.907690124996737 0.2728654147272226
0.8386628864787663 12.99413963630823 7807.212740410471 18.73967061760978 0.27675155325795003
0.8628458246904879 12.998400858891765 6814.419643753352 19.607544235366984 0.2807000641450417
0.8873255876394806 13.003352697724056 5955.087806439734 20.51339555690291 0.2847172959960185
0.9120824218351631 13.00885021526679 5211.035973659435 21.459018783611665 0.288806262304986
0.937100813718687 13.014736101628722 4565.149225051269 22.445896208936013 0.29296686986328274
0.9623856732189686 13.020950134805235 4004.4374214716477 23.476056964448567 0.297202948064477
0.9879066114631225 13.027337550242127 3516.550894824127 24.55192167712064 0.30152058265853315
1.0136489723062165 13.033796590978321 3091.8177272633884 25.67543020634745 0.30592138693792165
1.0396129320337173 13.040243779307982 2721.3501465448903 26.848548751620573 0.3104066574370306
1.0657634190760596 13.046578217099599 2398.2607448951703 28.074371807325207 0.3149851114629495
1.092095537334788 13.052702297911077 2115.758438378111 29.3549504943106 0.3196571678116027
1.1185948235336918 13.058538343682748 1868.576361639767 30.69304833344584 0.32442756483407204
1.145224921320222 13.063993360637028 1652.0633931852872 32.092057538813 0.3293043084772354
1.1719889931886813 13.06900880633101 1462.0063030278236 33.55392601172083 0.3342851406027905
1.1988440330766257 13.073461952162013 1295.454933979881 35.08319295854282 0.3393836065130012
1.22578950333663 13.077336285597992 1149.0200786610196 36.68187748950863 0.3445964422748385
1.2527857357104717 13.080492702935192 1020.134934400416 38.35503656411789 0.3499381137571069
1.2798279518762248 13.082938883705735 906.6953135774728 40.10491318778659 0.35540521960625077
1.3068718739384535 13.084527188983516 806.6962676836143 41.936973256799014 0.36101228808324476
1.3339096753268271 13.085231600643786 718.563580492583 43.854702937847094 0.3667612627968317
1.3609187923493367 13.085031652952958 640.6111344705928 45.86279144821228 0.3726599019051886
1.3878482299450898 13.083772426968183 571.7745228292797 47.96657160097823 0.37871816068397524
1.4147050680589643 13.081484107269988 510.8014870707599 50.170798510388714 0.38494168285746716
1.4414290531078182 13.07802911233961 456.8615639446539 52.48069485417748 0.39133745487590554
1.468023233520042 13.073431840916996 409.00172850296434 54.902675142574914 0.39791715976978687
1.4944321121534558 13.067567663855188 366.51945836988745 57.44292892594274 0.4046898580298644
1.5206443500645213 13.060423128990353 328.82423697488645 60.10808383531631 0.4116653201905522
1.5466277145089928 13.051936042439666 295.2822753473942 62.90524501879642 0.41885408529234786
1.5723445728553727 13.042053873442004 265.4560632679414 65.84203835368496 0.4262675241172163
1.5977679838246284 13.03072695117392 238.91091574321192 68.92665781766522 0.43391790775560557
1.622854915395457 13.017904696324509 215.22715903627866 72.1679174499736 0.44181848213217884
1.6476066621196195 13.003567628506126 194.08611246452168 75.57530838754084 0.4499835491931479
1.6719563147828298 12.987632953974389 175.2337828921311 79.1587586064322 0.4584272905842832
1.6958929672921192 12.970084387849123 158.35342894934053 82.92847805799708 0.46716305524825946
1.7193735018703682 12.950873251588025 143.2745365921632 86.89719471557294 0.47621235407159745
1.7423547110236013 12.929931415006228 129.77308536075154 91.07648288678652 0.48558951591086164
1.7648375446350804 12.907287040437556 117.67208869344043 95.48043794793465 0.4953164854330675
1.7867651605923922 12.88285256315454 106.81698607909173 100.12272273396097 0.5054107645877355
1.8081041219886453 12.856595944831575 97.08361779841978 105.01986499727958 0.5158980643300392
1.8288141017197022 12.828462644701743 88.32718855083884 110.18840545460324 0.5268009215132531
1.8488941906329972 12.79849682161618 80.46341378260415 115.64598377747784 0.5381427424200214
1.8682709743256456 12.766558710458874 73.38397111120123 121.41279241893031 0.5499527996743867
1.8869496040635774 12.732739752587582 67.00576358368136 127.51026157688652 0.5622609203951395
1.904873949591202 12.696924866660378 61.25454917011878 133.96081970076887 0.5750963600263992
1.9220151782166115 12.659109572954039 56.07266120828099 140.790163689904 0.5884954656638669
1.9383285553577627 12.619221662692295 51.3897352337202 148.02596950140125 0.60249649884624
1.953826034003977 12.57737910513617 47.15715230273312 155.6967401656864 0.617135239586513
1.9684426862022149 12.533450740369766 43.337292979904504 163.83611570626167 0.6324592658852572
1.9821577163978552 12.487453316276858 39.87796248053568 172.47787247830766 0.648510151088391
1.9949477176382795 12.439379871790319 36.744543918690404 181.66129464643294 0.6653410460416773
2.0067847244127694 12.389220219968898 33.90179932658221 191.42838689337563 0.6830063769680501
2.0176320061538315 12.33694867642104 31.327481662986106 201.82518199635564 0.7015653755088416
2.0274696121368176 12.28256448542047 28.991824493552784 212.9016211756111 0.7210806932675844
2.0362804718085554 12.226100913804279 26.868721039133927 224.71320077983464 0.7416226956348428
2.0440252716081537 12.167508072700858 24.941098388898492 237.32106987178295 0.7632684712702812
2.0506851609336207 12.10680441879544 23.186887710451416 250.79209863416216 0.7861006327642035
2.056258532068113 12.044060749706212 21.59256412057822 265.1994154784087 0.8102074362885137
2.0607062603355795 11.979213049177133 20.140742480531994 280.6246863817043 0.8356883348548975
2.0640136198194825 11.912317464903168 18.820801314821644 297.1577035719535 0.8626505037948387
2.0661751612796926 11.843419970593716 17.61779141764061 314.8988376203989 0.891214409972859
2.06716850329301 11.772532075398448 16.523402182846183 333.9574671546574 0.921505826174762
