M[M_sun], R[km], Lambda[1], P_c[MeV/fm^3], rho_c[fm^-3]
0.24162668629717493 15.618656898711224 2160425.4255784233 3.5677272577965504 0.1711233750220791
0.25363972830091586 15.277416010549967 1723273.6551081913 3.7847584136948047 0.17388741032052343
0.2660327331212071 14.9814314497413 1383208.6994406513 4.011272849174329 0.1766651066403369
0.27880379207259154 14.723732925925939 1116630.4769433842 4.24752855833678 0.17945519850668154
0.29195474952254996 14.49863555970445 906120.3697419483 4.494149783854171 0.18226423503551314
0.3054854940506262 14.3014926787453 738877.4698706206 4.751287435101108 0.185087830555973
0.3193971778499682 14.128428381744513 605250.6737057028 5.019631437916476 0.18793277187448554
0.3336910275783727 13.976244634210746 497873.9614002622 5.2993953296375125 0.19079547652171097
0.34836772120390785 13.84225218658335 411174.11397009407 5.591319769078941 0.19368248533532267
0.3634246119198233 13.72427064549127 340803.41483016714 5.895556781508918 0.1965885799163141
0.37887197209673873 13.620292027915916 283451.42130106717 6.212976619279579 0.199521571370935
0.3946994848443911 13.528719526878339 236522.5075918663 6.543848000901736 0.20247783975582756
0.41091805403409004 13.448152508675811 197988.87646387395 6.888850594733437 0.20546071297657534
0.4275193777150041 13.377315026090736 166207.36125625626 7.248699201230982 0.20847344552567015
0.4445095380163923 13.315157615206711 139892.45995966927 7.623668977410568 0.21151184429049896
0.46188337783353667 13.260804589969576 118068.34703633975 8.01467639363126 0.21458157026892574
0.47964099128555787 13.21337372830902 99882.28883844907 8.42244072946098 0.2176845093682207
0.49779117655290916 13.172175513303563 84708.84954731536 8.847424772432944 0.2208184489279151
0.5163230685652586 13.136572868573408 71997.33821885976 9.290457743200559 0.22398617681671965
0.5352335980646955 13.10600099733167 61329.92318420735 9.752444130413513 0.22719090959886595
0.5545333229662561 13.079939739119192 52349.94548519067 10.234192564088776 0.2304339966736744
0.5742055620848159 13.057951816787034 44771.80970954004 10.736205087271445 0.2337125317938896
0.5942567841487837 13.039678642037126 38363.4675873057 11.2596642584687 0.2370319268236961
0.6146856063530395 13.024589782307407 32934.928270337485 11.805535757632335 0.2403941708717191
0.6354779198278019 13.012503604533391 28323.09094647189 12.374797356864935 0.243800894675276
0.6566419237227905 13.003077385055507 24396.779121165175 12.968180228332663 0.24725052997365304
0.6781659121474309 12.99601900459074 21050.818099719352 13.586926109296813 0.2507469166194479
0.7000447099024488 12.99109370205939 18192.71480201231 14.232271395430109 0.25429314839471406
0.7222692184118255 12.988016936374152 15746.982236523569 14.905404165111591 0.2578912068441464
0.7448483589054894 12.986655776966519 13650.395537995142 15.607408705705799 0.2615415438061469
0.7677597198030219 12.986747490744692 11849.961487408254 16.339440722485215 0.2652449588206509
0.7909943437320284 12.988125756532728 10301.538387615488 17.103166668084246 0.26900667238549875
0.8145591083449947 12.990630990947146 8968.188424146827 17.90003946664214 0.2728291129003783
0.8384324654899954 12.994096074962226 7817.930428871344 18.731492137523745 0.2767139773736139
0.8626035401621929 12.998358262174596 6823.494764424041 19.598731616082546 0.2806605274801406
0.8870690741603163 13.003295619142424 5963.5375027217815 20.503906395247775 0.28467571301832795
0.9118210273255276 13.008777582614266 5218.205375898765 21.448807773240155 0.28876254171555094
0.9368292561312289 13.014669566406365 4571.686953891742 22.435005879350154 0.29292163763419643
0.96209726644922 13.02086805963453 4010.139872392426 23.464350681319388 0.2971554053704138
0.9876104877876122 13.027270014742829 3521.5483582771544 24.539344355915365 0.3014706189321193
1.0133499422076326 13.033728979173832 3096.686641141783 25.662030524365996 0.30586967498452217
1.039299756811288 13.040170390701617 2725.5350554177503 26.834162935236833 0.3103523104131803
1.0654438891800138 13.0465071935862 2401.815907391124 28.05893253703525 0.3149279948886377
1.091762790274759 13.05263374547352 2118.942712704365 29.338512479619055 0.3195980010517056
1.1182518607477667 13.05846961387344 1871.4963308552576 30.67541537231215 0.3243653634210856
1.1448730299526362 13.063927138629104 1654.6219221897209 32.07325680580888 0.32923961891703507
1.1716273434485915 13.06894661845548 1464.4126541330247 33.53379812125499 0.33421730753664824
1.19847356840795 13.073404557383082 1297.5294756533424 35.06161257707527 0.3393122460419427
1.2254101334676588 13.077284174605248 1150.8854073638238 36.65890722793228 0.34452234376671326
1.2523982633299047 13.0804584973136 1021.9735303464673 38.33042521811914 0.3498601854989132
1.2794322279194772 13.082907434991426 908.2255248334022 40.078698924253686 0.3553241214324996
1.306468933001847 13.08450881506243 808.1255444549547 41.909060752684205 0.3609279043545799
1.3334968632990354 13.085233213894606 719.8300152684265 43.82477934324919 0.3666723143983432
1.3604988020342885 13.08504126745839 641.8125298143735 45.830919447010515 0.372567222455178
1.387423126844597 13.083801896795208 572.7971053932358 47.93261509995407 0.3786215095206635
1.4142720803574935 13.081528020737176 511.7220084934012 50.13438528578856 0.3848396489893173
1.440998190454017 13.078116295258951 457.67225860315955 52.44188269497189 0.3912308912283864
1.4675804680364195 13.073519678345189 409.7519159961054 54.86129224762881 0.3978057644591433
1.4939847602882723 13.067680735129061 367.1986640052403 57.398789580698555 0.4045733058397788
1.5201928597869199 13.060558417245295 329.4370409360775 60.06098716635553 0.4115432606565194
1.546172686190841 13.052096516510518 295.8351668115897 62.854973624156315 0.4187261405962357
1.5718867195110606 13.042247135143539 265.9833384489361 65.78835679509842 0.4261332867716529
1.5973031865727336 13.030937220527294 239.3569022703614 68.86931095920569 0.4337769380554346
1.6223947474059761 13.018157036469594 215.6307574584483 72.1066286256844 0.44167030534752066
1.6471464756805378 13.00384969552697 194.46141043090444 75.50977737846446 0.4498276524755297
1.671500421522015 12.987954200350693 175.5655858773833 79.0889623208843 0.4582643845119431
1.6954356754974502 12.970442764726645 158.6749772837945 82.85381441029368 0.46699147840329286
1.718899964533365 12.951227359084248 143.56001640096494 86.8172403780558 0.47603129683540363
1.7419149850243099 12.930391667488959 130.0354966858705 90.99120457357641 0.4853998030537879
1.7643944035400894 12.907775385725774 117.90948872688351 95.3890144680347 0.49511588190429595
1.7863214733609099 12.883373439628098 107.02752607863336 100.02507449239197 0.5052000439187786
1.807665002418078 12.857154417195519 97.27437739254248 104.9154858253156 0.5156764149395864
1.8283939764956905 12.829100748133774 88.50523750413062 110.07641225796522 0.5265662334536967
1.84847007307123 12.799155756906126 80.61842068861056 115.52597987454165 0.5378948557667185
1.8678675776548757 12.767302674709095 73.52475638279218 121.28422853573723 0.5496910907216127
1.8865479692984457 12.733508298062423 67.13748701293098 127.37241619535301 0.5619842658142894
1.9044823724150235 12.697741869554896 61.37744498094686 133.81340977009594 0.5748053270528737
1.9216382867619304 12.659985441616534 56.18437677499858 140.6318366567649 0.5881869843945841
1.9379705759217032 12.62018753089008 51.49213900376584 147.8557776336247 0.6021691263209984
1.953470677359823 12.578349494463472 47.25613181157013 155.51420282003 0.6167893130442481
1.9681101221905586 12.534504895236566 43.42184379742157 163.63972381696382 0.6320917922018187
1.9818454121113938 12.48857274019962 39.955528699817656 172.2666290457555 0.6481201131870626
1.9946501324600272 12.440555023961663 36.81450523730594 181.43403081927877 0.6649270818293247
2.0065030567709243 12.390450552527032 33.96930129601665 191.18362751096242 0.6825663700908386
2.0173778461647975 12.338258941538502 31.387458279706074 201.5612998264559 0.7010970106870992
2.0272370463794314 12.28394505234086 29.046652938432253 212.61748431678052 0.7205836128324286
2.0360704615772955 12.227549482410728 26.919402794622126 224.4061806154664 0.7410920039716189
2.0438411484624175 12.169029952144259 24.987208801572347 236.98967128568475 0.7627034062381911
2.050527675858679 12.108399072639573 23.231208266257333 250.43330533529232 0.7854959389791152
2.056122314327546 12.045697924094851 21.632512213208894 264.81108207465746 0.8095612269429765
2.0606036531723184 11.980949190252769 20.178779068758015 280.2042899746825 0.8349980974882445
2.063945178713484 11.91414128158975 18.85410927369006 296.7020738971132 0.8619123020813643
2.066132315265375 11.84530282388842 17.648949366288246 314.4038937090854 0.890422102118821
2.0671562424366154 11.774490787860659 16.55170020901721 333.4199461532541 0.92065685468992
