M[M_sun], R[km], Lambda[1], P_c[MeV/fm^3], rho_c[fm^-3]
0.24162668629717493 15.618656898711224 2160425.4255784233 3.5677272577965504 0.1711233750220791
0.25364443226044414 15.277293233322567 1723127.0431763094 3.7848278464856895 0.17388827576676633
0.26604085292137997 14.981251114178708 1382914.9267482497 4.011418809471143 0.17666687048438406
0.2788167355911414 14.723465010021949 1116379.2999121223 4.247755982878763 0.17945783628864706
0.2919709934916878 14.498400747748835 905896.5653841381 4.494464639063553 0.1822677410213437
0.30550711883152004 14.301186037573247 738597.0937354512 4.751700410176023 0.18509229147495687
0.31942375535230894 14.128112568965122 605100.378389002 5.0201455734840925 0.18793810622943766
0.3337230509617454 13.97593045640081 497675.6417615544 5.3000241595780375 0.1908018077957945
0.34840434605241777 13.841999423503054 410989.35234967154 5.592064861930816 0.19368969431363256
0.3634676457818841 13.723987950846025 340647.7354550416 5.896434874535242 0.19659682715184162
0.37892182824026405 13.619973552032405 283285.1365380315 6.213998336429916 0.19953088820111856
0.39475453349263406 13.52842665196653 236397.82169775837 6.545012279885436 0.20248804890965075
0.4109799575922771 13.44786465284831 197859.20302559546 6.890179908828258 0.20547203397323185
0.4275893457970408 13.377014217268341 166061.25490901925 7.250206021845107 0.2084859110664458
0.44458504110729546 13.314890792413307 139801.97989482048 7.625349138480496 0.21152521945295563
0.4619663918914844 13.260549525473103 117974.44828731232 8.016559197096214 0.21459613527590837
0.47973180025561724 13.213163296002808 98732.22920092722 8.42454085385344 0.21770029936773194
0.4978898054709976 13.171963990715536 84637.6343776521 8.849734473147905 0.2208351721479506
0.516428253282805 13.136407484677626 71930.29135951013 9.293014392982496 0.22400417579057302
0.5353481138960257 13.105833068120598 61270.73386119905 9.755265060048623 0.22721022317635298
0.55465546255392 13.079791125103078 52300.68988850342 10.237296157278395 0.23045466539360163
0.5743388963982876 13.057839201565875 44725.683570341294 10.739577858352678 0.23373418602898482
0.5943966789375514 13.039519636698822 38322.60700455859 11.263356921206961 0.23705499864730828
0.6148342871904574 13.024501815023944 32898.318871621566 11.809570121395192 0.24041870653458458
0.635639570409087 13.012422104462926 28289.27004972407 12.37919659143292 0.2438269428695893
0.6568102197212784 13.003007980804501 24368.289103224808 12.972924132062511 0.24727764418204357
0.6783428893812727 12.995991194368132 20863.770509608592 13.592082035494204 0.2507756234351597
0.7002310721148302 12.991071702895217 18169.94829492723 14.237866982693918 0.25432350472871296
0.7224658852937116 12.988001262431634 15727.984002448768 14.911468827595934 0.25792327300079293
0.7450560720889498 12.986647858810631 13632.92048639372 15.613914583798332 0.26157479753943647
0.7679759844384745 12.986756228305333 11834.703471535271 16.346475903535264 0.2652800274337011
0.7912231007801004 12.988146129752028 10287.760123979268 17.110766451530715 0.2690436275588963
0.8147986452576089 12.990666627772063 8955.156543446557 17.90824149187215 0.27286803092362183
0.8386809741645243 12.994132903704612 7806.371808876662 18.740260028749635 0.2767542612971681
0.8628625389670251 12.998408738289786 6813.286091367003 19.608179354966722 0.28070291352613674
0.8873441902909283 13.003360338769575 5954.6585805940485 20.514079442007827 0.28472029288658635
0.9120999602533773 13.008850379144919 5210.414777169009 21.459754700615992 0.2888094132884866
0.9371214119991688 13.014739625680704 4564.622127698146 22.446681092174384 0.2929701298214102
0.9624060347063854 13.020953481544451 4004.0518932438995 23.476900664208383 0.29720637457988924
0.9879266306270192 13.027336966202812 3516.1217519729566 24.552828164917248 0.30152418370421913
1.0136699765503738 13.033807230930131 3091.5468752030342 25.676395973152808 0.30592511401801975
1.0396357941765275 13.04025365127312 2721.0399700231033 26.84958560482303 0.3104105744817238
1.0657867704474717 13.046579918337947 2397.843192962343 28.075484600762586 0.31498922816975405
1.0921194822098477 13.052710115127233 2115.4641150445887 29.356135283876053 0.3196614323265738
1.118619246477295 13.058543604713773 1868.365960497466 30.694319265176723 0.32443204812810705
1.1452500996843071 13.064006364931169 1651.8794892968954 32.093410464463055 0.3293089569965112
1.172013799079613 13.069013289230902 1461.8228511307693 33.55537680191408 0.33429002991532447
1.1988722663485436 13.073466653676181 1295.2326309567143 35.084748461192454 0.33938875013856584
1.2258173039649725 13.077336985580077 1148.8704972119715 36.68353319044435 0.3446017833097601
1.2528143137081993 13.080495753479118 1019.9999704486858 38.35679918300784 0.34994366407501515
1.2798574669609002 13.082935647073263 906.5654659798915 40.10680275991633 0.3554110653111549
1.3069016485391758 13.084526069855242 806.6118498033624 41.938985262139674 0.36101837068020703
1.3339385169032394 13.085240184588109 718.4763625428686 43.85685993577519 0.36676767451019116
1.3609481289677416 13.085034296440982 640.5169438798558 45.86508891885039 0.37266658263771646
1.3878795195206755 13.083769890971368 571.7219089876622 47.96901935812276 0.3787251277909618
1.4147363114416307 13.081480774802285 510.74293759761207 50.17342339628656 0.38494903807702135
1.4414601356158185 13.078028813785268 456.7981228436276 52.48349270165048 0.39134513671680354
1.4680544678792382 13.073426330822272 408.9438255781201 54.90565834100029 0.3979251900034314
1.4944643440678906 13.067559345274594 366.4678819858941 57.44611086829352 0.4046982601107666
1.520676099266061 13.060411898986938 328.76264966025843 60.11147900802083 0.41167411939456
1.5466604578805005 13.051924829020978 295.2346986815766 62.90886910056304 0.4188633088685712
1.5723764708662342 13.042041115502672 265.41720288876104 65.84590832429305 0.4262772014551237
1.5978008397184635 13.030711461811267 238.87959711713367 68.93079207784126 0.4339280705689331
1.622888090801201 13.017887686935461 215.19292903524098 72.17233595361012 0.4418291646614891
1.6476399814157883 13.003547210472627 194.06087246806987 75.58003278767237 0.44999478842910046
1.6719891296645544 12.987614857135288 175.1957549685551 79.16378774545473 0.4584390235080857
1.6959262438897278 12.970059428447811 158.33926624328936 82.9338610066137 0.46717542524850275
1.7194069605142779 12.950844281312287 143.25223489109945 86.90295918577858 0.4762254077604399
1.7423889600670202 12.92990119368494 129.7637124235133 91.0826312779237 0.48560319381800043
1.7648703520060804 12.907253115620113 117.65646274846674 95.48702949415338 0.49533094875729217
1.7867983831274705 12.882815360127996 106.80998529533689 100.12976317484691 0.5054259575537264
1.8081357474944493 12.856554895728303 97.0672034028569 105.02739084363716 0.5159140454805543
1.8288449434365834 12.828416946191735 88.31553575415336 110.19645653103291 0.5268177541724187
1.8489241627819775 12.798448441610942 80.44982219007173 115.65463645546801 0.5381606158669394
1.8683010202133947 12.766506900099476 73.37385014293501 121.42206244231927 0.5499716700449221
1.8869786135925535 12.732684881678933 66.99706791189992 127.52017309854966 0.5622807690682146
1.9049013567618953 12.696866175156746 61.24723191128407 133.97144892889702 0.5751173454230702
1.9220413646330572 12.659047522198877 56.06347974633584 140.80158030672342 0.588517709574951
1.9383553721061746 12.619155582728574 51.38267930618309 148.03824188038269 0.6025201053777998
1.953850794234364 12.577309645017701 47.155779242035955 155.70990297822843 0.6171601844338961
1.968466165326967 12.533375866061236 43.33063627566104 163.85024872449932 0.6324856664807788
1.9821802421650088 12.487372391219177 39.870805497677246 172.493105843476 0.6485382778315927
1.9949691312075657 12.439293975687454 36.73878151337262 181.67768358435774 0.6653708987193528
2.0068044445497413 12.389130705058834 33.89705377079622 191.44603783997857 0.6830381082864495
2.0176502462899335 12.336854076967912 31.322482513277606 201.84421236340378 0.7015991525331612
2.0274851365677304 12.282466795199118 28.986131688609483 212.92211262824225 0.721116541837998
2.0362946519183223 12.225997891577341 26.86485153904552 224.73534300128227 0.7416609689917466
2.044038290333806 12.16739945419544 24.937796667236693 237.34497074124843 0.7633092244482911
2.0506966965668534 12.106689749146014 23.184188979610692 250.81793084365057 0.7861440985335297
2.0562689450119964 12.043939911197821 21.590379179802444 265.22742380044247 0.8102540437636271
2.060713569568058 11.97908792024224 20.13860840332851 280.6549772825012 0.8357380189823498
2.064018698995579 11.912189846642384 18.818701994339865 297.1905670778286 0.8627037485628759
2.0661787455165412 11.843284421005496 17.616423108176605 314.9345376500316 0.8912715586986454
2.0671686293187435 11.772393113305286 16.521189918074732 333.99623918752826 0.9215670635035933
