M[M_sun], R[km], Lambda[1], P_c[MeV/fm^3], rho_c[fm^-3]
0.24162668629717493 15.618656898711224 2160425.4255784233 3.5677272577965504 0.1711233750220791
0.2536415186266182 15.277366648045554 1723220.3884458381 3.7847946789638596 0.17388786234960726
0.2660364905356762 14.981348778541856 1383138.0143278488 4.011349084861506 0.17666602790362523
0.27881084487366026 14.723592332251961 1116481.3814819541 4.247647342434253 0.17945657622320843
0.29196291106226585 14.498523735606865 906026.9675312041 4.494314232126452 0.18226606620519145
0.30549662713984255 14.301349094515164 738749.2862484438 4.751503129911032 0.18509016047157992
0.31941152212428287 14.128252522410772 605182.901850003 5.019899966837482 0.18793555796568362
0.33370809866766604 13.976071364578646 497759.30518425425 5.299723760617879 0.19079878327671773
0.34838651329519094 13.842145256848017 411076.55486576824 5.5917089208034545 0.1936862504853093
0.3634467333325624 13.724111598440022 340732.3377858022 5.896015394798324 0.1965928873093811
0.3788988743975231 13.620099151960584 283366.3878958376 6.213510242050493 0.19952643736808212
0.39472763151535256 13.528600857630888 236459.83509431183 6.544456077797731 0.2024831717687338
0.4109504899805973 13.448002253062528 197919.69624502372 6.889544861960755 0.2054666256476211
0.4275561282718474 13.37715884675391 166130.48959403197 7.249486171333351 0.2084799559276439
0.4445486518154452 13.315017388416672 139845.94277405433 7.624546474070065 0.21151882972813707
0.4619243999590711 13.260689371697811 118013.00614234962 8.015659718917622 0.21458917708500008
0.4796889026393391 13.2132417157565 99840.42321282944 8.423537548328184 0.21769275591277742
0.4978425137522613 13.172078046059854 84671.73147199463 8.848631039744014 0.2208271828186456
0.5163776514144761 13.136475952116339 71963.17590021646 9.291792975400137 0.22399557693464672
0.5352933732673572 13.105930160727395 61297.425889329046 9.75391737726676 0.22720099622665826
0.5545976836287757 13.079876512750147 52320.52626019923 10.235813425108919 0.23044479097576862
0.5742744466198585 13.057901314448856 44748.26754496896 10.737966519325122 0.23372384073329755
0.594328388525977 13.039577726267582 38345.723811091004 11.261592744126473 0.23704397603698432
0.6147634406256451 13.024533513900522 32638.64271588453 11.807642685007067 0.2404069845054882
0.6355610359644275 13.012456272357879 28306.436977147052 12.377094824355003 0.24381449815076361
0.6567300411294735 13.003040025062992 24381.370839066552 12.970657685898292 0.24726469010516888
0.6782586634912329 12.995991424838206 21037.789380977898 13.589618727662733 0.25076190839711376
0.7001414952050867 12.991067741307836 18180.732106783606 14.235193606197868 0.2543090015307477
0.7223716816337825 12.988015311386405 15736.625021250635 14.908571326899153 0.25790795282238793
0.7449564694816969 12.986643733027588 13641.116265681596 15.610806269903074 0.26155890990063
0.7678722140618299 12.986750593204372 11841.550040355894 16.343114685478252 0.2652632726047095
0.7911137631112949 12.988130404262316 10294.253482163818 17.10713546117658 0.26902597128236067
0.814684522620573 12.990653172362697 8961.073304928028 17.904322742795706 0.2728494367394581
0.8385618753265301 12.99411901469815 7811.2188484172475 18.736070901692727 0.2767350144258542
0.8627397375071149 12.998387426481743 6818.545416175262 19.603665384107813 0.28068266218570526
0.8872098114168439 13.003322390522264 5958.756328203704 20.509218903221708 0.2846989932519871
0.9119664861086402 13.008815083645251 5214.182150616174 21.454524382224502 0.28878701857976635
0.9369816004300467 13.014710691193757 4567.970310468685 22.441102780981886 0.2929469606925253
0.9622563432189951 13.020905017444003 4007.0592468132377 23.47090436066358 0.2971820218095184
0.9877770671665331 13.02730861735887 3518.6452338334816 24.54638564705818 0.3014985906391719
1.0135164041733529 13.033760909906759 3094.036562551519 25.669532178024312 0.30589862531072654
1.0394750100257948 13.040213934497459 2723.2356842925146 26.84221662668785 0.3103827358092576
1.0656243039702522 13.046549592567116 2399.7357707425817 28.067575948371974 0.31495997062561554
1.091949168130453 13.052667855596068 2117.162088762427 29.347714985502687 0.31963112442251923
1.1184438244590562 13.058506094865832 1869.8134104877204 30.68528679819475 0.3244001855155389
1.1450707812211383 13.06395841202462 1653.1842822194105 32.08379530736529 0.32927592026377817
1.1718292376436794 13.068977800362543 1463.1632574188368 33.54506617859349 0.3342552820516643
1.198680765409457 13.073445341568464 1296.3202469532055 35.07369371198646 0.3393521950798909
1.2256242989146098 13.077309556124279 1149.8346263711192 36.67176639342813 0.34456382544404685
1.2526155375359191 13.080480633481567 1020.9184503774026 38.3442103017345 0.3499038536218158
1.2796537651932616 13.082926396339483 907.3652965276165 40.09337400356692 0.3553695212252675
1.306694511651478 13.084512625487797 807.3379369019885 41.92468646203738 0.3609751432412391
1.3337284311804982 13.085235833644584 719.1301521149312 43.84153079264032 0.36672210836914526
1.360733362777831 13.085039705263155 641.0949795365337 45.84876155001564 0.3726191048670504
1.3876613629864458 13.083784768481177 572.2410099829438 47.95162403070478 0.3786756150737963
1.4145142376167577 13.081504087494448 511.1919991197092 50.154769382655736 0.384896767475113
1.4412363777310315 13.078061066260242 457.20716508795465 52.463609612193686 0.39129054520270506
1.4678293625532397 13.073469398922162 409.3379670784961 54.88445814369967 0.3978681228850705
1.4942357056599846 13.067613482701981 366.82138205935775 57.42349840082057 0.4046385507382638
1.520445544542874 13.060483757723077 329.06845808131743 60.0873513393792 0.4116115881783046
1.546427575956891 13.052006360753834 295.52609450373114 62.8831148290392 0.41879776219998766
1.5721426230609414 13.042138039690876 265.68038567909537 65.81840680462352 0.4262084305196926
1.5975656488970782 13.030823885372389 239.11226794715884 68.90141256963808 0.4338558500397912
1.62265341996071 13.018021637690895 215.4099190632472 72.14093668211457 0.4417532512605587
1.6474037295191764 13.003693374371654 194.25349567978265 75.54645990679427 0.4499149193411122
1.6717538339026932 12.987776841984711 175.36844189647354 79.1280494764382 0.4583556465353425
1.695691160692786 12.97024459261533 158.49190883114775 82.89560870538618 0.4670875215716907
1.719155391558956 12.951011473420111 143.40190888983773 86.8619959619009 0.47613264621264656
1.742160837458808 12.930128978685307 129.89511777269504 91.03894007992508 0.4855059969846054
1.7646413009226938 12.907498480573063 117.77302576090395 95.44018947872124 0.4952281713045668
1.7865711038449352 12.883080834109279 106.9107959549574 100.07973355858256 0.5053179958123014
1.8079115600071505 12.856843020990352 97.16735366943395 104.97391222626176 0.5158004835244621
1.8286256842342958 12.82872949290109 88.40350548294457 110.13916201809832 0.5266978296422377
1.848707354929086 12.79878633497327 80.52974900638155 115.5931513741374 0.5380336089057808
1.868098697787375 12.766903511395627 73.44321314794136 121.35619098096585 0.5498375798888041
1.8867739216944657 12.73307730739607 67.06572921340374 127.44957337026017 0.5621391196486801
1.9047008309589895 12.69728495520515 61.30795277908422 133.8959200910307 0.5749682280456261
1.9216642938020392 12.65969084691032 56.163880174075 140.75226649203455 0.6718117234527544
1.9340580047352938 12.621070894629032 52.22087017848451 148.53367210173707 0.9678249051534665
1.9407747878052681 12.577898488062083 49.328743988052864 157.4796723217508 1.2629810818085934
1.9425257348984115 12.528679046209186 47.15339462315021 167.6630417598143 1.5578416079807165
