M[M_sun], R[km], Lambda[1], P_c[MeV/fm^3], rho_c[fm^-3]
0.24162668629717493 15.618656898711224 2160425.4255784233 3.5677272577965504 0.1711233750220791
0.2536442546207609 15.277257407188348 1723229.508300514 3.7848255497741725 0.17388824713936524
0.2660405684335786 14.981263596547413 1382920.254694269 4.011413981306969 0.1766668121388694
0.2788160908640768 14.723487577018693 1116366.173733348 4.247748459898889 0.17945774903341744
0.29197089871149406 14.498393909460395 905796.3227453493 4.494454223839946 0.18226762504541158
0.3055062665663225 14.301208431658623 738615.0147013542 4.751686749041351 0.18509214390862974
0.3194231809256171 14.128125581250199 605088.7000567382 5.020128565786952 0.18793792976801546
0.33372105782594647 13.975938272087289 497660.72905104794 5.300003357526811 0.19080159835365548
0.3484031113072171 13.84200984184651 410995.8421173666 5.592040213567404 0.19368945583393601
0.36346667733798166 13.723948334180347 340629.61790658435 5.8964058260702 0.19659655432251064
0.3789195589160717 13.619989909903204 283295.20630631223 6.213964536307226 0.19953057998469761
0.3947515886185496 13.528450059707813 236394.04174928894 6.5449737631778735 0.20248771117015896
0.4109773408243234 13.44788927448013 197861.39667050276 6.8901359319352125 0.2054716594475565
0.4275865282114335 13.377068868932735 166081.199940188 7.250156172059702 0.20848549867194655
0.4445821614961778 13.314927840925806 139791.8489362133 7.625293553563486 0.21152477696127522
0.4619637031983446 13.260554989461502 117977.16992253289 8.016496907464939 0.21459565341525147
0.479728947223354 13.213145910319371 99802.41373979674 8.424471373743636 0.21769977697443763
0.4978862829383015 13.171981168457238 84639.15540616214 8.84965805872795 0.22083461887490075
0.5164232849193579 13.136412954346945 71933.53169505046 9.292929807565173 0.22400358030396178
0.5353443878481466 13.105834167024508 61275.154731874216 9.755171730076249 0.22720958418995965
0.5546513863471286 13.079810796211293 52303.86473352322 10.237193474339426 0.23045398156528485
0.5743340933952481 13.057834110811786 44325.591790909675 10.739466268596447 0.23373346958818364
0.5943916956371985 13.039544680068747 38323.61842376848 11.263234746394225 0.2370542352968674
0.6148289774322685 13.024497952474064 32898.913848550765 11.809436639715999 0.24041789474326583
0.635633969129594 13.012450972777698 28290.70330176247 12.379051036042904 0.24382608102532438
0.6568047151177714 13.00301065591174 24369.39235531211 12.97276717137899 0.24727674705914132
0.6783370545464452 12.995973707597662 21026.39983356894 13.59191144051259 0.2507746736080072
0.7002254656473437 12.991061841352185 18171.847141563365 14.237681838634678 0.2543225003131556
0.7224554717858928 12.988032496399228 15728.408447322241 14.911268160900091 0.25792221200033016
0.7450480148224283 12.986654757657071 13633.001574040552 15.613699316354571 0.2615736972350565
0.767969539113965 12.986761026409829 11835.552888025393 16.346243119995936 0.2652788670661417
0.7912131107426574 12.988152024013887 10288.062646777566 17.11051498350289 0.2690424047550312
0.8147903276227965 12.990673096094586 8955.591361190038 17.90797009349558 0.2728667431577309
0.8386727540181839 12.99413421898902 7806.944792998848 18.73996990382124 0.27675292832323684
0.8628519790616882 12.998418804270752 6813.473522272154 19.607866730917106 0.2807015109791878
0.8873343047473318 13.003359799602217 5954.798553345741 20.513742814053668 0.2847188177306962
0.9120912542810087 13.008854302955086 5210.790328275825 21.459392460924484 0.2888078622830274
0.9371114188142069 13.014742367326853 4564.870001348974 22.446294749763716 0.2929685251749863
0.9623960072226497 13.02094776120808 4004.2073790641402 23.47648537043227 0.29720468794846866
0.9879172605220187 13.027333238087156 3516.3095701584507 24.552381964855122 0.3015224111631934
1.0136593547565238 13.03379487344252 3091.6792841902275 25.67592059406366 0.30592327943856185
1.0396257259212938 13.040241890162221 2721.2163329209643 26.849075234699423 0.3104086463952989
1.0657757873803775 13.046581361452102 2397.9990519344465 28.07493685037021 0.31498720180287254
1.0921076114108226 13.052701174600978 2115.6149415179507 29.3555520946379 0.31965933320339646
1.1186060433707745 13.058541217519064 1868.5174257089093 30.693693673909273 0.3244298413143738
1.1452388236802509 13.0639965889005 1651.9736901162855 32.092744513076326 0.32930666885313997
1.1720014985432698 13.0690122741257 1461.9035839725545 33.55466267831268 0.33428762324515854
1.1988578870407987 13.073467125770266 1295.378930287611 35.08398279457793 0.3393862182866443
1.2258039298576044 13.077338264740447 1148.9586680415578 36.68271820285149 0.3445991542859429
1.2527999628215005 13.080499681642562 1020.0783173529087 38.355931566767744 0.3499409320346505
1.2798441886657903 13.082934940235285 906.6467271071825 40.10587265291344 0.3554081878708166
1.306887214099243 13.084523791828538 806.6718695884828 41.937994889297116 0.36101537663306316
1.333924375716579 13.085232475711884 718.5228148327478 43.85579819251206 0.36676451846012
1.3609324679127908 13.085031567827574 640.5701721552678 45.86395803001828 0.3726632941666123
1.387864204910874 13.083771923504788 571.7521092732057 47.96781449299524 0.37872169835586994
1.4147211818171452 13.08148241673211 510.7753450357225 50.17213134206674 0.3849454175987101
1.441444174974018 13.0780297625884 456.8203443312367 52.48211550958254 0.3913413554633743
1.468039324488799 13.07342857532248 408.9679871744587 54.90418991254708 0.3979212372581265
1.4944485555908076 13.067564630103362 366.4948621450356 57.44454461090528 0.4046941243283297
1.5206608229371386 13.06041559768643 328.7944348531324 60.109807790901066 0.4116697881331904
1.5466445044675783 13.051928685621055 295.26141413290696 62.90708520602277 0.4188587687151403
1.5723603275513305 13.042047704138477 265.4380882321529 65.84400339419892 0.42627243794292224
1.5977847214945105 13.030718777483449 238.89375411762703 68.92875705460608 0.43392306808714054
1.6228716648647683 13.017895727255862 215.20894390891928 72.17016101510872 0.44182390635546503
1.6476236955615509 13.003557031513612 194.07716630454988 75.57770727538471 0.44998925609047885
1.6719725861627253 12.987623211739889 175.2033469612655 79.1613122292221 0.45843324815703673
1.6959096696248346 12.970069875500839 158.34912683652632 82.93121133176892 0.46716933630342655
1.7193901643102305 12.95085876494662 143.25991181788856 86.90012171130196 0.4762189822768144
1.742371380844903 12.92991366837262 129.75874887036952 91.07960482278277 0.48559646106931
1.764854768620475 12.907269771314029 117.66584312144478 95.48378490073854 0.49532382939485753
1.7867823303039077 12.88283238854689 106.8150472388087 100.12629761791567 0.5054184790322178
1.8081200300433005 12.856574207193116 97.0746983626964 105.02368635099558 0.5159061789826649
1.8288298135793088 12.828439513289158 88.32124886386855 110.19249349927827 0.526809468527217
1.8489099651208605 12.798471081844104 80.45515977522595 115.65037729113419 0.5381518179031504
1.868284884308473 12.766533150821203 73.37937851387824 121.41749939562308 0.5499623813540186
1.8869645227052547 12.732711316778518 67.00252017167985 127.51529789825649 0.5622710117408156
1.9048881163387665 12.696894883996391 61.2519357139904 133.9662168261993 0.5751070156277914
1.9220290431052944 12.659077251880127 56.06864015236744 140.79596061867807 0.5885067602855794
1.9383423008576448 12.619189732614128 51.38719375718584 148.03220095041564 0.6025084853484531
1.95383844540662 12.577344386928196 47.156624294725596 155.70342373955077 0.617147905628021
1.9684550812640684 12.533413045554832 43.33393661086219 163.84329190956265 0.6324726710926619
1.9821696909883313 12.487412307643577 39.87590493438352 172.48560739053752 0.6485244327581057
1.9949595495636674 12.439336594186168 36.741719595673764 181.66961630872356 0.6653562040649261
2.0067952203631165 12.389174981952856 33.90012644358229 191.4373493487886 0.6830224888816345
2.017641366660918 12.336900213635827 31.322718598962293 201.83484486090083 0.7015825261402463
2.0274777524653054 12.282515106743531 28.988220007456764 212.912025914999 0.7210988957366478
2.036287724990993 12.22604877480702 26.867205877574467 224.7244437057353 0.7416421292999182
2.0440322680436203 12.167453041836158 24.939456209405158 237.3332057600281 0.7632891640745609
2.050691729276599 12.106745238861764 23.185665582578533 250.8052151690955 0.786122702896533
2.056263882340638 12.043999423029364 21.591196275187748 265.2136369428969 0.8102311016316718
2.060709857268617 11.979149114042482 20.14010050927094 280.6400668341893 0.8357135623767419
2.0640147627993874 11.912252959606775 18.81952606911818 297.174390272602 0.8626775392398308
2.066176578468387 11.843351537834405 17.61736432251304 314.91696457325895 0.8912434276590906
2.0671679354682566 11.772457568937622 16.521762461598232 333.9771539239549 0.9215369198542993
