M[M_sun], R[km], Lambda[1], P_c[MeV/fm^3], rho_c[fm^-3]
0.24162668629717493 15.618656898711224 2160425.4255784233 3.5677272577965504 0.1711233750220791
0.2536447738389906 15.277275403777342 1723271.9214803763 3.784834409103285 0.17388835756662874
0.2660408226880836 14.981256173732003 1382891.798362028 4.011432605477979 0.1766670372009848
0.27881661883556097 14.723492596533239 1116422.0533804079 4.247777479092265 0.1794580856123296
0.29197264759267655 14.498380899979315 905858.9516079989 4.494494399640401 0.18226807241227397
0.3055089889887877 14.30117696045315 738603.2023278865 4.751739445717443 0.18509271313330466
0.3194266660754004 14.128077456145972 605036.4195420839 5.020194171618664 0.187938610453841
0.33372700859068233 13.975889442646638 497652.57196890126 5.300083599867867 0.1908024062608838
0.3484078744728119 13.841969647284726 410970.81826724706 5.592135292868628 0.19369037575233075
0.36347334773576345 13.723882773169331 340636.45048740273 5.896517878574559 0.19659760674334442
0.37892606695343356 13.619949259085132 283272.99118247523 6.214094918156753 0.19953176891017535
0.3947594449836503 13.528407335142441 236378.65003305816 6.545122339107846 0.20248901398034855
0.41098586445358865 13.447817407545758 197831.63692438926 6.890305570393603 0.20547310415985415
0.42759506729854446 13.37701843249323 166068.7263045181 7.2503484650871055 0.20848708946288175
0.44459096790886393 13.314903680959995 139780.16771927732 7.62550796977879 0.21152648385221823
0.46197436546366083 13.26052279800939 117967.5419718222 8.01673718705743 0.21459751217215708
0.47974060215279885 13.213124550677993 99797.0233278173 8.42473939058389 0.21770179208639567
0.49789839592279816 13.171954283804327 84629.30926826253 8.849952824676151 0.22083675310630954
0.5164380350833622 13.13637713195932 71925.74257000213 9.293256093190543 0.22400587737510594
0.5353586620069005 13.105814142703583 61266.22751885782 9.755531747926817 0.2272120490627332
0.5546665379753252 13.079799513255262 52296.37321478593 10.237589571417875 0.23045661941730933
0.5743511797600949 13.057814759746917 44721.91951755569 10.739896723901946 0.2337362332445833
0.594409859624003 13.039498464200502 38321.00349795221 11.263706033833861 0.2370571799093188
0.6148484744308447 13.024495538914477 32895.01820462635 11.80995154374668 0.24042102621887076
0.6356538426252548 13.01241794196477 28286.202454920054 12.37961251485028 0.24382940558300625
0.6568261554508422 13.003002682496623 24365.611276186788 12.973372646542765 0.2472802077068907
0.6783591620633975 12.995969207581414 21023.02923342097 13.592569510596174 0.2507783375659251
0.7002495779846571 12.991047833723483 18168.569430287815 14.238396032511565 0.254326374849794
0.7224837314343077 12.988002435050854 15725.25345596974 14.91204223419757 0.25792630481764306
0.7450747777621087 12.986639153956505 13630.84942672524 15.614529712852299 0.26157794167112913
0.7679967447568476 12.98675697676392 11833.261456642183 16.347141085943136 0.2652833432011708
0.7912430763596747 12.988152628998145 10286.510876895421 17.111485026139068 0.26904712174388695
0.8148205520192268 12.99066676598377 8953.92747199775 17.909017018906994 0.27287171074394934
0.8387034679387259 12.994145288317675 7805.597392087038 18.74108906827654 0.2767580703048377
0.8628859089313524 12.99841780882986 6770.285640519499 19.609072687569096 0.28070692134612824
0.8873702385544643 13.003363243297237 5953.812189051118 20.515041367842592 0.2847245081947432
0.9121276312373264 13.008852877395585 5209.710978205007 21.460789814328574 0.28881384534564836
0.9371487582493516 13.014746413491826 4563.89304381971 22.447785081593416 0.29297471516494056
0.9624346394238965 13.020963987399718 4003.48403993115 23.478087385050266 0.29721119420583725
0.987956579418759 13.027346952271628 3515.599425080094 24.55410320371535 0.30152924882807464
1.0137008595938555 13.033808577869127 3091.0853272062427 25.67775439405344 0.3059303564258924
1.0396662601679612 13.040260218760144 2720.5978830933723 26.851044016589448 0.3104160840987618
1.0658194075125738 13.046584941923319 2397.514860903483 28.07704983109242 0.3149950186373584
1.0921525886311427 13.052720771447733 2114.984807178917 29.357801784874464 0.31966743070693127
1.1186532977239452 13.058551758633769 1867.8115672648617 30.696106935406295 0.32443835425068
1.1452871727915428 13.064010595314674 1651.5638074022784 32.095313468844026 0.3293154955321258
1.1720511596727952 13.069013289383278 1461.610804754238 33.557417465023605 0.3342969071604048
1.1989081323684128 13.073481253364708 1294.9989642056605 35.08693641582573 0.33939598511138225
1.2258562181708568 13.077338171112764 1148.673641937343 36.68586208673898 0.3446092959687012
1.2528537832365034 13.080495278373132 1019.8202876923621 38.35927847332374 0.34995147112253894
1.2798973530461433 13.08294385132013 906.4078998272182 40.109460627408616 0.35541928786523985
1.306941607302607 13.084522807631739 806.5407075999597 41.94181534864454 0.36102692646046747
1.3339805025852218 13.08524260872848 718.3493930614662 43.85989397520868 0.36677669324447715
1.3609901445096881 13.08503170695993 640.409891046061 45.868320553221245 0.37267597979148254
1.3879222604600754 13.08376971062971 571.6038420960373 47.97246239239122 0.37873492777792545
1.4147734556951077 13.081461430296436 510.6408930366857 50.17711558934806 0.38495938400886776
1.4415047528896692 13.078021118784006 456.73465476163256 52.48742819158919 0.3913559420976746
1.4680998522694193 13.073417254385006 408.87070259177244 54.9098545559661 0.39793648545944654
1.494510018768653 13.067549473825345 366.4014675706058 57.45058664824975 0.40471007863578895
1.5207220173873226 13.060399264657251 328.72929238594327 60.116254731158335 0.4116864965446578
1.5467066377015015 13.051909387154842 295.1859139137061 62.91396682233002 0.418876282975755
1.5724227326449753 13.042021916514589 265.37237609284665 65.85135193044454 0.42629081386242534
1.5978352933542017 13.030684184028125 238.81998802226488 68.9366074530837 0.433942365889136
1.622934277743313 13.017861815846183 215.15895352923286 72.1785511676128 0.4418441910621022
1.6476869129225749 13.003519071634644 194.0269878350908 75.58667830043132 0.4500105979464666
1.6720345314289407 12.987581994752663 175.16723529878914 79.17086192825147 0.4584555274956166
1.6959723908214333 12.970021612645828 158.30650988632345 82.94143288921263 0.4671928254126622
1.7194527032047855 12.950804864047937 143.22650095779088 86.91106775188742 0.476243769673186
1.7424273434271822 12.929829065717511 129.7371926259486 91.09127990245986 0.48562243382414916
1.764916248382682 12.90720212733391 117.63427646794268 95.49630150510475 0.4953512936196589
1.7868429145797824 12.882763286169315 106.78654679490043 100.13966664601001 0.5054473288148464
1.8081800847192848 12.856497659099137 97.05051125253075 105.03797713676333 0.5159365254961974
1.8288937279160833 12.828365794441039 88.30089560004818 110.2077816697853 0.5268414320249751
1.8489668524638996 12.798379918697922 80.43198567733967 115.66680787748301 0.5381857578247875
1.8683422598649504 12.766433748490169 73.35746049959972 121.4351022951362 0.5499982144066844
1.8870172709104258 12.732609786773807 66.98054411110773 127.5341050196323 0.562308652705219
1.904940798970515 12.696783687882823 61.23323289701759 133.98640080581808 0.575146865070629
1.9220789433982477 12.658959005178435 56.05166667389689 140.81763982825055 0.5885489996300133
1.9383915028899932 12.619061022723765 51.37202052673744 148.05550523394916 0.6025533122972903
1.9538861314489577 12.577209125338426 47.146213667745 155.72841893840368 0.617195274031902
1.968500436816727 12.53326876614057 43.32534423453824 163.87012951465275 0.6325228039620062
1.9822124771895715 12.487261285963271 39.86467218406262 172.51453454868923 0.6485778435928028
1.9949978190984774 12.439172470596972 36.73075051111185 181.70073789598084 0.6654128924676405
2.006832362043103 12.389004479657457 33.89115736916454 191.4708674941149 0.6830827448534773
2.01767641162289 12.336720706926501 31.317238464694938 201.87098253800005 0.7016466669524095
2.027509728741063 12.282328128443003 28.980716343675176 212.95093821049832 0.7211669704695751
2.0363157363132234 12.225849754086099 26.859846660406987 224.76649084646837 0.7417148087836758
2.044056987543406 12.167246220540694 24.93278485676842 237.3785926166905 0.763366552834478
2.0507128347175305 12.106528698313907 23.179416783333032 250.8542697009659 0.7862052429892663
2.0562820792078056 12.04377071572069 21.58627802902976 265.26682400241765 0.8103196079888173
2.0607257286635625 11.97891074751378 20.135836755920682 280.69758860789995 0.8358079114737029
2.0640268442898715 11.912006577029636 18.814197124114223 297.2367975588723 0.8627786502257958
2.0661831562855264 11.84309373982269 17.612844939769754 314.984758589022 0.8913519525442706
2.067170178844587 11.772191020552853 16.518166361365918 334.05078187469456 0.9216532093211334
