M[M_sun], R[km], Lambda[1], P_c[MeV/fm^3], rho_c[fm^-3]
0.24162668629717493 15.618656898711224 2160425.4255784233 3.5677272577965504 0.1711233750220791
0.2536438710180232 15.277271770785836 1723198.0319484707 3.784816491017261 0.17388813422633043
0.2660396169373381 14.981258766933399 1382994.9192771856 4.011394937960812 0.1766665820112697
0.2788143402390583 14.723538433440373 1116445.1798642005 4.247718787665325 0.1794574048802232
0.2919679055115833 14.498457945755852 905886.8937705731 4.494413144063856 0.1822671676125707
0.3055048883353759 14.301188489489121 738683.924756238 4.751632866836414 0.18509156187798068
0.31941849313598625 14.128188933085358 605132.1437442363 5.020061484209595 0.18793723377075927
0.3337169841529981 13.976008121989796 497691.1052137898 5.299921310461084 0.19080077227584433
0.3483982363453753 13.842049991199955 411019.5841032168 5.5919429961278215 0.19368851522846445
0.36345932079310245 13.72403146096938 340656.3791292726 5.896291254084852 0.19659547823817825
0.378913866306377 13.620016683175397 279404.04988529725 6.213831223248743 0.19952936433012364
0.39474505708517765 13.528483924935003 236404.11867296032 6.544821847425187 0.202486379074236
0.4109707496785995 13.447878378487745 197871.89195977701 6.889962480707246 0.20547018226411315
0.4275773369866094 13.377076911626956 166090.64456563184 7.2499595576627 0.20848387213142808
0.44457228141196276 13.314946097646528 139813.29851994498 7.625074319387671 0.21152303171626863
0.46195295993751095 13.260602555857 117987.1038604421 8.016251229472285 0.21459375289735616
0.4797168471438597 13.213169879467388 99813.86706644009 8.424197336118576 0.21769771659459478
0.49787405941266144 13.171995486729875 84649.75836404743 8.849356671863495 0.2208324367052294
0.5164120930219982 13.136410234118838 71942.95886618247 9.292596193993086 0.2240012316436159
0.5353294226573738 13.105859211200407 61281.14787413693 9.754803627744693 0.2272070639665499
0.5546366118581001 13.079801503324777 52302.52024045374 10.236788483741886 0.23045128448589258
0.5743168528438696 13.057851156115168 44734.038996687144 10.73902614940289 0.23373064388662915
0.5943735978119237 13.03952902623807 38330.718059895604 11.262752879724209 0.23705122458519312
0.6148094574085934 13.024524391958584 32903.97255680028 11.80891017884945 0.24041469298281665
0.6356139377307197 13.012433804866328 28294.424264230373 12.378476956656616 0.24382268185867978
0.656782005095082 13.003036065929868 24373.235767343165 12.972148109741767 0.24727320875668113
0.6783131027051691 12.99598246631954 21029.316534959875 13.591238605638953 0.25077092744369406
0.7002004171834995 12.991067053939451 18173.15021176146 14.236951622787936 0.2543185388565488
0.7224349628081905 12.988003157407901 15731.085912145247 14.910476724535172 0.2579180273779346
0.745020809838628 12.986651951717004 13635.28637154177 15.612850295383037 0.2615693576030279
0.7679412087721951 12.986759479643833 11837.538974574476 16.345325016670678 0.2652742905513335
0.7911847052294688 12.988136655240398 10289.712217080589 17.10952318991529 0.2690375819986642
0.8147569757617947 12.990668437042489 8957.055564202099 17.906899696232706 0.27286166419925567
0.8386400414697711 12.99412070724912 7808.231149015062 18.738825650566394 0.2767476710715834
0.8628211483817824 12.998402446785803 6815.31686871392 19.60663374330053 0.2806959793413568
0.8872960425783333 13.00333618869592 5920.315818543647 20.512415157559893 0.2847129997340841
0.9120541480689647 13.008839084034493 5211.818731360693 21.45796379464893 0.28880174514775864
0.9370720891604647 13.014732245297122 4565.576720983885 22.44477102507839 0.2929621964901207
0.96235116713839 13.020929697067162 4005.0756516105475 23.474847465299487 0.29719803592905536
0.9878761441945518 13.027327358332043 3516.9221901636547 24.550622169589566 0.3015154203320174
1.0136171557473024 13.03377991433772 3092.174958540564 25.67404572068391 0.30591604394110916
1.039580021708108 13.040242505633971 2721.783744689293 26.847062362054807 0.31040104212490466
1.065730566863638 13.046568314818744 2398.643795704499 28.07277655602091 0.31497920993470646
1.0920619069973194 13.05269590576406 2115.912630769909 29.35325203515549 0.31965105440150354
1.1185587974874858 13.058537606763537 1868.8614566457288 30.691226388404388 0.32442113780487924
1.1451886657980457 13.063985930785158 1652.3366351396487 32.090118054369476 0.329297644599719
1.171951161801116 13.069004085044524 1462.3020892382149 33.551846237806124 0.33427813155026426
1.1988058965283674 13.073456552338671 1295.5843953330875 35.08096307898668 0.3393762329058308
1.2257517524056383 13.077322753458787 1149.2410297829008 36.67950397528349 0.3445887856853603
1.2527455074716298 13.080492406797783 1020.314089250562 38.35250511104136 0.349930129759297
1.279786805013016 13.082930189587278 906.8194640634271 40.10220441981118 0.3553968395830757
1.3068301261003508 13.084520764116078 806.8718392022488 41.93408898142399 0.36100356848182025
1.3338664655326526 13.085235216399337 718.7125437117235 43.85161081742736 0.3667520714158173
1.3608745648512892 13.085032761432721 640.7158429723472 45.859497961796954 0.3726503248940792
1.3878039232579873 13.083781045408799 571.8722998934027 47.96306268107177 0.3787081731652175
1.4146605322902963 13.081489713912363 510.8950358409622 50.16703568042654 0.3849311389932407
1.441382727048819 13.078037344527516 456.93494559350097 52.47668408757048 0.39132644281350715
1.4679782366620528 13.07344137893316 409.0845474814124 54.89839868003825 0.39790564830174313
1.4943865938446943 13.067581554477114 366.59250892607486 57.438367569663505 0.4046778135362009
1.5205974706433554 13.060437127071008 328.8939515741214 60.103216820157684 0.4116527064406735
1.5465803636222153 13.051952686874385 295.3358647570156 62.900049870650456 0.4188408632272838
1.5722964119664617 13.04207458323128 265.5103866031168 65.83649073354314 0.42625365161012746
1.5977205833761419 13.030749834601899 238.96057369731685 68.9207313498003 0.4339033393481909
1.6228074609567147 13.017932424390892 215.2696724788754 72.16158353243185 0.44180316874435466
1.6475597755254598 13.00359703333851 194.12495723251214 75.56853598291677 0.4499674378030418
1.6719085969798724 12.987665532073686 175.26339846019332 79.15154937374332 0.45841047152689907
1.6958468625202796 12.970122755849166 158.3908027869627 82.92076165991648 0.46714532298794403
1.7193262710416135 12.950915302423862 143.30211119987203 86.8889314301924 0.4761936417958243
1.742312547208323 12.92997755091645 129.79916810063887 91.0676692745735 0.4855699088678617
1.7647921570791447 12.907335118488838 117.6963532709072 95.47098910431977 0.49529575256035224
1.786720225443343 12.88290321020336 106.84486970750392 100.1126304315714 0.505388985837021
1.80805911645049 12.856654545100403 97.10248241435055 105.00907690251583 0.5158751557881956
1.8287700981824777 12.828524435838679 88.34422353789947 110.17686448417753 0.5267767924140807
1.8488501548790357 12.798565675580882 80.47827884338086 115.63358046428954 0.5381171214550287
1.8682380982281297 12.766662549535987 73.39122503646828 121.39950419599691 0.5499257497220847
1.8869082163844324 12.732819155582968 67.02117582451962 127.4960138391647 0.5622323252992165
1.9048318431491886 12.697010327469847 61.267295421309434 133.94558318539606 0.5750662784141573
1.921975715820196 12.659199551908314 56.08446970383857 140.77379853404193 0.5884635801168933
1.9382913612101542 12.619320037296449 51.40015271272381 148.00837770316954 0.6024626601470948
1.9537895949595279 12.577482657994299 47.16946870405424 155.67787202846026 0.6170994825777422
1.968408441248618 12.533561913571926 43.34617837196316 163.81585689045886 0.6324214222489751
1.9821254462496156 12.487569812561556 39.88627397186099 172.45603645151624 0.6484698332524225
1.9949168901264778 12.439501474241432 36.75123353830321 181.6378022516633 0.6652982543188639
2.006756012884202 12.389349073780615 33.908036051522075 191.40308557531557 0.6829608924851299
2.017605608902503 12.337084623081195 31.332078827762643 201.79790346877635 0.7015169588131932
2.0274449090080937 12.282706510052188 28.99565666797883 212.87224838641322 0.7210293073302009
2.0362581206831245 12.226252367934045 26.873998740152587 224.68146186018805 0.7415678341566372
2.044006330462972 12.16766502407417 24.945931382453562 237.2868101985239 0.7632100553802273
2.0506691254556153 12.106968760921736 23.19137291264877 250.7550706920328 0.7860383288411907
2.056245136917318 12.044232198847105 21.596584559345732 265.15926844578485 0.8101406292937342
2.0606953060125552 11.97939255865454 20.14464212283955 280.58126765988936 0.835617118045502
2.064004968211083 11.91250417279821 18.824361701339836 297.1105974824542 0.8625741834893281
2.066170458285269 11.843615045747269 17.621259494342738 314.847665903746 0.8911324941191997
2.0671669801387207 11.772733665464576 16.525332185784322 333.9018923101066 0.9214180501470811
