M[M_sun], R[km], Lambda[1], P_c[MeV/fm^3], rho_c[fm^-3]
0.24162668629717493 15.618656898711224 2160425.4255784233 3.5677272577965504 0.1711233750220791
0.2536449024768342 15.277268708626314 1723104.940638775 3.78484359261831 0.17388847203471325
0.2660422112749956 14.981233731184505 1383091.454636655 4.011451911221131 0.17666727049949732
0.27881985914458 14.723423122558113 1116401.9232799236 4.247807560373408 0.17945843450985932
0.2919747579993874 14.498348837326999 905842.7613982956 4.494536045987407 0.1822685361540135
0.3055124113515381 14.301175654963073 738565.4687044402 4.751794071415442 0.18509330319509776
0.31942983899102834 14.12804734942489 605032.9970144946 5.020262179234229 0.187939316059101
0.3337316033052231 13.975791573413078 497615.6055425608 5.300166780087006 0.19080324374766958
0.34841273214112845 13.841885844226814 410927.8477238069 5.592233853556323 0.19369132935409733
0.36347806694423584 13.723870204927916 340631.8399508524 5.896634034306768 0.1965986977025625
0.3789324847972938 13.619907967793917 279330.60054810526 6.214230074845236 0.19953300137643507
0.39476668981357166 13.528370880475418 236360.8875750348 6.545276356609087 0.202490364505767
0.4109940886502954 13.447780541582738 197824.94030340822 6.890481422361451 0.20547460178900576
0.4276041083964304 13.376969641103338 166045.79201143002 7.250547802007428 0.20848873852613792
0.4446019326377258 13.314833283354227 139768.3885060453 7.625730240874337 0.21152825327305863
0.4619829466961126 13.260500616562098 117941.92739446196 8.01698626973263 0.21459943902802445
0.47975284445487265 13.21308124663221 99794.15613894742 8.425017227520893 0.21770388103175303
0.497912272372556 13.171914114737083 84620.37988503919 8.850258391586364 0.22083896554129817
0.5164532420083742 13.136336239170149 71920.98636169398 9.293594335709805 0.2240082586235285
0.5353737326969633 13.105790944893615 61257.159921446175 9.755904959874062 0.22721460426927664
0.5546834348989108 13.079757338752753 52289.21571220584 10.237997245694112 0.2304593161436219
0.5743678382680147 13.057817175199624 44714.627940371945 10.740342957097221 0.23373909819992272
0.5944276083334431 13.039517787387247 38316.20526057523 11.264194597205782 0.23706023246210775
0.614866430293228 13.024493131142707 32890.59195828187 11.810485324067871 0.24042427249381643
0.6356746488593348 13.012429679199345 28282.239380968473 12.380194579016102 0.24383285202812296
0.6568480784262252 13.002994324964103 24361.975672703873 12.974000321584672 0.24728379524003996
0.6783819377082885 12.995965323704857 21019.95384401132 13.593251710881237 0.25078213587433995
0.7002737904027553 12.99105413348069 18165.07413181147 14.2391364166293 0.2543303914697671
0.7225117539433323 12.987991980053776 15724.30180912696 14.91284469583984 0.2579305477348359
0.7451024307842923 12.986639116814606 13628.488868453294 15.615390565298764 0.2615823417778095
0.7680262333055111 12.98675035649126 11831.37609094361 16.34807198866786 0.2652879835177751
0.7912740309567449 12.988140766487055 10285.823347054058 17.112490652121007 0.2690520117625036
0.8148503177596059 12.990672238835623 8952.108238047256 17.91010235097824 0.27287686056702243
0.8387373669773018 12.99414773667776 7804.263055818874 18.742249292186763 0.2767634009333892
0.8629194890699818 12.998422457528632 6810.794598394647 19.610322891440426 0.28071253022243653
0.8874062156252054 13.003378282123954 5952.690238712492 20.5163875701529 0.28473040746199896
0.9121653378198996 13.008860529722687 5208.88055117596 21.462238445740496 0.2888200479658494
0.9371862244841357 13.014768970482725 4562.856950662492 22.449330107031756 0.29298113232100736
0.9624745106723401 13.020967063944553 4002.693135560743 23.47974819675904 0.2972179392556618
0.9879988726630127 13.027365919947222 3514.8603552736845 24.555887620672564 0.30153633746954317
1.013744958436915 13.03380729126142 3090.518228284145 25.679655508219078 0.3059376931915915
1.0397105002562628 13.040270307929584 2720.0346428714297 26.853085073581564 0.3104237948445458
1.065865060768795 13.046599155678997 2396.98455370845 28.079240387126063 0.31500312245665363
1.0922007528751787 13.052734894799885 2114.7452960481946 29.360134075215726 0.31967582552012624
1.1187019312213915 13.05856034562079 1867.4032999053286 30.69860881038628 0.3244471797767894
1.1453356198570042 13.064014960122938 1651.0724459422997 32.09797676171831 0.329324646344118
1.17210160762931 13.069025222300763 1461.2328962305967 33.56027342184589 0.33430653202935734
1.1989604272442964 13.073488875854592 1294.6953252665887 35.089998519114644 0.33940611065682064
1.2259096527080293 13.077347540357847 1148.4165699248842 36.68912144914587 0.3446198101672874
1.2529084932709427 13.080511310257586 1019.5671119062098 38.3627483247512 0.3499623973520413
1.2799528704791612 13.082948011996633 906.1966694630546 40.11318041434275 0.3554307956433136
1.3070060259856908 13.084549489883967 806.3081058234649 41.94577617199872 0.3610389006295293
1.334039050724336 13.085237052679496 718.1090138875139 43.86414025164215 0.36678931537404985
1.3610495983881132 13.085029712209078 640.2535389092046 45.87284338380931 0.37268913156845257
1.3879892246158847 13.083781739634675 571.4498917875765 47.977281099465856 0.37874864337377234
1.4148335996934844 13.081458547601724 510.5114997230768 50.18228302313973 0.384973863727815
1.441566880548341 13.078012111351919 456.6014078554327 52.49293614738918 0.39137106488064866
1.4681620912281546 13.07340771874743 408.7638680736105 54.915727427653394 0.39795229417381583
1.4945735226623234 13.06753246502456 366.30760732495884 57.45685080589836 0.4047266194632287
1.5207860458920843 13.060380969044411 328.64940273214506 60.1229386979977 0.4117038192533738
1.5467703036341944 13.051885359585588 295.1053334159305 62.92110146936488 0.41889444121968833
1.5724885945770328 13.041994206099657 265.29533440850975 65.85897069070211 0.42630986551033556
1.5979014624835224 13.030653420101226 238.7601437864886 68.94474655769383 0.43396237338679794
1.6230102704862082 13.017838265347146 215.0855480101358 72.18724990619789 0.4418652218312362
1.6477525881767265 13.003477724058806 193.9612424214601 75.5959793085936 0.4500327248244664
1.6721007505153629 12.987533099891845 175.12538879286467 79.18076292568338 0.4584786264093505
1.6960371143420803 12.969972397826457 158.2576976551185 82.95203049950871 0.46721717869025736
1.7195171222289085 12.950748948263909 143.18641938195591 86.92241654225144 0.47626946909964946
1.742498419232416 12.929801900532697 129.69335116663694 91.10338459623445 0.48564936231222
1.7649798451490555 12.907136820324213 117.59497605743888 95.50927874139546 0.49537976857375676
1.7868907606923685 12.882658415647652 106.75486998199068 100.15352772540234 0.5054772404228293
1.8082425319912787 12.85641797046703 97.02269188162953 105.05279395326494 0.5159679890370958
1.8289461543086059 12.828262516459032 88.27336789590892 110.22363264336438 0.526874572194247
1.8490267235629716 12.798285496989914 80.41388618399913 115.68384339808384 0.5382209473318427
1.868398369338023 12.766334345871398 73.3343016062175 121.45335336358674 0.5500353668937793
1.88707419598845 12.732501083299498 66.96113453757371 127.55360472154842 0.5623476798147397
1.9049947278292025 12.696667960939068 61.214111657766466 134.00732815877365 0.5751881821632487
1.922134208064364 12.65883334950506 56.03774352719329 140.84011757939805 0.5885927948371054
1.9384436285952094 12.618928035010011 51.358218047710075 148.07966802772998 0.6025997906333016
1.9539357271816729 12.57706721889027 47.134458107894154 155.7543350482004 0.617244387654206
1.9685451835981043 12.53311822585333 43.311207215231256 163.8979560329213 0.6325747841293864
1.9822574333670722 12.487103452922659 39.852930822982174 172.5445277664046 0.6486332227899236
1.9950399028960224 12.439003010798668 36.721655222210664 181.73300656643107 0.665471670298296
2.0068727817459573 12.38882645435059 33.882680110353334 191.505621225015 0.6831452220523248
2.0177141549488917 12.336532831408963 31.30862502204132 201.9084525548836 0.7017131725362654
2.027542791947844 12.282136377750994 28.9729325893396 212.99128533618367 0.7212375553520698
2.036345653674448 12.225644406163926 26.852189911636955 224.81008864794674 0.7417901686214476
2.0440832050634588 12.167031129374402 24.926593633284657 237.4256535466244 0.763446796043106
2.050735627241206 12.106304102591666 23.173973263253938 250.90513386474814 0.7862908280032358
2.056300778689742 12.043534925184558 21.58155988713353 265.3218772738661 0.8104110664690635
2.060739186030277 11.978664475242937 20.130620662654287 280.75723306514914 0.8359057422657173
2.064036541747431 11.91174688400729 18.81043066666938 297.30150821408813 0.8628834930821728
2.066185367712783 11.842821672701913 17.60931978648745 315.05505524106513 0.8914644836579043
2.0671719913346975 11.771916128163234 16.51391294100357 334.1271283052118 0.9217737924096254
