M[M_sun], R[km], Lambda[1], P_c[MeV/fm^3], rho_c[fm^-3]
0.24162668629717493 15.618656898711224 2160425.4255784233 3.5677272577965504 0.1711233750220791
0.253643911965016 15.27731115988641 1723151.9158518882 3.784818235988434 0.1738881559765543
0.2660397562942923 14.981275674394734 1382967.245579552 4.011398606239447 0.17666662634025213
0.2788148605495753 14.723545831646108 1116430.5721517191 4.2477245033560385 0.1794574711736221
0.29196928843719616 14.498427511015771 905881.317463837 4.494421057151719 0.1822672557266406
0.30550404194880526 14.301244131133641 738656.0529595913 4.751643246008475 0.1850916739928479
0.31942140540420993 14.1281320383718 605141.0270645675 5.020074405922296 0.18793736783851586
0.3337178502193447 13.975983843349278 497658.6458990337 5.299937114908451 0.190800931400405
0.34839917486008914 13.84204204953713 411014.7702175754 5.591961722770464 0.19368869641388353
0.36346109924126657 13.724009022695713 340657.3629365605 5.896313323643156 0.19659568552014023
0.3789148807608623 13.620009784106378 283307.08937628684 6.213856902795679 0.1995295984966715
0.3947472923462726 13.528448553609504 236407.56807709322 6.544851110299644 0.2024866356701128
0.41097161548659905 13.447903144333031 197875.74789248663 6.889995891826648 0.2054704668072264
0.427578988668205 13.377073451999735 166078.32795093398 7.249997430552103 0.20848418544413613
0.4445737739386012 13.314941570135852 139807.63886570293 7.625116549371117 0.21152336789409065
0.4619540711613659 13.260586439021594 117982.72321413866 8.016298553139862 0.2145941189841844
0.4797195063297318 13.213183121553968 99816.67366458256 8.42425012249159 0.21769811347432583
0.4978760388567562 13.17199418363973 84645.09193846404 8.84941472631111 0.2208328570442349
0.5164139126323003 13.136418388505083 71942.25958623338 9.292660456014309 0.2240016840522516
0.5353322431692064 13.105848994011817 61279.323381736365 9.754874533050579 0.22720754942180638
0.5546377809414862 13.07983877811717 52300.96703953448 10.236866494518994 0.230451804007236
0.5743207419333118 13.057857357038097 44732.86648356006 10.739110926694979 0.23373118818310507
0.5943769260238484 13.039527144028048 37996.862558972505 11.262845698454083 0.23705180451829705
0.6148131396549382 13.024507986137523 32902.21476836701 11.809011587342702 0.24041530971565198
0.635617048403982 13.012454263981114 28293.80862612416 12.378587537447297 0.24382333661574682
0.6567862670191492 13.003043321226198 24178.478266301983 12.97226735502557 0.24727389031382452
0.6783185409532868 12.995975218725397 21029.463045023043 13.591368208717483 0.2507716490389126
0.7002056903370459 12.99106866475495 18037.52514104167 14.23709227856756 0.254319301921018
0.7224394661858569 12.987998389110261 15731.070972951187 14.910629172571198 0.2579188334281668
0.7450259618537386 12.9866487626253 13634.548508693073 15.613013835325077 0.26157019351073124
0.7679464575815358 12.98675454167391 11837.236185944243 16.345501863177436 0.26527517208681506
0.7911904822722233 12.988140714368846 10289.44755923988 17.109714230537314 0.2690385109645173
0.8147629928280016 12.99066858055435 8956.739581762102 17.90710587736365 0.27286264251397935
0.8386463026207038 12.994133301868528 7808.05367667703 18.73904605771477 0.2767486837283884
0.8628269657254747 12.99839283153101 6815.262457710473 19.606871242271225 0.28069704484945557
0.8873010237059111 13.00334416192122 5955.655965323908 20.512670891421095 0.28471412039951605
0.9120619140174683 13.008838547334546 5211.667656342944 21.458238984743282 0.2888029234320512
0.9370813975460563 13.01473542223757 4565.8212496106535 22.445064525071526 0.2929634155219986
0.9623593458388943 13.020932389810682 4004.744587561941 23.47516295836849 0.29719931724015075
0.9878844431288794 13.027324523693157 3516.8066361028546 24.550961140716137 0.30151676690338614
1.0136250465499934 13.033791370657253 3092.056699194036 25.674406857767057 0.30591743763866414
1.0395898582275533 13.04024103661975 2721.6537826902477 26.84745008001249 0.31040250685353254
1.065739173812469 13.046564085809917 2398.525164614954 28.073192669725035 0.3149807493202381
1.0920706825941975 13.052693218633856 2116.010120065196 29.35369506984008 0.3196526490543434
1.1185678639925503 13.058536410741619 1868.7453036489499 30.691701633373977 0.32442281426230457
1.1452002853519847 13.063985091477617 1652.296686603678 32.09062395854111 0.3292993828366232
1.1719604852879644 13.069001892063833 1462.1907271165217 33.55238873527338 0.3342799598226628
1.1988155528582876 13.073466332231934 1295.4915155903022 35.081544730171856 0.3393781562686142
1.2257617349585983 13.077325511935566 1149.1971670711123 36.68012309230312 0.34459078286102834
1.2527571124576224 13.080495494287774 1020.2346183427002 38.353168817021555 0.3499322322343434
1.279797253246116 13.082938437194525 906.7739076619072 40.10291098462802 0.355399025458571
1.306841140380535 13.084522798985102 806.8424769205383 41.934841325667215 0.3610058429324472
1.3338781304817608 13.085235703283368 718.6806764808103 43.85241737593645 0.36675446892482766
1.3608853307303002 13.085034458945996 640.6827730499404 45.860357044593535 0.37265282299015406
1.3878157156482274 13.083775017060248 571.8658071111555 47.963977957467044 0.3787107783372961
1.4146721520198964 13.08148655472648 510.86374579376246 50.16801718647543 0.3849338892813539
1.4413956262362817 13.078035850336493 456.93091122566324 52.47773026519068 0.3913293152252833
1.4679893155087071 13.073439420273415 409.04889110323137 54.8995141614755 0.3979086509771573
1.4943981702420297 13.067576174615075 366.56955443829725 57.43955736237618 0.4046809552444805
1.5206096125020063 13.060431615910558 328.86930457385415 60.10448634040972 0.41165599663197205
1.5465930677354491 13.05194895335706 295.3211464366632 62.901404980456824 0.41884431208947703
1.5723093004998212 13.042071415689831 265.4972426231639 65.83793778133997 0.4262572701312782
1.5977328551646024 13.030744553974474 238.951533308854 68.92227721525947 0.4339071393853008
1.62281978662757 13.017925234989127 215.26052408473913 72.16323567588884 0.4418071630990856
1.6475721568484896 13.003588064592305 194.1240721840986 75.5703024999424 0.44997164030518233
1.6719211906495688 12.98765773608192 175.25780577194917 79.15342983164436 0.4584148586136683
1.6958591547417123 12.970112366146038 158.38171950214038 82.92277440491178 0.46714994827008116
1.719338467886465 12.950903461171679 143.29303407596296 86.89108682301001 0.4761985227000827
1.7423244052804256 12.929965279633622 129.79177150664836 91.06996821239237 0.4855750231583001
1.7648044660456843 12.907323783709389 117.69200105157401 95.4734537328567 0.49530116050568707
1.7867304533314938 12.88288875338466 106.83691549033128 100.11526289682433 0.5053946665828305
1.8080713977665366 12.856639367880645 97.09560935819255 105.01189085469758 0.5158811312215519
1.8287813621179918 12.828508105867334 88.34117636090669 110.17987481234081 0.5267830862094994
1.8488616365220585 12.798547943644781 80.47407154961653 115.6368157206256 0.5381238043782178
1.8682488162484185 12.766643677579658 73.38721749926471 121.40297026669057 0.5499328053718439
1.886919185011161 12.732798144749955 67.01559099760415 127.4997301833704 0.5622397839723842
1.9048422787455195 12.696988141560558 61.26449824263264 133.94955743581716 0.5750741248184823
1.9219868771991422 12.659175655253653 56.08182747536 140.77806717076155 0.5884718970445036
1.9383011973822637 12.619294890762252 51.39789550302917 148.01296628777408 0.602471486517878
1.9537991842162163 12.577454440587262 47.1665066397578 155.6827935233104 0.6171088093031318
1.9684167447867005 12.533533902489877 43.34354790545756 163.82114111842188 0.632431293230725
1.98213411568535 12.487538452954722 39.88360034818381 172.46173206501626 0.6484803495800048
1.994923428918079 12.43947110885278 36.748299611063075 181.64392989702662 0.6653094159098578
2.006763900595475 12.389315556358113 33.907237362561226 191.4096850428586 0.6829727564270807
2.0176127415744216 12.337048513539353 31.3310784479789 201.80501865174529 0.7015295875611082
2.0274520200325736 12.282669592979031 28.99453655190204 212.8799098150851 0.7210427105412937
2.036263776201579 12.226211645769233 26.872993766695664 224.68974044427478 0.7415821438863163
2.0440113693828943 12.167623673899259 24.944845181486496 237.29574626759734 0.7632252921988788
2.0506729702825717 12.106926044131926 23.18962064993482 250.7647288037801 0.7860545797645785
2.056249565282569 12.044187275798839 21.59615381606297 265.16974010201875 0.8101580547380978
2.0606985979543966 11.979345894087656 20.144026655198395 280.59259266223853 0.8356356936852258
2.064007424450731 11.912455511067309 18.823669071971892 297.12288424841023 0.8625940902517333
2.0661716004137265 11.843563871332817 17.620197287431782 314.8610130911053 0.8911538603409721
2.0671667862793583 11.772681913801545 16.52503606208596 333.91638794613175 0.9214409448462796
