M[M_sun], R[km], Lambda[1], P_c[MeV/fm^3], rho_c[fm^-3]
0.24162668629717493 15.618656898711224 2160425.4255784233 3.5677272577965504 0.1711233750220791
0.25364213026206517 15.27733981874354 1723104.8278866815 3.7848049839802584 0.17388799079666536
0.2660381792126412 14.981287150158849 1383119.8050301254 4.011370747926071 0.17666628968897582
0.2788119413779305 14.723625918779991 1116452.2155053597 4.24768109630156 0.17945696771720318
0.2919651165860648 14.498523632787188 905979.6056136892 4.494360962378158 0.18226658655738973
0.305499684072917 14.301307304289915 738699.4564286963 4.751564423086103 0.18509082255485046
0.3194151727384922 14.128221707829397 605157.8557968233 5.019976274282446 0.18793634968487707
0.3337120703715099 13.976016660101857 489760.7238899384 5.299817091095805 0.19079972295976716
0.3483922860768387 13.842051021987649 411030.2490392056 5.591819507178285 0.19368732043890705
0.3634541705961765 13.724043582797117 340680.0111922459 5.896145721302049 0.19659411136348412
0.37890543426985696 13.620078852838823 283337.1054485774 6.213661885580126 0.19952782017448167
0.39473602628035137 13.528532390650218 236441.2333872856 6.544628880750115 0.20248468701718084
0.41096002713652463 13.447926535285875 197901.66873585887 6.889742159957141 0.20546830592015122
0.42756461668525686 13.377168149502618 166106.1568356542 7.249709815501388 0.20848180607853098
0.4445593643890606 13.314986858661774 139827.86772854425 7.624795846134848 0.21152081489011845
0.46193852665255414 13.260629326873179 118003.25297670197 8.015939168082376 0.21459133885021442
0.4797020253743566 13.21322178152643 99829.91585773625 8.423849253340105 0.21769509949871146
0.4978574392882129 13.17203915852395 84660.75989883562 8.848973851179148 0.22082966491990802
0.5163940040080113 13.136442230228806 71953.5523009746 9.292172440430061 0.22399824839211427
0.5353106957516675 13.10589150607207 61290.93513932191 9.754336068333759 0.22720386280732904
0.5546155065091742 13.079857261240612 52312.79686124018 10.236274070948607 0.23044785869736242
0.5742952697402546 13.05787212841743 44740.55798649026 10.738467118373116 0.23372705473425187
0.594349703916814 13.039556167137166 38002.14097661083 11.262140823818937 0.23704740044882106
0.6147836905795656 13.024553048245561 32910.65779960248 11.808241482581932 0.24041062619381506
0.6355826067499656 13.012458958455623 28301.39743871815 12.377747778989672 0.24381836434360665
0.656754815829637 13.00304424333813 24377.60213005851 12.97136179915837 0.24726871452782825
0.6782841989367412 12.995991691094142 21033.355496629312 13.590383996899103 0.25076616921119393
0.7001703959203538 12.991056959858769 18041.365398783135 14.236024133939733 0.2543135071842812
0.7224022109624962 12.987999962849946 15734.684271751063 14.90947147924104 0.25791271226713447
0.7449869929773294 12.986645567742675 13638.488308832362 15.611771911693797 0.26156384562092866
0.767905456123432 12.986751763625433 11839.466643146878 16.344158891802117 0.26526847771133794
0.7911475520309378 12.988127305332041 10293.404154606764 17.108263471747918 0.2690314564157926
0.8147197464015189 12.99064857731436 8959.461867028573 17.90554014467611 0.2728552132243322
0.8385988969691947 12.994123347424589 7809.810821013112 18.737372295597964 0.2767409936574895
0.8627776928720194 12.998394019940667 6816.94411409916 19.60506768889493 0.28068895344289774
0.8872498794069188 13.003335555619465 5957.512952115185 20.510728866898273 0.28470561014694135
0.9120094993086533 13.008822351174993 5213.270627058979 21.45614921483294 0.2887939756424653
0.9370250945403985 13.014719629643137 4566.976646755389 22.4428357146904 0.2929541583125676
0.9623016826535941 13.020920839734176 4006.2316064609226 23.472767139163967 0.2971895871064939
0.9878237500445898 13.027317239543564 3517.9711578186816 24.54838703658075 0.3015065412096408
1.0135639694606435 13.033771625925883 3093.438977984948 25.67166443230186 0.3059068540906326
1.03952421854159 13.040228779668718 2722.5264080150705 26.844505808626067 0.3103913839264083
1.0656743375732602 13.046550315300586 2399.320476063552 28.070032771405568 0.31496905948232534
1.092002020457435 13.052681740336459 2116.7015325929756 29.350330743296 0.3196405395444917
1.1184983894207043 13.05851844100865 1869.3600429240637 30.688092714705462 0.3244100835678493
1.1451277697854438 13.0639752092307 1652.8064421384045 32.08678222589705 0.32928618302165363
1.1718863405120814 13.068996725245887 1462.7346799034683 33.54826912885036 0.33426607632426797
1.1987406580530273 13.073444226485881 1295.9925706362392 35.07712780794093 0.33936355070422686
1.2256839038336576 13.077321665522181 1149.5871733971521 36.67542167108528 0.344575616803944
1.2526774268244878 13.080480612382356 1020.6287184509561 38.34812880870623 0.3499162665928801
1.2797151098168325 13.082930222329882 907.1121285680719 40.097545526702255 0.35538242652423235
1.3067581212785306 13.084519772240276 807.1310527025014 41.929128241276715 0.3609885714128062
1.3337940318283033 13.085228372565432 718.8844703924556 43.846292617281286 0.3667362629746126
1.3608008297648095 13.085033754970306 640.9305772925065 45.853833444192574 0.3726338532463522
1.3877297427597275 13.08378442657231 572.0737805958447 47.957027653443866 0.37869099552843916
1.4145836636859124 13.08149910659636 511.054274625793 50.16056397329928 0.38491300455667327
1.4413061375826293 13.078049478695323 457.04051989144426 52.469785973734254 0.39130750317741275
1.4678982990471228 13.073459329111998 409.20094820724864 54.891043618398086 0.3978858497985868
1.4943064149455032 13.067597009203531 366.6980745008124 57.43052254540221 0.40465709834992275
1.5205167604965473 13.06046094813388 328.9918485890698 60.09484612327191 0.41163101226603327
1.5464996689894674 13.051981084409217 295.4322092233843 62.89111485238888 0.4188181228954426
1.572215731763963 13.042108124446404 265.59835437941945 65.82694953828877 0.4262297926768518
1.5976381903452201 13.030790729016301 239.0365354008768 68.910538619635 0.43387828364062603
1.6227192507550652 13.017950509740395 215.3390429501527 72.15069008128481 0.44177683186183947
1.6474776939120366 13.003647680425976 194.195955587783 75.55688843681338 0.4499397285668891
1.6709198195957005 12.987682333948449 175.90389363181606 79.19722774539477 0.5835027979691302
1.6877208212821082 12.966612805305946 162.7506928842706 83.39378419087829 0.8256592999535154
1.698320597585789 12.937260221196393 153.14562454171718 88.21283340151565 1.0577120059316465
1.703988337226256 12.89921214524373 145.77693831063522 93.66801469789134 1.2803424460552382
1.7056928850555158 12.852760462314247 139.92469429209862 99.77511417845867 1.4943222333544395
