M[M_sun], R[km], Lambda[1], P_c[MeV/fm^3], rho_c[fm^-3]
0.24162668629717493 15.618656898711224 2160425.4255784233 3.5677272577965504 0.1711233750220791
0.2536421963594078 15.277375812681028 1723144.8435315932 3.7848063688604014 0.17388800805852825
0.2660384795055719 14.981288392460634 1383158.5935126739 4.011373659208558 0.17666632487010656
0.27881196508102124 14.72359938148233 1116462.6257411025 4.247685632467264 0.1794570203298895
0.29196569384061777 14.498479449838698 905914.1422456253 4.494367242446758 0.1822666564874111
0.30550128512231695 14.301246115391695 738719.5521675358 4.751572660280119 0.18509091153226676
0.31941750196130886 14.128167141368465 605168.4203513802 5.0199865292655055 0.1879364560842844
0.3337129498405687 13.976033328444824 497723.2163004231 5.29982963383553 0.190799849244344
0.3483926510336619 13.84209442016742 411057.77676486154 5.591834368976752 0.19368746423089556
0.36345411499336594 13.72405269743433 340695.4994692482 5.896163236028382 0.19659427586550035
0.3789065260237205 13.620059327480664 283341.1141690659 6.213682265166023 0.19952800601176643
0.3947371114609594 13.528520421852505 236442.19987069987 6.544652104022353 0.20248489065390526
0.41096138476254185 13.447941022641578 197901.36896847538 6.889768675209935 0.2054685317351707
0.4275675094987837 13.377109000440132 166104.36107219904 7.249739871524179 0.20848205472430484
0.4445610704857665 13.314977214242475 139826.94512445646 7.6248293598430745 0.21152108168078518
0.4619408629035858 13.260617479433705 118001.62646900087 8.015976723995214 0.21459162937556286
0.47970395958411927 13.213205491178893 99830.58160945978 8.42389114428064 0.21769541446002183
0.4978589953483698 13.172031660587942 84660.4088036605 8.849019922678508 0.22082999849724824
0.516396433778229 13.136434110722531 71952.0525635775 9.29222343801543 0.22399860741829458
0.5353122994014913 13.105884705339713 61288.0637143823 9.754392337743015 0.22720424805748995
0.5546170549239869 13.079862133898766 52311.62429049937 10.236335978926313 0.23044827098034357
0.5742978557255932 13.057882878371048 44739.66852602201 10.73853439592406 0.23372748667696888
0.5943529920801205 13.039547218576422 38337.95357466221 11.262214482622733 0.23704786067036013
0.6147874997602517 13.024525151031135 32909.81334829048 11.808321957729078 0.24041111561697953
0.6355884089987539 13.012439097699021 28301.611675929333 12.377835532712641 0.24381888393991194
0.6567581833543562 13.003030091564643 24377.084833656598 12.971456428481538 0.24726925539023492
0.67828706615883 12.995989540631225 21033.61297768006 13.590486845469009 0.2507667418444764
0.7001741291743042 12.991072092431539 18177.898195546626 14.236135753148064 0.254314112723934
0.7224061087221362 12.987999562755682 15734.287934917937 14.909592455904704 0.2579133519163578
0.7449917712861677 12.986652762148191 13637.914937732889 15.611901690058259 0.2615645089618424
0.7679092314715953 12.986762947455833 11839.410738597964 16.344299229179523 0.2652691772579665
0.791151399294658 12.98813005777238 10292.052468525768 17.10841507237675 0.2690321935983144
0.8147238973118826 12.990650328927327 8959.158703017201 17.905703759481423 0.2728559895648844
0.8386043138583307 12.99411633840168 7809.854841135978 18.737547198917834 0.2767417972477469
0.8627836489195055 12.998386260857998 6816.832328453669 19.605256154673842 0.2806897989699885
0.8872549738633063 13.00333380867101 5957.201211538087 20.51093180210313 0.28470649944047466
0.9120133306677428 13.008835491620458 5212.937516075905 21.45636758853269 0.28879491065540946
0.9370324427470755 13.014713136362541 4566.915019298603 22.443068617278108 0.29295512565732235
0.9623066803748325 13.020923625651108 4005.9726577109495 23.473017493087017 0.2971906038681628
0.9878309597694737 13.027316384149998 3517.807657098803 24.548656020076052 0.3015076097533752
1.013569708598219 13.03377348761956 3093.2504331051523 25.671951004248726 0.3059079600269662
1.0395310721177329 13.040229676544547 2722.4698694327567 26.844813472021364 0.3103925462233149
1.0656785360031646 13.0465610013712 2398.956644858107 28.07036296621288 0.31497028101649727
1.0920092128459358 13.052686186717683 2116.4961689049937 29.350682299346992 0.31964180493041877
1.1185054843426798 13.058520391138694 1869.2875046844456 30.688469828705482 0.32441141386192074
1.1451342804431646 13.06398300263638 1652.5503818449654 32.08718366713957 0.32928756233422257
1.1718940522206696 13.068994393280047 1462.6991857506362 33.5486996055843 0.3342675270752454
1.1987491298634223 13.073446079550394 1295.9506147431237 35.07758935161863 0.3393650769040442
1.2256924278529477 13.077321197144046 1149.5396619213707 36.675912942481965 0.3445772015694225
1.25268561709875 13.08048834546291 1020.5843852254553 38.34865545937846 0.3499179349067565
1.279725375802137 13.082931907335128 907.0683198799002 40.098106183928195 0.35538416101038595
1.306766588765668 13.084524053962706 807.0794560764328 41.92972522226074 0.36099037617676316
1.33380312601424 13.085226832108692 718.8430592021829 43.84693261418774 0.3667381653764006
1.3608090156875914 13.085034237595451 640.9088855064276 45.85451511617901 0.3726358354558906
1.3877384028367579 13.083780463489244 572.060432729552 47.957753911704025 0.37869306269388886
1.4145927512463206 13.081496439459558 511.04138665861325 50.16134278024832 0.38491518685957077
1.4413154758755384 13.078047442289755 457.0873914173473 52.47061609320237 0.39130978237445335
1.4679076779348446 13.073456315535735 409.19327428370144 54.89192872549631 0.3978882323477122
1.494316621912459 13.06759363561651 366.7010070419853 57.431466612902575 0.4046595912082592
1.5205267346254827 13.060457150093244 328.97931929180027 60.09585344825486 0.41163362293087963
1.546509381344605 13.05197765161263 295.42093099345993 62.89219008555028 0.41882085944932324
1.5722248940636208 13.042103661267793 265.5869063625548 65.8280977162 0.4262326638370621
1.597648437147463 13.030784193293414 239.02356391957525 68.91176520029127 0.433881298813767
1.6227289723264207 13.017944197340565 215.3417892719518 72.15200098331256 0.44178000120388067
1.647487178992121 13.003641704078213 194.18081938681286 75.55829008275613 0.4499430630493702
1.6718348455510723 12.987717468195186 175.30813893562726 79.14064263154997 0.45838502622214317
1.6957741998419946 12.970176885450774 158.43878389483515 82.90908767492665 0.46711849620443757
1.7192391358939343 12.950943130897548 143.34695937184281 86.87643011449285 0.47616533246652915
1.7422421963866361 12.930048157273726 129.83908255710955 91.05433542433536 0.48554024595909573
1.7647226010033221 12.907409904417715 117.7342667745359 95.45669428465098 0.49526438653412075
1.7866504731121993 12.882985872636262 106.87233360083445 100.09736219602553 0.5053560376471066
1.807990182233697 12.856742268083845 97.1296731904779 104.99275608612841 0.5158404985003872
1.8287026090810865 12.828621817196323 88.37297203381692 110.15940049277272 0.5267402729300428
1.8487839968764441 12.798667860497417 80.50221204813433 115.61481620069702 0.5380783609614961
1.8681727736445595 12.766775346637548 73.41733260341904 121.37940127789793 0.5498848275477328
1.8868461217911145 12.732939047964166 67.04048123064149 127.47445941429596 0.5621890657404908
1.9047715472492275 12.697136997960241 61.28767498202661 133.92253298689536 0.5750207701652937
1.9219171134900888 12.659338465932244 56.10012498658412 140.74904100042045 0.5884153430265844
1.9382336765787915 12.619464612877147 51.415682806961904 147.9817645933919 0.6024114685063527
1.9537462088822692 12.577673192197516 47.18517109945633 155.649328167452 0.6170453891038508
1.9683555987851216 12.533727403631227 43.35914686066631 163.78520932503346 0.6323641723420614
1.9820774934893464 12.487746745918788 39.89826917418327 172.42300303341548 0.6484088406576987
1.994871785996432 12.439686856549837 36.763354186380255 181.60226324517555 0.6652335195257703
2.006706651566251 12.389531228725264 33.92018426463304 191.364810226035 0.6828920844306844
2.017566786997317 12.33728839748255 31.342766285368935 201.75663722966243 0.7014437153093448
2.0274081503083368 12.282922622802102 29.00473865891035 212.8278142029889 0.7209515723847127
2.036226087353241 12.226475393199125 26.881511345810683 224.63344851712142 0.7414848419501109
2.043977205658065 12.167901743395493 24.953273589435764 237.23498381539792 0.7631216866361449
2.0506445254403887 12.107217182293901 23.198587595932448 250.69896590443093 0.7859437826490596
2.0562192504319077 12.044469835086897 21.602999878871366 265.0985366025971 0.8100395679782241
2.0606804197020523 11.97966571859149 20.15141270178796 280.51558695514814 0.8355093864026762
2.0639997633787193 11.912800895146184 18.829944669879378 297.0393392035773 0.8624587323094097
2.0661632031681147 11.843908237371991 17.625818440739476 314.7702579352298 0.8910085791865808
2.0671652802293496 11.773038186936706 16.52995110850123 333.8178241803591 0.9212852712514598
