M[M_sun], R[km], Lambda[1], P_c[MeV/fm^3], rho_c[fm^-3]
0.24162668629717493 15.618656898711224 2160425.4255784233 3.5677272577965504 0.1711233750220791
0.2536414899947525 15.277353467762772 1723252.3156920718 3.784789869585953 0.17388780240303175
0.2660369719496253 14.981305135238994 1383056.9221356185 4.01133897468169 0.17666590572806878
0.2788104965391866 14.723579277579493 1116502.317852517 4.247631589504497 0.17945639351296241
0.2919615033900607 14.498578435573247 906049.2369897999 4.494292423176313 0.18226582335747007
0.30549505940744665 14.30136765252838 738765.6109996204 4.751474524540085 0.18508985147897952
0.3194096192517029 14.128275639609786 605199.77296471 5.0198643544355255 0.18793518847326818
0.3337055483933123 13.976106777795438 497786.1089687966 5.299680203744317 0.19079834473127488
0.3483839808710671 13.842168907764906 411089.8079687639 5.591657310814796 0.1936857511444716
0.3634439348982973 13.724130160404147 340727.9403096202 5.895954572368243 0.1965923160522464
0.37889555957208404 13.620131740462147 283382.00303197827 6.213439471300643 0.199525792024057
0.3947235288859125 13.528607015506786 236474.04298077445 6.544375432312953 0.202482464616779
0.4109462020185091 13.448021855198139 197928.37560515068 6.889452785104094 0.20546584148247124
0.4275508860067029 13.377185934463675 166135.80522402457 7.249381799261332 0.20847909248424037
0.44454390264442123 13.31505202405725 139852.74589796265 7.624430095354388 0.21151790327872902
0.46192126794634564 13.260681735096473 118025.30197445993 8.015529303928208 0.21458816821962098
0.4796824094526131 13.21326405853965 99843.72643950113 8.423392080344076 0.21769166219689745
0.49783575070844865 13.172084292516328 84676.54073357058 8.848471055208677 0.22082602446225363
0.5163704204972496 13.136489949017498 71964.57492375313 9.291615885653005 0.22399433021178664
0.5352850275938413 13.105926526232642 61304.52658519406 9.753721981877407 0.22719965844639395
0.5545867747382431 13.079909098260753 52324.12809519963 10.235598450716369 0.230443359330176
0.5742659629455623 13.057915067817047 44751.5158893359 10.737732900032663 0.2337223408250738
0.5943200899378382 13.03957362857169 38347.310707518256 11.261336967199172 0.23704237793811392
0.614752207666478 13.02454607096471 32919.4801525664 11.807363239803923 0.24040528501240904
0.6355500495843808 13.012475813604208 28308.00580950266 12.376790106005622 0.24381269389080593
0.6567176340321074 13.003050960662618 24383.88397887371 12.970329093693325 0.24726281200687086
0.6782456550031702 12.99601347558186 21039.359540921843 13.589261596321133 0.2507599199854849
0.7001293195600102 12.991076473524695 18182.912860725806 14.23480602131511 0.25430689886384267
0.7223592552411012 12.987997380249702 15739.231268886035 14.908151251086684 0.2579057317232186
0.7449410739563818 12.986656599793163 13642.012530430717 15.610355632884986 0.26155660654311286
0.7678577644369275 12.986761065117488 11842.779271519663 16.342627385822023 0.26526084353814217
0.7910976765276793 12.988122484365437 10295.5003651823 17.106609053848157 0.269023411541779
0.8146679376235924 12.990641735640397 8961.820397833591 17.90375462068397 0.2728467410406606
0.8385449348149322 12.994114171054385 7812.027807638712 18.735463584397714 0.276732224117118
0.8627217742200242 12.998379207440124 6819.233945932338 19.603010976621064 0.2806797262720254
0.8871913806447428 13.00332358088629 5959.494398286795 20.508514256721423 0.2846959053817657
0.9119474614581359 13.008824468415304 5214.797135708343 21.453766132299776 0.288783771973168
0.9369613730572313 13.014703118415529 4568.357614200106 22.44029408581442 0.29294360183320084
0.9622354684811151 13.020913352732743 4007.6654711070087 23.47003507392399 0.2971784913777787
0.9877560045082432 13.02729747562095 3519.2998529160177 24.545451678209016 0.30149488042431
1.013493306212943 13.033759071717727 3094.18085240276 25.668537141783276 0.30589478527423924
1.0394528819579583 13.040210664703487 2723.600033417106 26.841148361363743 0.3103787000952252
1.0656007852008191 13.046545075572155 2400.0038266836605 28.066429454858394 0.3149557292475752
1.0919243774376206 13.052665455386439 2117.295200510729 29.34649432647188 0.3196267307994968
1.118418274151428 13.058502576946234 1870.0499316129215 30.683977403818382 0.3243955665420296
1.1450443851161114 13.063958774595475 1653.263545586968 32.08240145043295 0.329271131108648
1.171803194732942 13.068978839643998 1463.3437926169163 33.5435715135451 0.33425024487634486
1.1986533078310995 13.07343323749445 1296.4854655126455 35.07209118644584 0.3393468959623737
1.2255960337903142 13.077308530039563 1149.956438108998 36.67006065683553 0.34455832300184147
1.2525860659634458 13.08047586071593 1021.021977302057 38.342381734055756 0.34989806112027144
1.2796241029177418 13.082917514402208 907.4637661930552 40.091427370463926 0.3553634989927749
1.306664383042226 13.084513213459063 807.437895831496 41.92261371914465 0.3609688770254552
1.3336960685163315 13.085231962997335 719.1875641827808 43.839308707804435 0.3667155031838354
1.3607020624410178 13.08503831402452 641.1967017125633 45.84639477811628 0.37261222261586874
1.3876291311140847 13.083792398415902 572.2983770393613 47.94910246548521 0.3786684378852025
1.414482639342356 13.08151100473074 511.27224398196404 50.152065382811855 0.3848891905695635
1.4412107558607241 13.078083283345304 457.27705162906216 52.46072746912229 0.3912826319176767
1.467796426204606 13.073477488766729 409.3822712520011 54.88138509945249 0.39785985080263203
1.4942022309693845 13.06762061971228 366.8728251605306 57.42022066422884 0.4046298957077876
1.5204121221283895 13.060490169115852 329.1429772074327 60.083853993564915 0.41160252417420706
1.5463938047093746 13.052018619236854 295.5628448321694 62.879381729701294 0.4187882611653781
1.5721086886946862 13.042151653576152 265.71026346695487 65.81442046806806 0.4261984621944089
1.5975322923508952 13.030842411939522 239.14606889414625 68.8971540494036 0.4338453817711405
1.6226189604519952 13.018038923694867 215.44090563844048 72.13638543289687 0.44174224779486854
1.6473703849636245 13.00371491077878 194.2823126039189 75.54159363421664 0.44990334259397247
1.6717190513526667 12.987799493312298 175.39876370288616 79.12286937117362 0.4583435614090245
1.6956597249890974 12.970269845723497 158.5155132127332 82.89006424539211 0.46707478041877243
1.7191305921650546 12.951071850075989 143.42617988917252 86.85605861604314 0.4761192010455085
1.7421271585347218 12.930161552913805 129.91313265430907 91.03260737644213 0.4854919090503402
1.7646120098957294 12.907542151590016 117.7874498632362 95.43340043536837 0.4952132746275309
1.7865370764347366 12.883119772688335 106.92165559110987 100.07248226465583 0.505302347834596
1.8078781117590832 12.856885549790876 97.17955969935757 104.9661610933083 0.5157840239773883
1.8285927323131301 12.828775424458588 88.41649977967798 110.13083726454491 0.5266803713151326
1.8486763236294057 12.798837413237514 80.5407087833683 115.5842399464389 0.538015200971253
1.868067787519066 12.766955412889299 73.45336693070246 121.34664388736172 0.5498181455048455
1.886743082620316 12.73313487501936 67.07265981152293 127.43933703007816 0.562118575395612
1.9046732830518676 12.697344030368118 61.31744067850173 133.8849734847968 0.5749466160460294
1.9218204011045665 12.659560496781728 56.12862949890083 140.70869971709803 0.5883367428656576
1.9381481774366225 12.619730018450435 51.44120607082074 147.93840002362126 0.6023280545988771
1.953641166601667 12.577864556480911 47.209539285466946 155.60281783481867 0.6169572473677607
1.9682716976327366 12.53399459608508 43.380736753869435 163.735146411041 0.632270464714176
1.981997747685021 12.488031112017714 39.91538178461772 172.36917800949684 0.6483094586361392
1.9947973544016566 12.439985772825807 36.78063926317089 181.54435598907804 0.6651280406558591
2.006638027529988 12.389845023971889 33.93794752541758 191.30244482237163 0.6827799693965583
2.0175014714772024 12.337623775111604 31.3570499752334 201.68939900797673 0.7013243740983564
2.027349539813718 12.283277689586525 29.01896954234986 212.75541472360592 0.7208249138270555
2.0361725299074562 12.226845329784434 26.894729544021732 224.5552179121666 0.74134961848704
2.042989331996767 12.170389944318197 25.086972293502047 237.52993173199664 1.0703123618768489
2.0445604615104216 12.115298353470054 23.838305551618095 252.7998910692273 1.5182394041254466
