M[M_sun], R[km], Lambda[1], P_c[MeV/fm^3], rho_c[fm^-3]
0.24162668629717493 15.618656898711224 2160425.4255784233 3.5677272577965504 0.1711233750220791
0.2536444178129996 15.277262469510267 1723196.382775269 3.784826489381476 0.173888258851117
0.2660406842768363 14.981268449646157 1382953.9933054023 4.011415956556003 0.17666683600858826
0.2788161573445393 14.723502097089378 1116422.1427214595 4.247751537622542 0.17945778473037377
0.29197119970957236 14.498379057934914 905916.721786014 4.494458484807398 0.18226767249227308
0.30550660566999277 14.301194429597366 738619.080487203 4.751692337940658 0.18509220427940884
0.31942337182060765 14.128113106475814 605053.4633042297 5.020135523795012 0.1879380019600346
0.3337231070832895 13.97587897686404 497666.5552200768 5.300011867838604 0.19080168403837408
0.34840361644843093 13.842005579735945 410993.1868615508 5.592050297438909 0.1936895533981668
0.3634669156955159 13.723954840063374 335705.2390821068 5.896417710060891 0.19659666593946612
0.37892030635859647 13.620021462059437 283283.5291935376 6.213978364241002 0.19953070607880374
0.39475196127415807 13.528470864260989 236405.16190675582 6.544989520705574 0.2024878493423895
0.4109787755629164 13.447872787038483 197859.26711716663 6.8901539232693265 0.20547181266930759
0.4275860081550407 13.377057161507999 166074.39958703087 7.250176566041233 0.2084856673861292
0.44458306346326154 13.314915460974262 139789.7478128031 7.625316293832745 0.21152495798844048
0.4619647587040654 13.260549739833035 117974.29539207752 8.01652239068507 0.21459585054856148
0.47972987649162685 13.213137774093271 99806.1325384718 8.424499798643728 0.21769999068994905
0.497887636508649 13.171969202477083 84634.67316596933 8.84968932050689 0.2208348452235374
0.5164263842899982 13.1363922712998 71937.78375250062 9.292964412160051 0.22400382392246707
0.535345749503333 13.105843844327122 60682.23631418412 9.755209912132838 0.22720984560453
0.5546531091608975 13.079812551044022 52303.05548586957 10.237235482762244 0.23045426132499328
0.5743358715026895 13.057832176492637 44727.053681080564 10.739511920862016 0.2337337626898699
0.5943939421465395 13.039511804325505 37989.66443026884 11.263284729080812 0.2370545475895977
0.6148306392868709 13.024496570687042 32898.0101732274 11.809491248119844 0.24041822685347333
0.6356355231956051 13.012429307972928 28289.201449909317 12.379110583884053 0.24382643361251044
0.6568069154833758 13.003008931293994 24368.45889124197 12.972831385202868 0.2472771140790265
0.6783394483776378 12.99597261825679 21026.14112905398 13.591981232218012 0.25077506218952467
0.7002286704860526 12.991062405319921 18171.29966433337 14.237757582462446 0.2543229112271179
0.7224594705861945 12.988025842489154 15727.875091667418 14.91135025513787 0.25792264606351095
0.7450509827224534 12.986646945591511 13632.66769077355 15.613787383851479 0.2615741473776832
0.7679726077699026 12.986747789595423 11835.112334022975 16.346338353436387 0.2652793417809569
0.7912180524782971 12.988143795499784 10287.938118205106 17.11061786088168 0.2690429050128871
0.8147933467548583 12.990669454059262 8955.671689585268 17.908081124499656 0.27286726999190614
0.8386762104167225 12.994138967710446 7806.701390074127 18.740088595970064 0.27675347365224773
0.8628569415525505 12.99840471104026 6813.437713893638 19.607994627587196 0.28070208477088626
0.8873386885502824 13.003366631794336 5954.863558330338 20.513880530858117 0.28471942122708666
0.9120977147508973 13.008840010551527 5210.7150065028945 21.45954065563418 0.2888084968098591
0.9371154689561477 13.014738040342078 4564.724383686325 22.446452805031093 0.2929691816465839
0.9624000670593085 13.020948736640873 4004.145412066549 23.47665526985986 0.29720537796052615
0.9879215420178388 13.027342726279922 3516.27366900078 24.552564508208224 0.30152313632127786
1.0136630180401498 13.03379322151584 3091.751842509172 25.676115074712058 0.3059240299768389
1.0396284612582265 13.040247067703575 2721.1490917251513 26.84928403035866 0.3104094351877018
1.0657803479257069 13.046578640237836 2397.9383894830453 28.075160938484146 0.31498803080224697
1.092112188941092 13.052704286319672 2115.5698511925975 29.35579068096173 0.31966019196766954
1.1186111840322122 13.058541665379316 1868.410900110181 30.693949607106582 0.32443074413531137
1.145242466116481 13.063997307790986 1651.9212726836085 32.093016957793274 0.32930760494635264
1.17200638526063 13.069008898438328 1461.907795983249 33.55495483050361 0.3342886078281641
1.1988638439250643 13.07346878190852 1295.2951227201238 35.08429603324595 0.33938725408200027
1.2258093928275096 13.077336338224622 1148.939095322621 36.683051618954046 0.3446002298346781
1.2528056071468352 13.080499717676517 1020.0595055228612 38.35628651348205 0.3499420497278263
1.2798495182485201 13.082932301223485 906.5995951169327 40.10625316485854 0.35540936504765397
1.3068926857684848 13.084525844187722 806.6650101426421 41.93840005624997 0.36101660151414416
1.333925644419707 13.08524434753143 718.4713748147409 43.85623255738444 0.3667658096171576
1.3609388504325861 13.085035147470977 640.5373739408979 45.8644206826171 0.3726646394975231
1.3878709365034194 13.083771459191414 571.7401189588311 47.96830740958187 0.3787231013555924
1.4147267210379662 13.081481994227854 510.71602756638 50.172659928023876 0.38494689875481336
1.4414511241779189 13.078027603159672 456.827993371483 52.48267892574142 0.39134290239305275
1.4680452931415795 13.07342939260005 408.95525357102196 54.90479065383085 0.3979228543456214
1.4944549304208834 13.067561574681958 366.47691838762944 57.445185374337825 0.4046958162968212
1.5206667357692163 13.060414639910832 328.79133507268807 60.1104914937028 0.41167156007263406
1.546650897499223 13.051926994144457 295.248143883964 62.90781500551188 0.41886062611286173
1.5723670334980693 13.042044592701105 265.4211591521346 65.84478270969879 0.42627438671726514
1.597792157469826 13.030715991969734 238.8945584080555 68.92958959158643 0.4339251146245038
1.622878458639297 13.017893149437365 215.20527137301917 72.17105079181108 0.44182605755109244
1.647630082019749 13.003553366064875 194.0700741740662 75.57865865221875 0.449991519393421
1.6719796522873875 12.987620695364855 175.20806351023742 79.16232497307011 0.4584356108768476
1.6959156985010815 12.97006713747186 158.34623192967948 82.93229532431782 0.46717182731514684
1.719396701838191 12.950853994002587 143.2580478359424 86.90128253309825 0.4762216109670478
1.7423796469845971 12.929916548054834 129.75988060529926 91.08084295699285 0.4855992154621866
1.7648618683430832 12.907263701664164 117.66336924990838 95.48511227574068 0.4953267419520006
1.7867886779407258 12.882825572723045 106.80946913145014 100.12771538952344 0.505421538521839
1.8081262584525852 12.856567065722949 97.07193898461095 105.02520187163375 0.5159093971939168
1.828836020663944 12.82843033806194 88.31963063185778 110.19411478869608 0.5268128582121141
1.8489160807507905 12.798461243395485 80.45468391674349 115.65211972879067 0.5381554171780796
1.868291212409055 12.766523094836321 73.37651962286816 121.41936615195789 0.5499661813858264
1.886970294684075 12.732700084105394 66.99892924345075 127.51729235704138 0.5622750034921649
1.9048937114269828 12.69688297230043 61.249965030219734 133.96835729412044 0.5751112415760772
1.9220342657651421 12.65906398048126 56.066834444653416 140.79825964809217 0.5885112396691546
1.938347596278292 12.619175356420843 51.38533652603016 148.0346723101808 0.6025132391319192
1.9538431380365984 12.577330003289958 47.15785574641894 155.70607441168391 0.6171529289170493
1.968459376291119 12.53339728472323 43.33196496600617 163.84613795835773 0.6324779875354635
1.9821738830832347 12.487395683958152 39.874080834375356 172.48867502351237 0.6485300968069857
1.994963349322992 12.439319866717021 36.74023178922856 181.67291664709978 0.6653622156770401
2.006799035967836 12.389156601011827 33.89773625062989 191.4409038263683 0.6830288788086091
2.0176451086816773 12.336880954634223 31.32293542930667 201.83867712178542 0.7015893280252951
2.0274807265300407 12.282495775071043 28.988378224206258 212.91615240469943 0.7211061147834986
2.0362916532284205 12.226027672945818 26.865888418214617 224.7289026222587 0.7416498366432807
2.0440349459038076 12.16743030676775 24.938599310524538 237.3380188278308 0.7632973707973004
2.0506937926660167 12.106723040563034 23.18471438594681 250.8104171645324 0.7861314558734627
2.056265917463269 12.04397487414424 21.59088079785278 265.2192771578074 0.8102404872769724
2.0607119236383804 11.979124380500282 20.13895657190812 280.6461667084768 0.8357235675903066
2.064016437967424 11.912227179621961 18.8191255326416 297.18100821127445 0.8626882614862899
2.0661768341672997 11.843324576083896 17.616681577568823 314.9241537238175 0.8912549360751377
2.06716834993054 11.772431136598412 16.52158168794032 333.98496170684314 0.92154925162369
