M[M_sun], R[km], Lambda[1], P_c[MeV/fm^3], rho_c[fm^-3]
0.24162668629717493 15.618656898711224 2160425.4255784233 3.5677272577965504 0.1711233750220791
0.25363852300446543 15.277435127783317 1723211.2257819106 3.7847354776893902 0.17388712443428062
0.26603074687431516 14.981446517126097 1383245.055941944 4.011224634373325 0.1766645239929212
0.2788000385245718 14.723807060037013 1116658.008109902 4.247453434855277 0.1794543271875048
0.2919487536143328 14.498774780079245 906204.0331362553 4.4940457817364035 0.18226307694779417
0.305478473283503 14.301588762520556 738961.6199713233 4.751151024550228 0.18508635706168006
0.31938855937811067 14.12850195605189 605317.4287286787 5.0194616155122915 0.1879310099014967
0.33367997270556377 13.976331265858946 497964.72851727525 5.29918762626402 0.19079338529338213
0.3483543820716961 13.842419531403031 411242.17311023845 5.591073667606712 0.19368010423587867
0.36340990818401725 13.72436724500862 340857.36693498434 5.895266755126382 0.1965858559271532
0.3788562744658855 13.620379136698885 283505.04191503103 6.212639160388824 0.1995184941521783
0.39468139557502124 13.528829071072503 236586.63763278993 6.5434634613185665 0.2024744678631707
0.41089843463266507 13.44820943100638 195539.55431267314 6.888411553864172 0.20545697392029633
0.4274973398503699 13.377410807053211 166229.96427964387 7.248201541753096 0.2084693285163488
0.44448346449379533 13.315244068509706 139935.87355769912 7.623114076135122 0.21150742691954608
0.4618565648745546 13.26087549672155 118096.49290176711 8.014054575630883 0.21457676000397455
0.4796124488762474 13.213424319280964 99922.13564626391 8.421747149007226 0.21767929461281618
0.49775980450581214 13.172240317556918 84735.12778174141 8.84666198795711 0.22081292604239733
0.5162874330256065 13.136636651432289 72022.77165454841 9.289613415594173 0.223980232697733
0.5351961033478034 13.106046352477067 61352.248860231244 9.751512538665398 0.2271845314286381
0.5544918332445183 13.080002559748666 52366.80693768638 10.233167639721831 0.23042717107721483
0.5741623866181106 13.057995582209264 44786.56691370857 10.735091284124024 0.23370538083267012
0.5942135055562311 13.039673034301822 38378.109123263945 11.258444833944106 0.23702430783719936
0.6146352891480981 13.024629888155223 32947.20650049285 11.80420351278693 0.2403860686002576
0.6354269135413476 13.01252961146153 28331.530177986333 12.373344643837013 0.24379229305364206
0.6565831154650713 13.003098775249088 24408.17625682104 12.966613717890748 0.2472415764423449
0.6781065024998402 12.996040694836195 21059.6666585899 13.585223567174578 0.25073743732104964
0.6999830654477203 12.991094436689588 18200.134415521054 14.230423699138221 0.25428312455215374
0.7222043039077636 12.988027766801137 15753.953194787691 14.90340160628466 0.25788061856075817
0.7447803543178265 12.986654012216794 13655.830826512503 15.605260482607848 0.2615305635146429
0.7676872396715436 12.98675191632134 11855.266858521009 16.337117758533424 0.2652333794279707
0.790919648429137 12.988115755278963 10237.556266438065 17.100657312992308 0.26899447024142553
0.8144810551100656 12.990626887346442 8972.514241042856 17.8973312980649 0.27281626283412264
0.838348497578995 12.994090440892851 7820.684444999623 18.728597164042313 0.27670067646836627
0.8625177199594709 12.99834226386006 6826.75087911163 19.595612216744968 0.2806465327026151
0.886979640922136 13.003272353212758 5966.383239912607 20.500547567300835 0.28466099411346996
0.9117244148530432 13.00876886244138 5220.592926631345 21.445193487034068 0.28874706638866676
0.9367316271187405 13.014659450325793 4574.312143673776 22.431151185358303 0.29290562742988424
0.9619984485570124 13.02084842392694 3989.8944408514385 23.460207234636492 0.29713857760229656
0.9875096583459811 13.02723924646353 3523.5160282908614 24.53489266827644 0.30145293449044525
1.0132396459480804 13.033689389875553 3098.0676165851723 25.65728782054789 0.3058513719770949
1.0391883910703483 13.040146240429657 2726.992275337495 26.829071271227946 0.3103330750234083
1.0653302329970422 13.046480221156353 2403.104259410005 28.053468097212015 0.314907779549611
1.0916452541397876 13.052596743626992 2120.0858000541216 29.332694621855556 0.31957706033593986
1.1181302219100335 13.058440958191545 1872.5401126610554 30.669174683565604 0.32434334898714556
1.144748520201905 13.063905076318955 1655.5923425538876 32.06656402934998 0.32921647269248605
1.1714995640513335 13.068922819323475 1465.2507950762342 33.52667461703106 0.3341933005929496
1.19834741245534 13.073397544121871 1298.3048797292965 35.05397513614342 0.339286991095296
1.2252775673378902 13.077264237894964 1151.6123141972982 36.65077800119848 0.34449612013964725
1.252261262136749 13.080438912920771 1022.4805558495742 38.32171074292989 0.3498325799519165
1.2792919208312485 13.082895296024633 908.7984330009511 40.069421904064754 0.35529542143128723
1.3063241748250272 13.08449897138857 808.61584100361 41.89918286834213 0.36089804201372083
1.3333509633802336 13.085229828893178 720.216531261418 43.814189932875486 0.36664083719427276
1.3603502995203187 13.085046979244137 642.1964288129327 45.819640684573265 0.37253442534611453
1.3872729922969584 13.083810944450883 573.1768103996808 47.920598847619836 0.3785873073875896
1.4141127270233562 13.081527441692474 512.0297299608728 50.12149988892798 0.3848035426873138
1.4408431129612012 13.078134395646167 457.96668942924254 52.42814859444712 0.3911931825340682
1.4674235040261703 13.07355140722492 410.0185925848565 54.846648679326286 0.3977663466068612
1.4938274167791146 13.06771416863971 367.4435948839916 57.38317086093881 0.4045320638144551
1.5200329457520378 13.060609917296722 329.6388757561569 60.044322251671595 0.4115000705166242
1.5460123151792478 13.05215314120434 296.03826127886526 62.83718562716978 0.4186808687296965
1.5717248022963155 13.042310786973367 266.13431199448115 65.76936245160705 0.4260857890775073
1.5971412231475124 13.031018163334194 239.5002238998514 68.84902004100267 0.43372705904319037
1.6222341124559858 13.018238147463595 215.78329413848545 72.08494329295425 0.4416178771452267
1.6469839369981094 13.003948923119204 194.60256976790507 75.48659146483993 0.44977249373648404
1.6713385351054681 12.988065280998915 175.69048293240294 79.06416054338072 0.45820629920873
1.6952746545434643 12.970568268095121 158.791422674212 82.8273980854183 0.46693077376566605
1.7187377120133986 12.951370550869456 143.65535644884093 86.78895270558823 0.4759672391750642
1.7417546855671682 12.930543925516085 130.1286341266061 90.96103377410726 0.4853326841304411
1.7642355600402315 12.90794219517412 117.98878147195659 95.35667018397201 0.4950449113229347
1.786165519908068 12.883556298325004 107.11125195807507 99.9905285695297 0.5051254953159743
1.807510982800612 12.85735923975801 97.33682271276119 104.87855929096975 0.5155980013665019
1.8282411438961532 12.829316178228986 88.56375277466677 110.03675384395174 0.5264830634763664
1.8483225151358476 12.799389013931185 80.67566949768357 115.4835274200956 0.5378071636450488
1.8677211351085752 12.767553388928928 73.57846737298597 121.23874879507711 0.5495985106360943
1.8864054185888115 12.733779601235568 67.18384308677844 127.32365408356839 0.5618864006450174
1.9043443346779914 12.69803177420847 61.41780445600743 133.7612651937426 0.5747023774684049
1.9212991604432552 12.660420555726954 56.26415619999738 140.60488737835718 0.6508423944395959
1.9356383394325023 12.62098036833097 51.9355189512198 148.0857721025638 0.8017663391734824
1.946982322493448 12.57817219539449 48.30314861272469 156.29361875288805 0.9553494126942801
1.9554169004012314 12.531130597541248 45.21417416935853 165.28458780511681 1.1121797640150655
1.9611248092705353 12.479546011397076 42.55829154831249 175.12060979616433 1.2728604277363802
1.9643089154745423 12.423336064562815 40.247764807649 185.8695616472721 1.4380900977621878
1.9651269843588055 12.362461367528496 38.2222364043096 197.60662100811643 1.6085711294738956
