M[M_sun], R[km], Lambda[1], P_c[MeV/fm^3], rho_c[fm^-3]
0.24162668629717493 15.618656898711224 2160425.4255784233 3.5677272577965504 0.1711233750220791
0.25364430788596165 15.277261951744762 1723170.4463322642 3.78482565213828 0.17388824841528444
0.26604065767631474 14.981267144528763 1382976.0910465813 4.011414196497473 0.17666681473931964
0.2788157145292451 14.723496990200609 1116406.7520629172 4.247748795196764 0.17945775292236749
0.291970943040073 14.498401066650686 905886.7314962193 4.49445468804443 0.18226763021443626
0.3055062852297734 14.301208605837479 738608.3917099831 4.75168735791522 0.18509215048562958
0.31942304856441617 14.128114180803353 605072.6190420209 5.020129323816124 0.18793793763286068
0.3337212207917834 13.975926810781703 497663.0057903846 5.30000428466912 0.19080160768844012
0.3484031663387186 13.842009377526344 410995.552853345 5.5920413121385 0.19368946646291357
0.363466676907595 13.723949094324913 340624.67258975573 5.8964071207521895 0.19659656648243787
0.37891964194188454 13.619993779205721 283300.7746174947 6.213966042768709 0.19953059372181245
0.39475167769817393 13.52846219701011 236406.37228178183 6.544975479855556 0.2024877262231031
0.4109775915636523 13.447863853000477 197867.97103683252 6.8901378919709755 0.20547167614004355
0.42758694766371297 13.377030246691964 166066.53189902494 7.250158393847551 0.208485517052228
0.44458234476923963 13.314926477718263 139795.7716967932 7.625296030963372 0.21152479668297128
0.46196386477946977 13.260582605704695 117976.34202546904 8.01649968369057 0.2145956748916012
0.479729102951428 13.213143448824257 99806.58442807221 8.42447447044511 0.21769980025730362
0.4978864226747063 13.171980959916159 84638.83631641041 8.849661464487887 0.22083464353405788
0.5164252649879024 13.136389584222691 71935.30650624167 9.29293357750184 0.22400360684455095
0.5353441605090025 13.105838429942274 61272.47720238016 9.755175889752628 0.227209612669306
0.5546508262167198 13.079800888305604 52302.01563760505 10.237198050871852 0.23045401204320548
0.5743342357771003 13.057832644159284 44727.60284039902 10.739471242100258 0.23373350151961872
0.594390920252006 13.039525024491017 38323.53167357548 11.263240191667226 0.23705426931903165
0.6148292557960893 13.024511890910208 32899.52611110365 11.80944258892859 0.24041793092440442
0.6356341559311428 13.012443529688229 28290.973360296397 12.379057523372586 0.2438261194372848
0.6568050206667865 13.003032666664273 24369.999963637554 12.972774167034792 0.2472767870434412
0.6783372875608635 12.995972201721331 21026.075302737292 13.591919043839344 0.2507747159412935
0.7002256890663463 12.991062368424124 18171.364039360553 14.237690090403197 0.25432254507940255
0.7224557278516011 12.988020429331701 15728.185359925272 14.911277104500899 0.2579222592885189
0.7450487016640169 12.986643275477878 13632.950261280195 15.613708910699687 0.26157374627498453
0.7679700164482429 12.98675004726583 11835.397266411517 16.34625349501974 0.26527891878303317
0.7912161508345638 12.988136659861157 10288.23326493845 17.11052619127932 0.2690424592546527
0.8147903936077947 12.990669105967942 8955.634647763434 17.90798218955131 0.27286680055265045
0.8386754966863028 12.994121457990365 7807.014949374804 18.739982834504076 0.276752987733034
0.862852705297094 12.998410045711399 6813.504162497949 19.607880664366547 0.2807015734897881
0.8873346393903696 13.00336123374608 5954.753565660533 20.513757817336206 0.2847188834774066
0.9120924076039806 13.00885685850449 5210.821566198924 21.459408605699373 0.28880793141027816
0.9371126839486399 13.014743387115121 4564.901135012326 22.44631196877533 0.2929685966929575
0.9623964567985852 13.020951661862187 4004.1985514942444 23.476503879779454 0.2972047631204272
0.9879177595781357 13.02733334385995 3516.3009859782123 24.552401851666346 0.3015224901640537
1.013659240360325 13.03379567751333 3091.6475576716243 25.675941781356624 0.3059233612044059
1.0396260308222443 13.04024486782026 2721.230897782617 26.849097981508653 0.3104087323286482
1.065775899032279 13.046581370619148 2397.962958219205 28.074961263180697 0.314987292116474
1.0921087375690537 13.052702484620115 2115.575656189616 29.35557808692259 0.319659426759662
1.1186070760755442 13.05854197191799 1868.4390952262056 30.693721556008622 0.324429939670286
1.14523861646886 13.063998482697563 1651.9489173537968 32.09277419398475 0.3293067708338179
1.172001793771882 13.069012980833282 1461.9126306736716 33.55469450620524 0.3342877305084381
1.1988582679201614 13.073468157526719 1295.3611954543208 35.08401691968631 0.33938633112912636
1.225805197909816 13.077336962336839 1148.948360088974 36.682754526142396 0.3445992714592567
1.252801701132341 13.080491612589835 1020.0796120335536 38.35597023565966 0.3499410537992841
1.2798447986005237 13.082937003934019 906.631861033522 40.10591410694704 0.3554083161157477
1.3068867419513475 13.084522364297872 806.6599466754626 41.9380390293105 0.3610155100750108
1.333924826364901 13.085238885349625 718.5200278385146 43.85584551342047 0.3667646591223323
1.3609341982352625 13.08502959553123 640.5567170971119 45.864008432663184 0.372663440730657
1.3878641480404739 13.083771946698135 571.7340723030418 47.967868192674956 0.378721851202493
1.4147216279244315 13.081481322126876 510.75567036928464 50.17218892765576 0.3849455789598766
1.4414448686056855 13.078028376191137 456.8186937527459 52.482176889659804 0.39134152399006933
1.4680404967070515 13.073427987265969 408.9774011881956 54.90425535891527 0.3979214134279794
1.494449184108022 13.0675636533101 366.4933202630179 57.444614417383676 0.4046943086558926
1.5206612411439648 13.060417476265927 328.8020827333919 60.10988227529802 0.41166998117297404
1.5466448539025954 13.051929824611362 295.2592125362898 62.907164712303334 0.41885897106494535
1.5723610568623483 13.042047378398282 265.43238859274135 65.84408829487133 0.42627265024750505
1.5977854170960495 13.03071831916504 238.89371409355368 68.92884775335179 0.43392329104224797
1.622871828703034 13.01789541828241 215.2044369052881 72.17025794968332 0.4418241407122789
1.647624550598199 13.003557395083046 194.08074221876717 75.57781092081981 0.44998950266051274
1.6719732674895698 12.987623047447567 175.20521971045483 79.16142256012189 0.4584335055577637
1.6959102494044092 12.970068039712523 158.34712314751934 82.93132942466393 0.4671696076805554
1.7193908834986298 12.950858176551934 143.26082579134868 86.90024817414748 0.47621926865293857
1.7423721688781793 12.929916231257707 129.76321816429768 91.0797397082164 0.48559676113975025
1.7648555480253418 12.907270329949773 117.6660461332754 95.48392950826025 0.4953241466960494
1.7867826945162768 12.882831753086652 106.81210633370796 100.12645207344221 0.5054188123405432
1.8081207327113875 12.856573458756671 97.07620811525187 105.02385145551433 0.5159065295824566
1.8288304933194093 12.828438548363032 88.3208530921496 110.1926701264755 0.5268098378077022
1.8489104542092736 12.798470428359106 80.45632434052077 115.65056711647486 0.5381522100168005
1.8682856039658986 12.76653182820157 73.3788699074951 121.41770276450119 0.5499627953385281
1.886965684486157 12.732710149964461 67.00359254013772 127.51551517930723 0.5622714466116358
1.9048887804008905 12.69689355458405 61.250458074330105 133.96645001378374 0.5751074760124872
1.9220296852666467 12.659076313589363 56.068768213422544 140.79621108027155 0.5885072482800091
1.9383428858940575 12.61918746736641 51.385674185413656 148.0324701860203 0.602509003236534
1.9538388203418262 12.57734292377156 47.156424214167714 155.70371250980003 0.6171484528765497
1.9684550128426814 12.533412103610342 43.336699933200954 163.84360196452675 0.6324732502779116
1.9821702520524496 12.487410592042355 39.875022473840296 172.48594158530344 0.6485250498122008
1.9949598551390069 12.43933472365453 36.74128066720085 181.66997585485532 0.6653568589831905
2.0067957244321053 12.389173296646382 33.90018900520001 191.43773658131718 0.6830231850141953
2.017641942079923 12.336898452206839 31.325399772293917 201.83526235564986 0.7015832671522434
2.027476543208646 12.28251348751503 28.988312813324143 212.91247546356755 0.7210996821949728
2.0362875896436705 12.226046698102584 26.86694708392181 224.72492946946602 0.7416429689540912
2.044032445326221 12.16745008274679 24.939884240126887 237.33373010561576 0.763290058131955
2.050691562538904 12.106743191972162 23.1852076272413 250.80578188512223 0.7861236564637493
2.056264305915593 12.043996529717155 21.591253472059982 265.21425139927646 0.8102321241227866
2.0582570635274946 11.987008523286 20.44283713041545 282.2344843330389 1.7417657457387896
