M[M_sun], R[km], Lambda[1], P_c[MeV/fm^3], rho_c[fm^-3]
0.24162668629717493 15.618656898711224 2160425.4255784233 3.5677272577965504 0.1711233750220791
0.25364427929513833 15.277266264309473 1723193.2095320926 3.784824064901597 0.1738882286311449
0.26604043619135687 14.981251598362919 1382982.934736291 4.011410859798912 0.1766667744172867
0.2788150892797566 14.72351193390838 1116378.4754191241 4.247743596140067 0.1794576926211446
0.2919705378432258 14.498396880280698 905812.0517177035 4.494447490191448 0.18226755006467277
0.30550564539186464 14.301222255622774 738596.7690721841 4.751677916853012 0.18509204850413918
0.31942213210765524 14.12813996311153 605097.8875947933 5.020117569988146 0.18793781568235884
0.3337214033970471 13.975912136245103 497667.9332492951 5.299989908614974 0.19080146294542907
0.34840231304051206 13.842016576945694 411000.0387296872 5.592024277953235 0.19368930165248519
0.3634658228198603 13.723960127347262 340639.93404818216 5.896387045722568 0.19659637793351134
0.37891884384465074 13.61998941503021 283299.5675892065 6.213942683942686 0.19953038071744497
0.39475116301422114 13.52844399514725 236406.46428919747 6.544948861474091 0.20248749281585732
0.41097729286408 13.447877530173956 197864.804077874 6.890107500146883 0.20547141731051613
0.42758538013415426 13.377046782925067 166077.0048722959 7.250123943369465 0.2084852320522517
0.4445802892033208 13.314915369602424 139794.55057526505 7.625257617038242 0.21152449088342717
0.4619619264015067 13.26056110483874 117978.891221406 8.016456636260905 0.2145953418849304
0.47972662874576866 13.213170810247076 99808.4353769548 8.424426453812112 0.21769943923934948
0.4978841559234207 13.171977434687127 84640.35179638966 8.849608655687572 0.22083426117578012
0.5164229370935767 13.1363930310853 71936.4810829044 9.292875121888386 0.22400319531338794
0.5353415574847857 13.105841874505927 61274.74152415516 9.755111390956332 0.22720917107640534
0.5546449418122791 13.079836971357524 52296.18437725144 10.237127088436784 0.23045353946107047
0.5743308390489801 13.057852354611294 44728.33006250545 10.73939412435363 0.23373300639979727
0.5943899620171106 13.039505512987349 38327.63093297473 11.263155758820238 0.23705374178107574
0.6148257594734599 13.024514698013808 32900.67344562567 11.809350342159878 0.24041736991014032
0.6356306950153027 13.01244332744076 28291.45025074408 12.378956932739161 0.24382552383268016
0.6568012220456533 13.003025910426109 24372.129360931114 12.972665694466897 0.24727616705872438
0.6783330907760158 12.995988008352771 21027.14096036225 13.591801148932813 0.2507740595340399
0.7002200713665219 12.991071262901924 18171.330799347947 14.237562140982767 0.25432185094755216
0.7224544696410101 12.988005415038606 15728.992141829704 14.911138427771098 0.2579215260523739
0.7450440455129788 12.986651888641635 13633.092676524573 15.613560143756553 0.26157298587705224
0.7679644447750911 12.98676277094484 11835.844366060768 16.34609262315247 0.2652781168771229
0.791210456644723 12.988143652310978 10288.446063514119 17.11035240705051 0.2690416142007963
0.8147862185396199 12.990663863389164 8956.358885161922 17.907794631989105 0.2728659106054288
0.8386672525657111 12.994134054722373 7807.075703083947 18.739782335520832 0.2767520665439469
0.8628490836061707 12.998394563165641 6814.252412875487 19.607664616859147 0.2807006042208764
0.8873289394870861 13.003353643186268 5955.187999859162 20.513525181401857 0.2847178640306715
0.9120850608412654 13.008849105054583 5211.016091068046 21.459158270222186 0.2888068595462588
0.93710424879586 13.014743487847518 4564.958043011065 22.446044976593605 0.29296748775943693
0.9623895497988844 13.020946665381507 4004.3536110885343 23.476216880158503 0.29720359752969067
0.9879106041293689 13.027339910301055 3516.427485274687 24.552093493633073 0.30152126520397193
1.0136524954642987 13.033789104285134 3091.6894502107775 25.67561325856531 0.30592209337168424
1.0396171967433276 13.040243472157922 2721.44264714467 26.848745277488614 0.3104073998763717
1.0657676350985228 13.0465793758951 2398.1512349859195 28.074582726824588 0.31498589174589253
1.0921015571644388 13.052697835783977 2115.707721012938 29.355175059882267 0.3196579761097767
1.1185980889295166 13.058542015336252 1868.4376198727655 30.69328922628949 0.3244284145991875
1.1452286118335466 13.063997231645622 1651.988981608197 32.092313972679044 0.3293051895587414
1.1719929737827095 13.069011303570853 1461.9832220088015 33.55420099467672 0.33428606732370375
1.1988498499786269 13.073463204681591 1295.4262722020694 35.08348778851529 0.3393845814357916
1.2257956706002877 13.077334830873728 1149.0172579432335 36.682191310894346 0.3445974546140503
1.2527906894349463 13.08049955764615 1020.1170511974465 38.35537065053824 0.3499391657632169
1.2798333987547437 13.082933733781042 906.6354855405256 40.10527133665148 0.3554063275991889
1.3068770530447795 13.084527999087715 806.6302120612893 41.93735461139747 0.3610134409759709
1.3339158007335072 13.085236742323177 718.5460294658702 43.85511177398705 0.3667624780692741
1.3609234428188777 13.08503492516872 640.5791415538448 45.86322690921322 0.3726611681666264
1.3878541891403906 13.083777116680393 571.7540169047289 47.96703554690315 0.3787194812238426
1.414711497774988 13.081485629390675 510.79431359564126 50.17129602878739 0.38494307695884794
1.4414341443597918 13.07803196621486 456.8351348236504 52.481225155221345 0.3913389108838854
1.4680291185066305 13.073430800960521 408.99337065005574 54.90324057448405 0.39791868181079554
1.494438236263612 13.067565656285037 366.50693467477566 57.4435320271516 0.40469145054933536
1.5206499477766116 13.060421068871129 328.8093797324952 60.10872735150414 0.41166698797911905
1.5466339652817982 13.051933524479141 295.27858832384226 62.905931921617906 0.41885583351463973
1.5723506629079231 13.042052517742404 265.45270907368547 65.8427718613893 0.4262693583435274
1.597774338416917 13.030724695718677 238.90573971424752 68.927441417816 0.4339198339967507
1.6228611940470354 13.01790070289391 215.21888297113182 72.16875492450806 0.44182050687788393
1.6476136019141663 13.003564697801854 194.08715999866328 75.57620384043659 0.4499856794543662
1.6719619849683958 12.987627496249035 175.2215183001095 79.15971181829734 0.45842951441665913
1.6958989832104518 12.9700792161806 158.35020726820122 82.9294983293567 0.46716539982887234
1.71937877970958 12.95086863584392 143.2665667933925 86.89828729876398 0.47621482823496397
1.742360758936737 12.929923404447969 129.76989854632652 91.07764823657915 0.4855921083852004
1.764844538629696 12.90728003085471 117.67047140041964 95.48168729112403 0.49531922677098983
1.7867713197547122 12.882845039784353 106.81155941364653 100.12405715840328 0.5054136442177896
1.808109952595273 12.856587995183835 97.07956041164888 105.02129142295975 0.5159010933479609
1.8288199316696834 12.828453111182132 88.32431075933879 110.18993142956843 0.5268041119209841
1.8488989613123228 12.798488486169378 80.46045851229039 115.64762377653356 0.5381461300921503
1.8682766025079411 12.766549043121122 73.38199774518186 121.41454942605375 0.5499563762970188
1.8869552496054147 12.732729748339702 67.00454214876018 127.51214545708437 0.5622647013276648
1.9048788215862626 12.696914013522923 61.25153997594764 133.96283432338285 0.575100337516974
1.9220203212289162 12.659097568777916 56.07036256827032 140.7923275491127 0.5884996816844795
1.9383339921719944 12.619209531715155 51.38968700461077 148.02829555607747 0.6025009731281382
1.9538309961546787 12.577366474301563 47.15872460388258 155.6992349871692 0.617139967522958
1.9684477066361676 12.533438249758364 43.33863147846449 163.83879441380506 0.6324642697332099
1.9821618517055168 12.48743787322414 39.87535249237254 172.48075973753316 0.6485154820968646
1.9949533255845437 12.439362911890148 36.744265512182 181.6644009243331 0.6653467041699435
2.006788686427299 12.389203526051883 33.903094616742635 191.43173236270843 0.6830123911583926
2.0176354330706325 12.336930450893941 31.325476669329614 201.82878891008943 0.7015717774249264
2.0274725786303684 12.28254544520641 28.99009861098836 212.90550501174766 0.7210874878065429
2.036282647475719 12.226081721559162 26.8677721028284 224.7173974887238 0.7416299497460672
2.044027946059402 12.167487258926636 24.939633184882904 237.32559989969062 0.7632761953839993
2.0503158304630404 12.108185174815183 23.243001022121746 251.01565717936677 1.082745286241376
