M[M_sun], R[km], Lambda[1], P_c[MeV/fm^3], rho_c[fm^-3]
0.24162668629717493 15.618656898711224 2160425.4255784233 3.5677272577965504 0.1711233750220791
0.2536404101186415 15.277385526063162 1723250.362158621 3.7847700932463844 0.17388755590049945
0.26603401889054024 14.981407714210663 1383095.1912842772 4.011297401440466 0.17666540333998343
0.27880607609728864 14.723684410189447 1116567.402299846 4.2475668134624245 0.17945564220848978
0.29195756448149185 14.498618325177567 906102.2006202122 4.494202745169383 0.18226482477204972
0.30548895831880013 14.301434288321893 738791.848395693 4.751356900291643 0.1850885809126071
0.3194017714212353 14.128371901413512 605217.6582427893 5.019717918138614 0.1879336691401685
0.3336964486794502 13.976205405136858 497835.18757223565 5.299501100972062 0.1907965414635435
0.3483722418487618 13.842274418798956 411153.9393319052 5.591445095053429 0.19368369789860185
0.3634311095490953 13.724232377015035 340785.3409911457 5.8957044769010825 0.19658996710269297
0.3788796540228714 13.620255465297232 283418.0065758265 6.213148470594035 0.1995231384480004
0.3947084396030261 13.528685999712627 236519.40303310845 6.544043829158337 0.20247955690508693
0.4109285972369224 13.448102225033168 197965.13244440113 6.889074179262404 0.20546261711624764
0.4275305445293616 13.377290239686577 166151.9109631318 7.248952639128615 0.2084755421524467
0.4445216377974048 13.31513315967982 139886.73690032546 7.623951567690474 0.21151409389083198
0.46189755308839037 13.260745559919517 118050.76119285541 8.014993063851216 0.214584019969094
0.4796573492101429 13.213312192507118 99875.0064710999 8.422793947768765 0.2176871650761051
0.49780779107832746 13.172141774718376 84698.43931860338 8.847813236039325 0.22082126157040302
0.5163405828160479 13.136538000967185 71987.20810584848 9.29088773668537 0.2239892039976597
0.535252308836739 13.105975482319032 61318.38863261547 9.752918567800503 0.22719415784835162
0.5545537083032404 13.079917727305615 52340.040934977485 10.234714536405832 0.23043747280568394
0.5742304647644612 13.057931274771953 44764.1430543321 10.736772326341509 0.23371617364442807
0.5942800384101429 13.039601413672948 38360.68966019045 11.260285291899399 0.23703580705180952
0.6147104859604747 13.02456924333972 32928.925200761696 11.806214252330491 0.2403982972515273
0.6355055118051803 13.012488896398313 28317.84498449815 12.37553720842699 0.2438052753912741
0.6566695287720459 13.003067107223371 24391.868320313384 12.968978039366217 0.24725508993436301
0.6781951824363942 12.996014621297487 21046.826624172736 13.58779320483771 0.25075174437511083
0.7000757859440134 12.991091415965887 18189.068427685714 14.233212422290208 0.25429825351135693
0.722302772658744 12.988009307116515 15743.947258842096 14.906424068568466 0.25789659945817844
0.7448831385443064 12.986657569700524 13647.419539053892 15.608502800889054 0.2615471360949817
0.7677954493892528 12.98675179193165 11847.02245082828 16.340623820003646 0.2652508562650492
0.7910334660461268 12.98812408342092 10231.5559004648 17.104444702504576 0.26901288703410603
0.8145998661323106 12.990636361542148 8966.419415330349 17.901418765854142 0.2728356575765147
0.8384727686947511 12.994112383340594 7815.045911336923 18.732966585031235 0.2767207516970112
0.8626472425448167 12.998371279507532 6821.920407627421 19.600320375280468 0.28066765524068366
0.8871137804080642 13.00330595578936 5962.0698166026805 20.50561710861727 0.28468320962956334
0.911866337301622 13.008803111942479 5216.7897937296875 21.450648606425286 0.28877042363016836
0.9368782597182116 13.014693549918917 4570.390676089053 22.43696916616862 0.29292979200991437
0.9621485042926218 13.020881916817611 4009.2198052608287 23.466461048510325 0.2971639761986274
0.9876667347261894 13.02727381656648 3520.664934715975 24.541611731165712 0.30147962613761536
1.013405229222722 13.033737035510878 3095.8554376880907 25.664446133718418 0.30587899728623325
1.039355671678555 13.040190450975528 2724.823373501808 26.83675629588972 0.3103621076627416
1.0655018388236994 13.046521066928406 2401.322627973396 28.061715781360316 0.3149382913196435
1.0918231924220478 13.052640167594706 2118.4639239056887 29.341475746813078 0.31960866699414875
1.118313909198655 13.058478169805603 1870.969490589658 30.678594022868975 0.3243765763168962
1.1449379412400427 13.063944149545234 1654.0857037427104 32.076665744277506 0.32925140835236927
1.1716928684129482 13.068952850666916 1464.0651037931373 33.53742646666965 0.3342295354347937
1.1985399421187617 13.073417526623835 1297.1262045491412 35.06550271893114 0.3393251096864402
1.225479749788252 13.077290979958917 1150.5510719879398 36.66304788212335 0.34453570087617413
1.2524681356985043 13.080459593806687 1021.5549617067744 38.33486399854911 0.34987424658223787
1.2795031984663738 13.082908359703104 907.9441714479279 40.083424265112136 0.3553387400584812
1.306540764947787 13.0845062979928 807.93670827212 41.91409217564378 0.3609431151084439
1.3335719918436113 13.085230295706218 719.5911193039879 43.83017322571545 0.36668834780654347
1.3605737858811788 13.085040060216373 641.5271597975684 45.83666449257446 0.3725839282672725
1.387499945494237 13.083795184458598 572.6144870912647 47.93873583301047 0.3786389311027576
1.4143508609815554 13.081523049288698 511.5509890400817 50.14094878046117 0.38485804062470197
1.441076897675873 13.07810294720363 457.533386125056 52.44887853745767 0.39125009919073667
1.467152877134782 13.07327160175269 410.3705987196755 54.88910493968884 0.45608724104760945
1.490007672886507 13.064526277509573 372.2113954190245 57.55647486946197 0.5621342802852508
1.5097042171652704 13.05017357564281 340.7068954326843 60.47202409800991 0.6659929859595326
1.52669987930648 13.029971279830379 314.1046333702437 63.64572215423975 0.7679750258091931
1.5413617547030434 13.003970182704737 291.0749676079366 67.08863337987171 0.8684550651372123
1.5539779304042374 12.972211678495327 270.8096612435395 70.81271190364227 0.9675142196815592
1.5648334629822376 12.934963069759371 252.778903772476 74.83132977865397 1.0658263603562441
1.574174737455722 12.892560779265564 236.40306131024676 79.1584903253636 1.163532926713462
1.582176360471732 12.845248031991778 221.49412705198964 83.81031800372786 1.2611002326390672
1.5890829828061053 12.793484198156422 207.7097181287276 88.80445758613686 1.3588923266933228
1.5947799633216062 12.736758661693555 194.97063841861817 94.16014522390407 1.4572128902428625
1.5996603972593655 12.67619421153319 183.06255598341048 99.89852557795106 1.556114221508923
1.603737381546948 12.611715998414477 171.9076372813118 106.0405751052461 1.655625218519329
1.6070839777250077 12.543566224287625 161.42295281856084 112.61470104558215 1.758394092114189
1.6097809433574661 12.472055651444988 151.56117916803953 119.64808416936309 1.8648259165630237
1.611859243091961 12.397336199602492 142.26912970432656 127.17473367104246 1.9756369628737958
1.613399290982224 12.319842264491616 133.50387042770797 135.22993468938844 2.0917126161275075
1.614314321719367 12.23921975446964 125.25732335780897 143.8533057283942 2.2145185905538507
1.6147530744969787 12.156289767269373 117.50115611557409 153.0893537031854 2.346946419772657
