M[M_sun], R[km], Lambda[1], P_c[MeV/fm^3], rho_c[fm^-3]
0.24162668629717493 15.618656898711224 2160425.4255784233 3.5677272577965504 0.1711233750220791
0.2536413007824824 15.277382574891314 1723206.567906772 3.7847878481632145 0.1738877772069725
0.2660365322445078 14.981336514626333 1383104.1148038155 4.011334725291944 0.17666585437670151
0.27880925548289603 14.72363510839845 1116575.2970463664 4.247624968429839 0.17945631671847412
0.29196236313423823 14.498497017501924 906019.3847713061 4.494283256721878 0.1822657212868725
0.30549522602934376 14.301349916778685 738780.9739509622 4.751462501517089 0.18508972160738488
0.31940835901787124 14.128287359087775 605236.4600657804 5.0198493863292315 0.18793503317338822
0.33370337241024256 13.976177028385006 497808.5279872313 5.299661896550739 0.19079816040821268
0.34838309287815755 13.842128867746752 411089.4661763395 5.591635618876735 0.1936855412690036
0.3634435779189152 13.724123268628869 340735.3999703802 5.8959290084244245 0.19659207595027614
0.3788940423428903 13.620128808321043 283391.34943943296 6.213409726067184 0.19952552078334346
0.3947228600246285 13.528591616020272 236465.41567273994 6.5443415367241 0.20248216739825545
0.41094439826405244 13.448030078101718 197931.91363187804 6.889414084912151 0.20546551189539675
0.42754865331362 13.377193335223518 166141.27542335374 7.249337931401146 0.2084787295766754
0.4445416886896487 13.315034403438846 139857.06809431704 7.624381181119206 0.2115175138899652
0.46191884429597596 13.260682946383149 118028.90727370615 8.015474490276402 0.21458774419170934
0.4796801076210595 13.21329064085854 99851.45830219578 8.423330939959245 0.2176912025066762
0.49783295993336574 13.172121841031737 84680.08795807118 8.848403813563444 0.220825537604012
0.5163676782082092 13.136488978929693 71970.33980120202 9.291541454752723 0.22399380621360843
0.5352821979857059 13.105925291120286 61304.28191908571 9.753639857196541 0.22719909617735762
0.5545843077969869 13.079905991091538 52325.00525824816 10.235508097078284 0.23044275761019345
0.5742621830848037 13.057915172421598 44752.20755849697 10.73763471004292 0.23372171041492418
0.59431756535664 13.039580084060493 38347.115978660506 11.261229464489576 0.23704170625923895
0.6147478372206875 13.02455013647179 32919.30377674773 11.807245789474523 0.24040457071844473
0.635545832028959 13.012479246281988 28310.146741090437 12.376662033554151 0.2438119355643174
0.6567134358346718 13.003048989747514 24384.094737748615 12.970190987237233 0.24726202264700106
0.6782403503946587 12.996000957928235 21040.186636563587 13.589111495099297 0.25075908426209625
0.7001232465631579 12.991071927951946 18182.27191562031 14.234643120735763 0.2543060151202493
0.7223535203284703 12.988004344228674 15739.588076773365 14.9079746948709 0.2579047982039524
0.7449364568978795 12.98665447838269 13642.530498936863 15.610166232081637 0.26155563845184066
0.7678515949851129 12.986751785848757 11842.83613847918 16.342422576087973 0.265259822612986
0.7910911382738272 12.988126900611626 10295.747793813145 17.106387807581807 0.269022335696106
0.8146619072362233 12.990642517265918 8962.513849968238 17.903515842167472 0.27284560805367325
0.8385385923471111 12.994103749915617 7812.559674489527 18.735208332591082 0.2767310513671374
0.8627101687127429 12.998392299216016 6819.209360106373 19.60273593338712 0.28067849232649544
0.8871823129628871 13.003335915572542 5959.781556825969 20.50821809867657 0.2846946075712931
0.9119396332424149 13.008807722696705 5214.887539266542 21.453447445454845 0.28878240744838557
0.9369528962418976 13.014701107794643 4568.576872135669 22.439954197507546 0.2929421901306771
0.9622266820190374 13.020898313729994 4007.3797986651907 23.469669719852426 0.2971770075663368
0.9877462281582959 13.027302661692774 3519.2393491419657 24.54505913921486 0.30149332105323323
1.0134819486490525 13.03375595705485 3094.3410808005474 25.668118937071185 0.3058931713417136
1.0394417543945578 13.040208432451124 2723.666253294576 26.840699379638153 0.3103770039231139
1.065591088140772 13.046538725925496 2400.1612034766736 28.06594759511962 0.31495394663887283
1.0919138728892956 13.052664801811435 2117.3996071052698 29.345981296182245 0.3196248842054563
1.118407875154608 13.058499667571347 1870.1492113329089 30.683427079624146 0.3243936252377743
1.1450338291264583 13.063955910630034 1653.4361085591895 32.08181562809809 0.3292691182808066
1.1717910926224642 13.068971792544517 1463.415413790326 33.54294332344016 0.3342481278109221
1.1986415548659666 13.073431740662638 1296.5280421709544 35.071417664653794 0.3393446688083996
1.2255842345130898 13.077302257527927 1150.0420334765047 36.66934375740758 0.3445560103952605
1.252574351193255 13.080476305158868 1021.1045318084201 38.3416132112251 0.3498956266084209
1.2796119958946113 13.082923050465906 907.5184721897582 40.090609227119494 0.35536096793059124
1.3066522398425238 13.084510848790627 807.512777523308 41.92174257446658 0.36096624342311556
1.3336847568378993 13.085228272794817 719.2158871609014 43.838374798001176 0.3667127271209175
1.3606887246680797 13.08504096895068 641.2244466104228 45.84540005950601 0.3726093301092724
1.3876158064450155 13.083791239246215 572.3275585090646 47.94804269071424 0.3786654214241016
1.414468466109607 13.081508523932092 511.30075584050974 50.15092893511437 0.384886006117876
1.4411978307418247 13.078084859917213 457.30772589412487 52.45951615204379 0.3912793060948204
1.4677811684516553 13.073480536285077 409.40356825269765 54.8800935512416 0.3978563741871282
1.4941880479630458 13.06762534710608 366.88751057101575 57.418843088914706 0.404626258149981
1.5203985262337871 13.060496433548094 329.16397505682164 60.08238412209013 0.41159871473648546
1.546379879280656 13.052023828547407 295.5858842580026 62.87781277717577 0.4187842680564634
1.5720947019204907 13.042158273025047 265.72861305804895 65.8127450867152 0.4261942726970929
1.59751745867983 13.030848268424684 239.15891492807015 68.89536427671277 0.43384098216275085
1.6226043242286483 13.018048312585107 215.45562754086384 72.13447263443835 0.4417376232596687
1.6473564748551899 13.003723564727528 194.29445551246044 75.53954844050884 0.44989847712660924
1.6717053164434064 12.987809642985512 175.41506172257573 79.1206922825585 0.4583384822861929
1.695642897918135 12.970282655367077 158.52310861987542 82.88773402946067 0.46706942558934866
1.7191091563315328 12.951056407577546 143.43047562622283 86.85356328231306 0.47611355034233743
1.742112551943307 12.930174667644971 129.92139575571315 91.02994588606703 0.485485988213915
1.7645979150855595 12.907555573259916 117.79766872163137 95.43054716009743 0.4952070139044811
1.7865240823848618 12.883134723348165 106.93030941489327 100.06943472039565 0.5052957713662966
1.8078648295565798 12.856903532471753 97.18360817144053 104.9629034832198 0.5157771064355372
1.828591763682571 12.828818371854354 88.4272888225051 110.12733858157101 0.5266730340226345
1.8486633164545612 12.798857512145844 80.54830579909206 115.58049470467337 0.5380074645941489
1.8680550776000509 12.766977952677104 73.45781767142665 121.34263149778488 0.5498099777500438
1.8867309439734927 12.73315954287777 67.07697595262532 127.43503497521421 0.5621099412058268
1.9046607652772762 12.697369391924928 61.32091689690809 133.88037293096943 0.5749375331243148
1.9218089908878435 12.65958807602601 56.1324083616361 140.7037584533624 0.5883271154048331
1.938137288613824 12.619759745701943 51.446059244013306 147.9330884728327 0.6023178375666691
1.9536316973419923 12.577908554218189 47.21133788724013 155.59712099679788 0.6169464512894498
1.968260846466487 12.534028314606314 43.383108696676466 163.72901188219606 0.6322589782136102
1.9819884746773848 12.48806537831371 39.920051233559334 172.36258529185443 0.6482972859038454
1.9947880698949831 12.44002240075869 36.78223574725261 181.53726329652946 0.6651151212180361
2.00662905228493 12.389883594665633 33.94087762561194 191.29480611788676 0.6827662372058934
2.017493996361113 12.337663847034 31.359584969118817 201.68116350874078 0.7013097568995776
2.0273431234109047 12.2833201584776 29.02133868395182 212.74654710497825 0.7208094004587992
2.0361666938000322 12.226890302811825 26.897430634742236 224.54563614045554 0.7413330561665278
2.0439243213345164 12.168340262670343 24.96702422057984 237.1401984971467 0.7629600689613989
2.05059891784494 12.107672110705137 23.210155387327873 250.5963174076127 0.7857707404859776
2.056181343389283 12.044944757362657 21.61423893012601 264.98746611657145 0.8098547402364181
2.060650602004871 11.980158764914883 20.16067716402974 280.3953862515457 0.8353120985360326
2.0639792446445857 11.913317846246867 18.839128428988612 296.9090196834498 0.8622475913360063
2.066151533934307 11.844446199136184 17.635164150441014 314.62869309659254 0.8907819617235834
2.0671625267915084 11.773596737439771 16.53858843714865 333.66408068064874 0.9210424456746114
