M[M_sun], R[km], Lambda[1], P_c[MeV/fm^3], rho_c[fm^-3]
0.24162668629717493 15.618656898711224 2160425.4255784233 3.5677272577965504 0.1711233750220791
0.2536450268291578 15.277272150545466 1723219.056534016 3.784839803447359 0.1738884248045253
0.2660418632180714 14.981247038615415 1383009.262016784 4.011443945552759 0.17666717423909606
0.2788180191120842 14.723450696983466 1116477.5000712853 4.247795148639665 0.179458290552452
0.2919739021104134 14.498367278718838 905855.9529569402 4.4945188624153305 0.18226834481095033
0.3055110653847506 14.301133410171868 738572.6513609253 4.751771532451241 0.18509305973126813
0.31942831703885166 14.128070580907174 605033.1859539701 5.020234118766942 0.18793902492092257
0.3337264337484707 13.97589301034646 497638.18909893197 5.300132459254032 0.1908028981938301
0.34841079527394087 13.841944815717223 410955.6738707219 5.592193186581621 0.19369093588992997
0.3634751611256513 13.72392570974215 340621.19515238993 5.89658610742357 0.19659824756313307
0.3789302509334469 13.619915822717275 283270.2125533312 6.214174307948426 0.19953249284948388
0.39476382469128823 13.528371397795128 236374.38312847604 6.545212807513912 0.20248980726605292
0.41099074229202986 13.447790207302003 197839.91509950743 6.890408864091459 0.20547398385233062
0.42759991251209145 13.377001290745866 166051.5154798922 7.25046555353944 0.20848805810564072
0.44459695322858894 13.314885785525762 139776.24604889215 7.625638529456237 0.2115275231912003
0.46197890745866793 13.260502703308843 117948.45907570048 8.016883495481702 0.21459864398610412
0.47974704044020205 13.213103725970806 99791.04850380213 8.424902588845494 0.21770301910917597
0.4979057686797337 13.171938437289999 84624.44656412008 8.850132311112645 0.2208380526647984
0.5164467859598428 13.136361550746837 71923.72512416652 9.2934547727785 0.22400727609179139
0.5353651361554559 13.105831462909082 61260.68468719893 9.75575096800434 0.2272135499594239
0.5546763418826265 13.0797846906866 52289.67313802969 10.237829468597088 0.2304582090267566
0.5743612613989134 13.057804174797646 44717.47128701523 10.740158835464264 0.2337379160820054
0.594420363251269 13.039492261277715 38319.279297651265 11.263993009419536 0.2370589729379713
0.6148593907788664 13.024479735662196 32892.60715358454 11.810265078976942 0.24042293303619275
0.635666228339133 13.012426785503697 28283.576647946873 12.379954411144881 0.2438314299763363
0.6568389861279775 13.002998539767352 24363.169163792576 12.973741333839625 0.2472823149722922
0.6783725149462279 12.99596795191689 21021.387621255275 13.592970225000306 0.2507805686363695
0.7002641782544318 12.99105724472494 18166.8416344665 14.238830922985263 0.2543287341518386
0.7225005584424404 12.987988725767138 15723.65246055462 14.912513587794626 0.2579287970417888
0.7450907638374379 12.986646104152546 13629.033808470736 15.61503536405977 0.26158052622469
0.7680140617379134 12.986768137692069 11832.326634744242 16.347687883260072 0.26528606884865424
0.7912623853077397 12.9881452382539 10217.980562827155 17.112075714346872 0.2690499940606177
0.8148390505358455 12.990663596237091 8953.15234817591 17.90965452478427 0.27287473566375314
0.8387238345178175 12.99414555989858 7804.9381023807955 18.741770564033388 0.27676120142522503
0.8629073377623229 12.99841026098012 6811.541527926001 19.609807035581976 0.2807102159025329
0.8873915788467409 13.003368375078374 5953.112897300019 20.515832103192693 0.2847279733196528
0.912150238068102 13.008867123574083 5209.260699451315 21.461640714199795 0.2888174886524874
0.937171498185708 13.014754907872446 4563.500290970099 22.448692601124982 0.29297848448441144
0.9624588550455243 13.020968920263835 4002.8676421822856 23.479062914710653 0.2972151561216462
0.9879798587186731 13.027352526951734 3515.093681289001 24.555151336134635 0.3015334125606046
1.013725401328501 13.033813157333933 3090.5818002480664 25.67887107162509 0.3059346658997013
1.0396924154222014 13.040272747786686 2720.3226041902767 26.852242893111693 0.31042061323838166
1.0658466031679406 13.0465991985214 2397.221329582022 28.078336519583164 0.3149997786575807
1.0921812926125316 13.052729257512164 2114.733709421918 29.35917172454155 0.31967236164858553
1.1186824653528382 13.058558570257556 1867.6148383615625 30.697576484678184 0.324443538180961
1.1453164647703633 13.064008967763952 1651.2087927330163 32.09687783080882 0.3293208705257534
1.1720806110460003 13.06901986615276 1461.3632505010733 33.55909499261962 0.33430256060136365
1.1989390211520112 13.07348195570393 1294.8397478430854 35.088735028225884 0.33940193263498464
1.225887492229819 13.077345717387184 1148.5240059188684 36.68777656378571 0.3446154717752993
1.252886377318364 13.080506683648647 1019.6668589806533 38.36131658582183 0.3499578889434086
1.2799301638630918 13.082941784902276 906.2980449709136 40.11164554488249 0.3554260472699703
1.3069822225804826 13.084545846508815 806.4052764130982 41.944141844059004 0.36103395980856795
1.3340152159166363 13.085242689492702 718.2516910484253 43.862388137348006 0.36678410718424087
1.361024346256944 13.085031475296892 640.3153620752374 45.870977155156545 0.3726837048290383
1.3879579174387797 13.083764564863825 571.5310284041825 47.97529278336757 0.3787429839843143
1.4148083743613167 13.081458476684984 510.58013111021535 50.18015081164051 0.3849678890362196
1.44154109729997 13.078014649451479 456.6507028744455 52.490663426043895 0.3913648248393496
1.4681355707786181 13.07341124950891 408.7986387934033 54.913304130631644 0.3979457710940537
1.4945473779689675 13.067538330825448 366.34541784632125 57.454266051902984 0.40471979428860666
1.5207601859146034 13.060386119547918 328.6854312122098 60.12018071724074 0.4116966714475206
1.5467436459426216 13.05189455290027 295.13186849946675 62.91815752325754 0.418886948642791
1.5724612244339529 13.04200789918537 265.32596790275176 65.85582698344443 0.4263020042833405
1.5978746463001525 13.030667793164834 238.79032442044422 68.9413881388545 0.4339541177419458
1.622972930408436 13.017844500128211 215.1245390452711 72.18366056326303 0.4418565439474411
1.6477255917832418 13.003493447199837 193.98315433345962 75.59214144833305 0.4500235946458574
1.6720728945609364 12.98755258385958 175.14316184276527 79.17667748912505 0.4584690951326003
1.696010646569909 12.969990944592054 158.28182292422665 82.94765761558808 0.46720712981574364
1.7194894702012409 12.95077322441839 143.2017577226428 86.91773369415463 0.4762588647527153
1.7424723625513188 12.92981815370021 129.71589666273277 91.09838983499947 0.4856382508069777
1.764953571495237 12.90716450964667 117.60638386728205 95.50392393644813 0.4953680189360325
1.7868796719078324 12.882723070906616 106.763487222499 100.14780821372041 0.5054648979647536
1.808216122255989 12.856449789022555 97.03431280118069 105.04668006813658 0.5159550061892105
1.8289293800081037 12.828315161525321 88.2870098570632 110.21709202511343 0.5268608975013395
1.8490027434446894 12.798323432084961 80.41866669936078 115.67681398856872 0.5382064269974471
1.8683756571517718 12.766375104964453 73.34656643160757 121.44582237051793 0.5500200365516922
1.8870510412554526 12.732546064451718 66.96935409948448 127.54555849246431 0.5623315759242778
1.9049715640343594 12.696716823091649 61.22040308144056 133.9986928221027 0.575171133327412
1.922113208378728 12.658883969807496 56.04300222090539 140.8308424835432 0.5885747234232394
1.9384219776756941 12.618983217346203 51.36234118634865 148.0696976115641 0.6025806120417474
1.9539151187293227 12.57712366325167 47.13635409080912 155.7436411389313 0.6172241216256656
1.968527541891518 12.533184059516342 43.31811721899521 163.88647380613332 0.6325533352343224
1.9822386973635597 12.487168123278142 39.85732745800896 172.53215146258353 0.648610371298115
1.9950220439902364 12.439075360533554 36.72543442992741 181.71969130846588 0.6654474163712859
2.0068552358355642 12.388900882106109 33.884345923332845 191.4912805174026 0.683119441590259
2.017697660925306 12.336611138748331 31.312303758609794 201.89299098121202 0.7016857297681569
2.0275297767786546 12.282216145869311 28.976907171514302 212.9746365324887 0.7212084292660718
2.036333248829207 12.225729667336456 26.8561413260796 224.79209845878657 0.7417590721511986
2.044071968550725 12.167120628887975 24.929743833778783 237.4062343022975 0.7634136844476463
2.050725312987484 12.10639631923648 23.175612652988775 250.88414521789952 0.7862555121049655
2.056292828288418 12.043632377561773 21.583665908593613 265.29916352386863 0.8103733383867321
2.0607329398283576 11.978766395382282 20.131865966710766 280.7326212224072 0.8358653731152644
2.064031685389513 11.911854557118039 18.812446923882103 297.2748057931277 0.8628402303756474
2.066187935216204 11.842936155731993 17.611271054612526 315.026047740147 0.8914180483542707
2.067171695913099 11.772030129107259 16.51547052462744 334.0956243392406 0.921724034411893
