M[M_sun], R[km], Lambda[1], P_c[MeV/fm^3], rho_c[fm^-3]
0.24162668629717493 15.618656898711224 2160425.4255784233 3.5677272577965504 0.1711233750220791
0.2536440495393144 15.277270648151491 1723297.3161669003 3.784820887747526 0.1738881890294521
0.2660401132780505 14.981258826846997 1383020.8705570118 4.011404180772373 0.17666669370519267
0.27881515259750167 14.723513519341852 1116534.9221234922 4.247733189264185 0.1794575719170672
0.29196967390998707 14.498425942036 905913.915577562 4.494433082366392 0.18226738963019687
0.3055047388437528 14.301231528668984 738625.3652020929 4.751659018848662 0.18509184436962484
0.3194220468137898 14.128125534351152 605097.4857123118 5.020094042581155 0.18793757157643057
0.3337207251691234 13.975903056063085 497672.3359494568 5.299961132373203 0.19080117321642287
0.3484006012714766 13.842029963475195 411007.4974093699 5.591990181013309 0.19368897175521166
0.36346337315265476 13.72398221242432 340646.4464544258 5.89634686202655 0.19659600051973455
0.37891641590085046 13.620011325046796 283305.3544895795 6.213895927189365 0.19952995435215348
0.3947490093394976 13.528447626337776 236417.20636294628 6.544895580192798 0.20248702561099988
0.41097415094794043 13.447873122146557 197869.97840513827 6.890046665717485 0.2054708992189872
0.4275817605615952 13.377080728353638 166082.10667186513 7.250054984904673 0.20848466157654502
0.44457683566448397 13.314947618343547 139799.36788975284 7.625180725117197 0.21152387877429432
0.4619579666310323 13.26057153647763 117982.54744558985 8.016370469669104 0.2145946753166801
0.4797229724096286 13.213151663720438 99807.37558099267 8.424330340607122 0.21769871660241177
0.49788034803309855 13.171982798998634 84645.41586088645 8.84950295024131 0.22083349582318473
0.5164179625081164 13.136405565573265 71938.26456648129 9.29275811351136 0.22400237156711905
0.5353361966548758 13.105848770787226 61275.1776475194 9.754982286267815 0.22720828715736868
0.5546446498191624 13.079813806076592 52301.71471833625 10.236985045845438 0.2304525935128231
0.5743256632216177 13.057838119780735 44729.37297976968 10.739239761027964 0.23373201533943072
0.5943822332919125 13.039533024827518 38329.43433269784 11.262986753294491 0.2370526858314925
0.6148193063816225 13.024516242568087 32903.083389073785 11.80916569598763 0.24041624695333771
0.6356225250313171 13.012438434300787 28291.844434278428 12.378755585181683 0.24382433163885175
0.6567932909256756 13.003033271188416 24177.517779355854 12.972448570146877 0.24727492606514714
0.6783255913559179 12.995972007253613 21028.46777988477 13.591565164546198 0.2507727456361992
0.700212847053949 12.991068412551774 18173.045391484022 14.237306031164843 0.25432046153929044
0.7224476035462195 12.988002147746501 15615.428509254009 14.910860845852751 0.2579200583721363
0.7450351296693667 12.986652367833113 13634.605785878148 15.613262364972085 0.26157146382943053
0.7679542947857536 12.98675585269042 11836.577930187132 16.34577061483251 0.26527651174641037
0.7911989788488668 12.98813134180472 10289.013773014987 17.110004553030354 0.2690399227044895
0.8147738577355456 12.990658208482074 8956.495131245487 17.90741920895118 0.27286412924995784
0.8386556562925725 12.994124079155364 7807.571240264317 18.73938100864074 0.276750222654585
0.8628369354548487 12.998404177452645 6814.666319153995 19.60723216774961 0.28069866409445327
0.8873167076992056 13.00335371793076 5955.424564042809 20.513059528603282 0.2847158234679075
0.9120706645774609 13.008852031727088 5211.114967604377 21.45865718973766 0.2888047140647304
0.9370928888815295 13.01473496128661 4565.413386675846 22.445510555780924 0.2929652680796341
0.9623699348805376 13.020935753548002 4004.414242791462 23.475642412203577 0.2972012644446346
0.987894926560011 13.027339464432242 3516.5541085946306 24.55147627445095 0.30151881328516905
1.0136379072585082 13.033789952365257 3091.8743775763805 25.674955677379113 0.3059195556392437
1.0396020447951433 13.040239190548329 2721.504732333736 26.84803929497706 0.31040473280156905
1.0657523660955404 13.046570170231101 2398.3221907006105 28.073825038167648 0.3149830887260822
1.0920839067476706 13.05269646226573 2115.8490081975856 29.35436835052535 0.3196550724514139
1.118582973797243 13.058530904189533 1868.7155577410822 30.692423864631852 0.32442536197986616
1.1452123804131484 13.063990466291227 1652.1091734439592 32.09139278314972 0.3293020244422522
1.1719758114011412 13.069007200309056 1462.0861742460406 33.55321317148864 0.3342827382577111
1.19883145948619 13.073463166211747 1295.5025715217735 35.08242866917701 0.33938107921526783
1.2257769168459636 13.077329301854208 1149.1136665598337 36.68106396896734 0.3445938179835025
1.2527721020908869 13.080493887459593 1020.2020412682306 38.35417051083908 0.34993538663835744
1.2798140832108427 13.08293890964829 906.7201987107055 40.10398475789342 0.3554023473543297
1.306858794254688 13.084522529015125 806.7638247061165 41.935984671115015 0.36100929943895194
1.3338950756852412 13.085236917097037 718.6218859647921 43.85364311238123 0.36675811244744577
1.360902330193718 13.085034745322556 640.6405688476485 45.86166260370475 0.37265661937870265
1.3878334102088292 13.083774583482425 571.8264163315719 47.96536891567375 0.3787147374533634
1.4146902416954517 13.081487256320125 510.83546658256984 50.169508796086035 0.38493806893586163
1.4414135071473997 13.078033131601588 456.8870243476801 52.47932015831361 0.3913336804761174
1.4680073476694726 13.07343507436908 409.02178705573095 54.901209377981665 0.39791321419511383
1.4944162580600433 13.06757111594051 366.5367665862577 57.44136551237528 0.40468572975668116
1.520628029106351 13.060427222715575 328.84405592319126 60.10641565530533 0.4116609968003992
1.546611599868575 13.0519403673547 295.29899651812383 62.90346436909573 0.4188495533972917
1.5723272868260598 13.042063133467696 265.4734043904632 65.84013689182356 0.42626276927775775
1.5977515685628412 13.030735428414665 238.92919346158953 68.92462650305261 0.43391291439032653
1.6228381739531206 13.01791553133392 215.24385219800098 72.16574647894186 0.4418132334182281
1.6475914780344472 13.003578430645728 194.10620970123824 75.57298712162768 0.4499780269565506
1.671939739614651 12.987644501823132 175.2400510705222 79.15628761432507 0.45842152578796724
1.6958771869957852 12.970097287762467 158.36737924060205 82.92583323062377 0.46715697744265855
1.7193571506497431 12.950888481164196 143.28095569799297 86.89436243769583 0.476205940355713
1.7423430012526224 12.929947910050384 129.78310982010913 91.07346197950523 0.48558279550411676
1.76482276582275 12.907308189660348 117.68667159960363 95.47719930893572 0.4953093791359509
1.786749435077107 12.882867262422785 106.82289902764595 100.1192635432437 0.5054032998042404
1.8080895664089938 12.856615266818412 97.08759626980058 105.01616731672381 0.5158902122976283
1.8287987878917373 12.828482857667307 88.3330985852121 110.18444971803295 0.5267926511203412
1.8488790724701833 12.798519747253993 80.4679684283874 115.64173246318573 0.5381339606717096
1.868256778787306 12.766584289816263 73.3902537053834 121.40823779177214 0.5499435281225773
1.8869351596264259 12.732766973452188 67.01043926648764 127.50537806471397 0.5622511192251755
1.9048584322221667 12.69695466832814 61.257554222758614 133.95559727335706 0.575086049333139
1.9220018031335437 12.659140404595929 56.07673187056285 140.78455440665942 0.5884845366470038
1.938315864804107 12.61925713135038 51.39274919010158 148.01993977034803 0.6024849003585614
1.9538132824806735 12.577414693462009 47.163251201604076 155.69027295251053 0.6171229835701675
1.9684304071410519 12.533487317835315 43.33980692583075 163.82917181888627 0.6324462946459323
1.9821472682628447 12.487493068207595 39.881433468095516 172.47038797884105 0.6484963317784642
1.9949379447096625 12.43942075417806 36.746693849820424 181.65324240234463 0.6653263787674198
2.0067745414771423 12.389265190967725 33.9043931536275 191.41971461312414 0.6829907867058337
2.0176234190526747 12.336995001116975 31.329336701204014 201.81583199618584 0.7015487801808417
2.0274608298064294 12.282612992363129 28.99196957536011 212.89155333357593 0.7210630801802838
2.0362727772194704 12.226151757385692 26.870824505118502 224.7023219064577 0.7416038912432216
2.0440191917788764 12.167562133932375 24.943004091176633 237.30932696661534 0.7632484485382488
2.0506794514452813 12.106860330863375 23.18838739736992 250.7794068554362 0.7860792773347856
2.0562538005580286 12.044120023474843 21.594246216758798 265.1856545729809 0.8101845373423902
2.0607031821496715 11.979273698917144 20.14304566234351 280.60980404315853 0.8356639243558485
2.064010211722029 11.912382581687964 18.82214292401446 297.141557315335 0.8626243439660124
2.066173280795826 11.843487300807642 17.619473380888806 314.88129778707446 0.8911863321495261
2.0671682642314164 11.772600972736225 16.524584301835393 333.93841805735 0.921475739647196
