M[M_sun], R[km], Lambda[1], P_c[MeV/fm^3], rho_c[fm^-3]
0.24162668629717493 15.618656898711224 2160425.4255784233 3.5677272577965504 0.1711233750220791
0.2536395775172116 15.277415506184926 1723297.5477881446 3.784755636719328 0.17388737570686377
0.2660322801796576 14.981418045410589 1383177.8599369463 4.011267011548148 0.17666503609606965
0.2788045155254158 14.723691984438744 1116615.1503114412 4.247519462698207 0.17945509301098095
0.29195373932542007 14.498672709370286 906062.0184740155 4.494137191665693 0.18226409481857195
0.30548462622638617 14.301502208130492 738871.4344716459 4.751270918960856 0.18508765215013676
0.31939723741430814 14.12840887159545 605257.1160004189 5.019610876308949 0.1879325585398714
0.3336903574666863 13.976216023579697 497871.46596733213 5.299370181422906 0.1907952233209183
0.34836472419017506 13.842335078614779 411182.0635624547 5.591289971619122 0.19368219703670192
0.36342281504172846 13.724274674601679 340824.4482493969 5.895521665590709 0.19658825010017894
0.3788700025328823 13.620304339388356 283457.9981371277 6.212935760171808 0.19952119878506971
0.39469603442554263 13.52874739440916 236538.91225989108 6.543801441176591 0.20247743148993713
0.41091556267402046 13.448166094937942 197993.96697544956 6.888797435861283 0.20546026025331282
0.4275176597561786 13.377302706698268 164191.5544894408 7.2486389446436625 0.20847294703836572
0.4445066060870704 13.315177113471957 139905.6296114769 7.623601789789059 0.21151130943383026
0.4618801791720599 13.260796683595622 118071.30899690985 8.014601103465491 0.21458098783862403
0.479638234461919 13.21338124022703 99891.31495778706 8.422356749973112 0.21768387795987312
0.49778769521523486 13.172181683309963 84710.81622413977 8.847332413381565 0.22081778020892112
0.5163185445824294 13.136576374097867 71999.89464675533 9.290355510460422 0.22398545709185563
0.5352293895424364 13.105995882244587 61331.02142303511 9.752331331209575 0.2271901373158077
0.5545283889457417 13.079946007982482 52353.61799536694 10.234068463567395 0.23043317021261378
0.5742000161645965 13.057957615143753 44771.55118623319 10.736070224705513 0.23371166593444112
0.5942506079988958 13.039663926799525 38365.26509590872 11.259516606488344 0.23703100429145088
0.6146784479088391 13.024599086395101 32936.80109451086 11.80537444448246 0.24039318981862282
0.6354727731260678 13.012514627011601 28325.194853762627 12.374621456425238 0.24379985315572023
0.6566356695228956 13.003076967050339 24398.14119766748 12.967990548332603 0.24724944584055464
0.6781580837260194 12.996026813512342 21051.487155872852 13.586719957332603 0.2507457688205426
0.7000375033361256 12.991093306243462 18193.73203524136 14.232047666799412 0.25429193465597344
0.722261695433052 12.988022438733942 15748.014016433428 14.905161684159964 0.2578899247559513
0.744839837101828 12.986646625910451 13651.240982139609 15.607148586237019 0.2615402142479666
0.7677502537946387 12.986748895231095 11850.532422808428 16.33915944348171 0.26524355671536565
0.7909859550440603 12.988124526518403 10302.31509357334 17.10286281871587 0.26900519486891233
0.8145483793835411 12.990645486788784 8968.688305720163 17.899711542577876 0.27282755692414107
0.8384226527817478 12.994091233144859 7817.71161133449 18.731141592901935 0.27671236680245337
0.8625931712409549 12.998356257707394 6823.88737376825 19.598353895128376 0.2806588328844353
0.8870577593030157 13.003296658949775 5963.806980808257 20.503499681126204 0.28467393073398517
0.9118075209613548 13.00879423482138 5218.54142996126 21.448370124750998 0.2887606678314577
0.9368180793718377 13.014673643999778 4571.868124273877 22.434539119023327 0.29291969897753184
0.962086147266313 13.02086964807805 4010.5076840438983 23.463848954638063 0.2971533677092834
0.987599031303936 13.027266013379192 3521.7810421206004 24.538805302812186 0.3014684775300409
1.0133370382139486 13.03372535632813 3096.8477129356515 25.661456230703138 0.3058674586746745
1.0392839807076792 13.040172081004492 2725.6469706460102 26.833546383958442 0.3103499811934726
1.0654298561692854 13.046500827452022 2401.9734393204562 28.058270843987938 0.3149255469983295
1.0917484607381907 13.052626229271768 2119.0271557314636 29.337807989015925 0.31959546531809374
1.1182368305783559 13.058462484451997 1871.644769560962 30.674659678070153 0.32436269766067916
1.1448592933211994 13.063920442713378 1654.8273834032234 32.07244636479404 0.32923681609673644
1.1716115296557135 13.068945468589385 1464.5174303809322 33.53293552017262 0.3342144004820628
1.1984582511274793 13.07340881850905 1297.6311945674843 35.06068773897762 0.33930918785307795
1.2253948616689323 13.07728003103263 1150.9761877903397 36.65792283534073 0.3445191682685936
1.252381306279974 13.08045051418423 1021.9286370853343 38.32936995220619 0.34985684264783823
1.279415131612765 13.082899514508975 908.2850501602873 40.07757553448657 0.35532064603986036
1.3064501725317716 13.084507276568937 808.1438826596176 41.90786459837462 0.3609242881988854
1.333479431871482 13.085228446911074 719.907917966831 43.82349702244722 0.36666850267775225
1.3604807918086874 13.085046054651329 641.8420425487815 45.829553645107175 0.37256325088877323
1.387405122020142 13.08380100444701 572.859753416577 47.93115998707439 0.37861736779968724
1.414254287699829 13.081529893520479 511.76672499294517 50.132824917356665 0.38483527666501494
1.4409791448050706 13.078117987721615 457.71254108913314 52.4402195465335 0.3912263248459025
1.4675611932752672 13.073523740037288 409.78036499095214 54.859518960053485 0.39780099108790934
1.4939671292475383 13.067680809454911 367.236720697738 57.39689819900764 0.4045683115500551
1.5201737769641295 13.06056522383256 329.4584773103777 60.05896908639926 0.41153803043738635
1.5461538310499798 13.052102981307653 295.8659364494435 62.85281953397293 0.41872065826546123
1.5718676451398486 13.0422517865052 266.00383891644634 65.78605661036309 0.4261275348765644
1.5972842659139317 13.030947551430248 239.3801088317479 68.86685375210557 0.433770897763822
1.622375938512151 13.018167879507136 215.64752411832055 72.10400254647362 0.44166395632747957
1.6471270384130283 13.003861958278268 194.48696993482943 75.50696956886253 0.44982097276302707
1.6714808266246322 12.987969457464128 175.5811421430304 79.08595881837255 0.4582573503647304
1.6954158237679309 12.970459658241092 158.69057683044826 82.85061537454905 0.4669841270284688
1.7188811570988825 12.951245742176825 143.57236096971974 86.8138147062737 0.47602353937427977
1.7418957023243355 12.930409994039632 130.04570527886665 90.9875508393378 0.4853916748399982
1.7643754244857555 12.907795017586384 117.91868574008974 95.38509750372728 0.4951072872099898
1.7863037300160405 12.883393587555421 107.04093291907523 100.02089088833118 0.505191015882716
1.8076463624809593 12.857177840575856 97.28196861850098 104.91101390466535 0.515666918806712
1.828375369117826 12.829127949888408 88.50924751611878 110.07160947488016 0.5265561612566549
1.8484541874262599 12.799183496267444 80.62774657130672 115.5208387004413 0.5378842358751099
1.8678497444086333 12.767333131183834 73.5303902965237 121.27872071972914 0.5496798788266096
1.8865307904401796 12.733541548506011 67.14270593801093 127.36651084115093 0.5619724138155254
1.904464718102326 12.697777610171746 61.38220984445054 133.80709475488945 0.5747928592520613
1.9216030460480833 12.659963023417282 56.1869938465435 140.62505406675615 0.5881737693299585
1.93795510018556 12.620221310621988 51.4946128232351 147.84848688878893 0.6021551022105697
1.9534556405862977 12.578387769160258 47.257447033388154 155.50638333769933 0.6167744943424903
1.9680950406869717 12.53455085467028 43.42587470696294 163.6313037041768 0.6320760260961018
1.981831768629698 12.488620161221673 39.957997982285576 172.25758017807664 0.6481034054422763
1.994637712198353 12.440604342778128 36.817953839349705 181.42429587002513 0.6649093494842764
2.0064911867433914 12.390504409891156 33.97156873720757 191.17314332329943 0.6825475225409379
2.0173728492236287 12.338335101176739 31.39140647992751 201.54999673488842 0.701076948814525
2.0272270336502705 12.284003244308659 29.050183799666264 212.60531385834526 0.7205623213435315
2.036061557766438 12.227611758448079 26.921727552553786 224.39303026313215 0.7410692732745436
2.043833360684319 12.169095118696372 24.989708668620743 236.97547703023488 0.7626792037287425
2.0505207337584745 12.108467866716156 23.232218436962036 250.4179339565974 0.7854700263091651
2.0561166840495244 12.045769471786109 21.633671321588356 264.79444994200446 0.8095335501079354
2.0605992920861036 11.981023597363919 20.180399269714005 280.18627074208575 0.8349684890730069
2.0639428104928834 11.91421837555553 18.856101450780674 296.68256035237806 0.8618806866424346
2.0661295512400666 11.845383024146207 17.650746312173784 314.38269693653865 0.890388170255058
2.0671558306069135 11.77457443323487 16.552975212592543 333.39692649197457 0.9206204969737265
