M[M_sun], R[km], Lambda[1], P_c[MeV/fm^3], rho_c[fm^-3]
0.24162668629717493 15.618656898711224 2160425.4255784233 3.5677272577965504 0.1711233750220791
0.25364425991344763 15.277287702869435 1723217.3449988784 3.7848246575303794 0.1738882360179768
0.26604047600237346 14.981252511818008 1383031.1538964123 4.011412105626496 0.17666678947237782
0.27881642521076694 14.723458633889958 1116459.5478084264 4.247745537318432 0.17945771513588835
0.29197073832553155 14.498394665380797 905859.4292830293 4.494450177662436 0.18226757999028595
0.3055061523468854 14.301225922938547 738670.0887264534 4.751681441873095 0.1850920865810837
0.3194234262751071 14.128093513997102 605123.1743242623 5.020121958527456 0.18793786121514802
0.3337215739589134 13.975942451660062 497674.1576314402 5.29999527621674 0.19080151698827238
0.3484026316354329 13.842013888946603 410998.3636877498 5.59203063802305 0.19368936318791025
0.3634655247639449 13.72397503758686 340641.2974964789 5.896394541154038 0.1965964483321899
0.37891967178617236 13.619974750801905 279385.6333151215 6.213951405446641 0.19953046024705967
0.39475118971682877 13.528449530891866 236406.2279133186 6.544958799999409 0.20248757996329808
0.41097672044902994 13.447884399359278 197866.7983065464 6.8901188475634525 0.2054715139498774
0.42758594075066214 13.37703699647799 166066.43754573428 7.250136806166402 0.20848533846287431
0.44458093910672936 13.314942466415088 139798.77336559587 7.625271959667827 0.21152460505998097
0.46196262611007244 13.260559105995172 117975.06079161134 8.01647270890218 0.21459546621980483
0.47972795754934483 13.213137992910168 99804.36312754068 8.424444381804536 0.21769957403278964
0.49788499344917253 13.171975678661243 84639.92873257119 8.849628372930939 0.22083440393704662
0.5164241532466614 13.136388307623383 71936.15525090195 9.292896947481223 0.2240033489669222
0.535343100855829 13.105834236384375 61273.879123578394 9.75513547289068 0.22720933595407522
0.5546490503202431 13.079823745573679 52297.44919068797 10.237153583697657 0.23045371590917205
0.5743323826710526 13.057836164387854 44728.42605229927 10.739422917820711 0.23373319126277503
0.594389714644129 13.039518204366487 38323.193153114335 11.263187283522756 0.23705393874798755
0.6148270573451692 13.024499546659266 32900.732401512 11.809384784341923 0.24041757937607267
0.6356315901332723 13.012430575293756 28290.21968026109 12.37899449026467 0.24382574621357558
0.6568024865942668 13.00302765988676 24370.111468070463 12.972706194865037 0.24727639854239217
0.6783346860238345 12.995987986719808 21026.77923924872 13.591845167342333 0.2507743046167509
0.700224033939878 12.991048946817271 18172.005292089125 14.237609913437678 0.2543221101154516
0.7224581776451192 12.98800386845871 15728.983492076255 14.911190205471797 0.2579217998205952
0.745045419844904 12.986654759530493 13633.595584323011 15.613615688830906 0.26157326978662787
0.7679661774974785 12.986758606949246 11835.404842548418 16.34615268782978 0.2652784162844745
0.7912113339480501 12.988140719719372 10288.208703783122 17.110417292801966 0.2690419297182335
0.8147871288043723 12.9906695163305 8897.324260273603 17.90786466027386 0.2728662428846327
0.8386697263375589 12.994123760443829 7807.003693599918 18.739857195728717 0.2767524104878684
0.8628513450015672 12.99840317915296 6814.1071391173255 19.60774528239928 0.28070096611628187
0.8873309468419187 13.003356411607875 5954.879661460357 20.51361204054017 0.2847182446608833
0.9120876344279321 13.00884534611025 5210.775001414498 21.459251737813208 0.2888072597474165
0.9371079126277618 13.014735664510367 4565.030377016355 22.446144663274524 0.29296790180115645
0.9623921205430968 13.020950062929714 4004.349348276416 23.476324036985517 0.2972040327254045
0.9879131441156284 13.027332060041468 3516.3496470220102 24.552208625015417 0.30152172256629856
1.013654775290959 13.033792180148154 3091.702318031377 25.675735918830544 0.30592256674127083
1.0396197815688142 13.040250672275285 2721.2615924379515 26.848876966256256 0.31040789737282276
1.065770926704032 13.046580659799899 2398.1748700178587 28.0747240605638 0.3149864146008505
1.0921025447677934 13.052702192633781 2115.6011209492435 29.35532553766343 0.31965851773739506
1.1186014758931115 13.05854139964888 1868.4923945617156 30.6934506447537 0.32442898401327963
1.145233079612884 13.063993887891542 1651.994913006178 32.09248580497013 0.32930577995756877
1.171997053182458 13.069006010940274 1461.999304441844 33.554385256467675 0.33428668830493746
1.1988526155422539 13.073470900985392 1295.3059023075868 35.0836853495338 0.3393852347165209
1.22579900006519 13.077332017951452 1148.9818834733603 36.68240159781057 0.3445981329670903
1.2527953830392446 13.080491490312632 1020.1123600809402 38.35559451679255 0.3499398706965904
1.2798373152903721 13.082935567503924 906.6595447430781 40.10551132685019 0.35540707004868816
1.3068810230279544 13.084527891949659 806.6727134787214 41.93761015146775 0.3610142135123175
1.3339204718722646 13.08523187028544 718.5598521169653 43.85538572910701 0.36676329240556976
1.3609278552450137 13.085030712115225 640.5799622183968 45.86351870533016 0.372662016670097
1.387857958967679 13.083771977176797 571.753413587999 47.96734643042802 0.37872036609870974
1.4147151984935118 13.081482541485046 510.79157833871017 50.171629408842755 0.3849440111265023
1.4414381051152847 13.0780310625452 456.82493636194664 52.48158050255052 0.3913398865345142
1.4680336035542931 13.073430418599408 408.98985616265986 54.90361946260954 0.3979197017094878
1.494442271925371 13.06756471273876 366.4975913298512 57.443936157057195 0.40469251767494213
1.520654363330535 13.060421089607186 328.81006954225114 60.10915856304779 0.4116681055418097
1.5466381662760216 13.05193271940342 295.26341497481803 62.90639220608258 0.41885700497519657
1.5723552939646337 13.042050481457702 265.4432313663186 65.84326337529981 0.4262705874345671
1.5977784964335464 13.030722839129286 238.8986717965515 68.92796649816376 0.43392112474608163
1.6228654847195105 13.017899492889327 215.21013835187324 72.16931610554316 0.44182186363423154
1.6476172467806733 13.003560890985502 194.0861625350242 75.57680387220759 0.44998710691572963
1.6719663619073384 12.987625211482019 175.22125806421528 79.16035055378748 0.45843100457925
1.695903678524788 12.970075175755055 158.34886634276612 82.93018200079278 0.4671669709038413
1.7193837062799895 12.950865343843194 143.26765467275342 86.89901942570658 0.4762164861422757
1.7423640614142502 12.92991592645413 129.77127314187402 91.07842912376317 0.4855938455717506
1.764849058646828 12.90727702757901 117.66946714960257 95.48252446156881 0.4953210637098767
1.7867754291246918 12.882838598375177 106.81126432155568 100.1249513410705 0.5054155738251924
1.8081144849362691 12.856582897561811 97.07672527225341 105.02224725489607 0.5159031230590811
1.8288238894219482 12.828447489212936 88.3249843301324 110.19095396868465 0.5268062497782728
1.8489035426392169 12.798480708537351 80.45828132534305 115.64872272234248 0.5381484001349744
1.868279894983093 12.766542421865118 73.38151644908868 121.41572677810149 0.5499587729543366
1.8869588102354464 12.732721861701739 67.00231057401011 127.51340401889331 0.5622672212912158
1.9048823230867802 12.696906306483488 61.25310416277347 133.96418430173867 0.575103002793413
1.9220238994752414 12.65908956022072 56.07036717841646 140.79377752993298 0.5885025067985172
1.9383374684899837 12.619201563879667 51.3874490467441 148.02985422306972 0.6025039713016463
1.9538341242919386 12.5773577240338 47.15837758739987 155.70090674375888 0.6171431356690406
1.9684500403149008 12.533428402812904 43.336757701958035 163.8405893913692 0.632467622766217
1.982165371502558 12.487427188937676 39.876060868848484 172.4826944644773 0.6485190543586282
1.9949567158815305 12.439351527909032 36.742740345685824 181.66648241456105 0.6653504956332552
2.006790964275194 12.389192308264555 33.90042431639192 191.43397413396383 0.6830164212174644
2.0176399055336294 12.336917335902005 31.32688232852445 201.83120587407277 0.7015760672975829
2.0274739991438206 12.282533780917253 28.98946155090104 212.9081075402406 0.7210920407744369
2.036284751490185 12.226068452431715 26.867405059350457 224.7202096720797 0.7416348106719465
2.044029553806958 12.167474277356963 24.940498882193978 237.3286354389408 0.7632813712572702
2.0506891531158415 12.106767469481385 23.186171203518853 250.80027553865287 0.7861143913799563
2.0562619570141005 12.044022069136064 21.591747082802698 265.2082811980858 0.8102221893611439
2.0607089501669953 11.979173352273257 20.140171190731003 280.634274616657 0.8357040617918621
2.0640139035371776 11.912277985705133 18.81922715545341 297.1681061240098 0.8626673577931108
2.0661757872869218 11.843377257102453 17.617313656351786 314.91013802753065 0.8912324997020578
2.0671686468633053 11.772485374058151 16.52249873344681 333.9697399530937 0.9215252100795478
