M[M_sun], R[km], Lambda[1], P_c[MeV/fm^3], rho_c[fm^-3]
0.24162668629717493 15.618656898711224 2160425.4255784233 3.5677272577965504 0.1711233750220791
0.25363612152022297 15.277486363357646 1723454.5513782331 3.7846748236819803 0.17388636841133873
0.266022836853025 14.981658169161655 1383367.9988221002 4.011097132874024 0.1766629832125484
0.2787897868741718 14.723989624767585 1116910.9392559393 4.247254777775562 0.17945202306474992
0.29193449530518933 14.498976893427475 906376.3744701111 4.493770761837655 0.18226001453739282
0.30546057841267216 14.301813682484832 739136.8203746601 4.750790310214377 0.1850824606584192
0.3193656050740828 14.128776279647079 605530.6081845191 5.0190125556035685 0.18792635073162248
0.33365205480145865 13.976624495275432 498137.3682978906 5.298638406044329 0.190787855557091
0.34832217401652177 13.842643831964201 411396.83279375074 5.590422921954058 0.1936738080926753
0.3633720443742088 13.724652512661892 341022.9606203105 5.894499873411801 0.19657865321180037
0.3788137654094787 13.620633440900635 283634.3159736815 6.211746871241729 0.19951035754954285
0.3946337940441236 13.529061100650349 236717.29100064986 6.542446697276717 0.2024655522161046
0.4108436917028672 13.448466249871249 198134.3705371891 6.887250698648102 0.2054470875901423
0.42743780526170283 13.377619049338042 166332.07240219516 7.2468857129061055 0.2084584430015157
0.4444174761770037 13.315481991792545 140028.92416589576 7.621646916098363 0.21149574738227267
0.46178342439897635 13.261076972259659 118173.1512786148 8.012410509924532 0.2145640418265659
0.4795332179078323 13.213622368839754 99988.21849312745 8.419913370544108 0.2176655071623488
0.49767365546312975 13.172421121243412 84800.34399709123 8.844645262779 0.22079832409042743
0.5161934342671229 13.136795042048194 72084.742321091 9.287381128319133 0.22396451725614985
0.5350963274144968 13.106195460999102 61404.07624788764 9.749049569555146 0.2271676686383838
0.5543852431127375 13.080152128953435 51920.92180953019 10.230457950999156 0.2304091256073748
0.5740478266486888 13.058111010537045 44423.11302413417 10.732146651679814 0.2336864753802453
0.594090460862497 13.039780053076251 38412.87549752784 11.255221005798607 0.23700416530060692
0.6145064215822018 13.024719518191045 32976.201846231495 11.800681464399437 0.24036464866965365
0.6352879131926722 13.01261277678971 28362.464156319922 12.36950416463779 0.24376955329132852
0.6564360625759894 13.003154617547295 24431.868346058578 12.962472442623573 0.24721790661112755
0.6779529608103009 12.99607653593321 21082.940347220312 13.580722733000522 0.2507123778822141
0.6998198534093433 12.991134916029967 18219.919783047357 14.225539199614888 0.25425662590385156
0.7220326796339341 12.98804162573956 15771.642628856001 14.89810778718133 0.25785262814363863
0.7445989509758092 12.986665480708583 13671.643914802673 15.599581657360481 0.261501537126892
0.7674978879706378 12.986748353155694 11869.58967917235 16.33097708622941 0.265202769716669
0.7907206079467519 12.988100239235905 10318.605052073706 17.09402400924299 0.2689622147315177
0.8142710979113031 12.990605610844344 8983.04626634547 17.890172538944157 0.27278229503397056
0.8381326235906459 12.994047479735485 7831.4654957817775 18.720944687988933 0.27666551730039846
0.8622910643224666 12.998299231052945 6835.380456588207 19.587366609829967 0.2806095398646196
0.8867406819068422 13.00323724617992 5973.842877514264 20.49166918909281 0.2846220876835481
0.9114787252984541 13.008712912318794 5227.703343590031 21.43563998453286 0.2887061610575266
0.9364779766982094 13.014594530930145 4580.311516096469 22.420962332689705 0.29286330873655186
0.9617334565504273 13.02077299533578 4017.630374076872 23.449255289269495 0.29709409849802115
0.9872347971587915 13.027168181096338 3528.2679128173595 24.52312614140102 0.30140619166500177
1.0129551405225963 13.033637736050302 3102.489285482319 25.644752229086766 0.3058029947154278
1.038895718365681 13.040070326193034 2730.9538126408947 26.81561351760443 0.31028223405355027
1.065028021825739 13.046403889898407 2406.6404120140605 28.03902526265402 0.3148543492243552
1.0913334897391787 13.052529610882702 2123.359081988555 29.31731785643036 0.31952171342179125
1.1178097036033212 13.05837333029421 1875.3498595300148 30.65268059751187 0.3242851650298009
1.1444237380424038 13.063845396740929 1658.0532155411172 32.04887533297539 0.3291552982993505
1.1711608793620434 13.068863861902539 1467.5252813835266 33.50784774659569 0.3341298520984508
1.1979952140215862 13.073326809613151 1300.3979015597267 35.033790266460144 0.3392202452033839
1.2249220993070236 13.077217952487137 1153.318432257659 36.62929365562747 0.34442681496654043
1.2519031859863636 13.080420479278454 1024.0773339520572 38.298680017779795 0.34975962366347796
1.278920790102001 13.082865326160752 910.2801656652614 40.04490477973385 0.35521957363924944
1.3059471623661323 13.084484947910008 809.9295876180672 41.8730781187808 0.36081912340094474
1.3329659466279078 13.085224064158966 721.4532240946097 43.7862052370474 0.36655765220565273
1.3599586182083292 13.085054098014437 643.2623317006475 45.789834619815636 0.3724477533586472
1.386875989209838 13.083840845616086 574.124771989497 47.888844257826946 0.37849692357443443
1.4137072271273041 13.081571601975353 512.9278936133151 50.08744902211218 0.3847081284060129
1.4404345900036586 13.078202733560834 458.77207521504613 52.39185544561776 0.3910935351452505
1.4670044799853623 13.073622093621957 410.7274195168908 54.807952750232126 0.39766218412505083
1.4934088755097528 13.067818405218574 368.08709798099255 57.3418986627762 0.40442308247232406
1.5196110813025572 13.060739065323144 330.2318815305273 60.00028614300475 0.4113859429780297
1.5455867060276778 13.052303847381944 296.5520137731638 62.790182535996145 0.41856124212574813
1.571297597820981 13.042486606768101 266.6407637802244 65.71917246867953 0.42596028284669996
1.5967157795427864 13.031228532186022 239.93304179754224 68.79540486994816 0.4335952625543992
1.6218033450387275 13.018473482174057 216.1566284118386 72.02764454095518 0.4414793470798418
1.6465425352414331 13.004209810274213 194.9449575646709 75.42532875563482 0.4496267512031081
1.6709075349849534 12.988363671419929 176.00392815626628 78.99862943205494 0.4580528265606224
1.6948382178312742 12.970894121778706 159.06984928103486 82.75760202801152 0.46677038262902437
1.7183289471834626 12.951774719238887 143.91671056017938 86.71421356798311 0.47579799180074395
1.7413300423720732 12.930948523674946 130.36405171366738 90.88132042634936 0.4851553512731083
1.7638150071164362 12.908386502043646 118.2086929812994 95.2712159172956 0.49485740558083613
1.7857490898615525 12.884038406267718 107.30322840636742 99.89925901325758 0.5049285395731566
1.8070885086056112 12.857859896004669 97.52460521041627 104.78096955416223 0.5153907158587797
1.8278381482536776 12.829888525234583 88.72791099071823 109.93198105371084 0.5262633383359155
1.8479167078420629 12.799979937155772 80.8273860566365 115.37137511742745 0.5375754956885207
1.8673337584999712 12.768220498717334 73.70876821588416 121.11860112972255 0.5493539340186399
1.8860286880498354 12.734488479223595 67.30867583225228 127.19483756255443 0.5616278669151874
1.9039664570677866 12.698763467846824 61.535103198403384 133.6231675871581 0.5744291883626789
1.921138204556387 12.661082389174586 56.3257477995361 140.42788628582866 0.587789611513594
1.937501971586723 12.621384408953535 51.62691268344282 147.6365516678811 0.6017474342687187
1.9530198901453812 12.579622758653965 47.37608774355405 155.27908262018008 0.6163437367296687
1.9676836233886807 12.535877050190313 43.53493384054596 163.3865490500575 0.6316177391527885
1.9814406443166244 12.490017587120098 40.05684941550727 171.99455447445365 0.6476177572391719
1.9942820760833628 12.442117287838935 36.90579190929078 181.14133381902874 0.6643939301848955
2.0061468528331328 12.392056485766505 34.054854713022316 190.86841033100762 0.6819997003859724
2.0170415088007245 12.339934215708247 31.46624553502754 201.22146921623437 0.7004938448754815
2.026932076690563 12.285713445161436 29.11898500327691 212.2508192979941 0.7199409853776831
2.0357935084486174 12.229396036231092 26.984738855312134 224.01082977017967 0.740408630623572
2.0436018286411333 12.170986340521969 25.04807359791833 236.56236675913678 0.7619739110558856
2.050322067328749 12.110450531644817 23.285723866692443 249.97120474283432 0.7847169418329413
2.0559478183400883 12.047831744516733 21.68459553640842 264.3110928943812 0.8087292158982377
2.0604637451608028 11.983168763318659 20.225572501796748 279.6626166248804 0.8341080435207433
2.0638442312119247 11.916460856550554 18.898442765691907 296.11522473483967 0.8609610528681565
2.0660749849878597 11.84772856655761 17.68906412622739 313.7667355686035 0.8894021372552706
2.067140427214407 11.777011511629096 16.587723689010883 332.7280129586014 0.9195640014801997
