M[M_sun], R[km], Lambda[1], P_c[MeV/fm^3], rho_c[fm^-3]
0.24162668629717493 15.618656898711224 2160425.4255784233 3.5677272577965504 0.1711233750220791
0.2536442098234171 15.27727226197221 1723219.9235695214 3.7848232603553154 0.17388821860286363
0.2660406219438209 14.981258262518924 1383046.1282727714 4.011409168477619 0.17666675397866705
0.27881566986179795 14.723506261349595 1116497.592017842 4.247740960819155 0.17945766205539337
0.2919704437214392 14.498417696179493 905877.5440287165 4.494443841713372 0.1822675094380226
0.30550590046472653 14.301210210004177 738627.0391913886 4.751673131329606 0.1850919968113531
0.31942256975313843 14.128127397207859 605111.7246013824 5.020111612163196 0.18793775386762548
0.33372042469346935 13.975925558269843 497669.1839171707 5.29998262162911 0.19080138957757273
0.34840188052365817 13.842020226036977 411002.3128395529 5.592015643607674 0.19368921811281664
0.3634652761686627 13.723972615532185 340643.5443378209 5.896376870027685 0.19659628236123158
0.3789188096656733 13.619995352503945 283302.1122964782 6.213930843751411 0.19953027274915708
0.3947510658509332 13.528445344185398 236409.62021281716 6.544935369074653 0.20248737450574159
0.41097607686751697 13.447855041581873 197862.18481749523 6.890092095060417 0.2054712861143353
0.4275844028361854 13.377048268167458 166084.45503523882 7.250106481028838 0.2084850875907829
0.4445791374233594 13.314943975816597 139798.67729178068 7.625238145702971 0.2115243358790784
0.4619609978648747 13.260564388822464 117980.92743481837 8.016434816293085 0.2145951730898386
0.4797259437142792 13.213146798297652 99809.16779133712 8.424402115053919 0.21769925624591285
0.4978830538174574 13.17198021556763 84642.5114260976 8.849581887875981 0.2208340673653872
0.5164214670225961 13.136399886049807 71938.0975596209 9.29284549182216 0.2240029867158745
0.5353408126129613 13.105837227998375 61275.08212364187 9.755078697725219 0.22720894724123963
0.5546442742576609 13.079861151660342 52297.515693093745 10.23709111892196 0.2304532999181335
0.5743292706458962 13.057840276976552 44728.82261995024 10.739355034840592 0.23373275543301517
0.5943876304069368 13.039515139032 38328.39270349419 11.2631129614386 0.2370534743822608
0.614824262132443 13.024499991844344 32901.15310734267 11.809303584069514 0.24041708554293675
0.6356288875536453 13.012428706818936 28291.493949984502 12.378905945325403 0.2438252219324199
0.6567989943386071 13.003013785245036 24370.098948331455 12.972610711872912 0.24727585280076383
0.6783307528641299 12.995977099795326 21027.293958952567 13.591741390364472 0.2507737268143417
0.7002193367805152 12.991055663007467 18171.88515696136 14.237497286006809 0.2543214991061423
0.7224544893352444 12.987999172466496 15729.619558860646 14.911068135365037 0.25792115438992613
0.7450410890965266 12.986655368958335 13633.885631142566 15.61348473685044 0.2615726004469676
0.7679629959004254 12.986750965516862 11836.119785742549 16.346011080539544 0.265277710407649
0.7912074735123771 12.98813762180843 10288.582504167185 17.11026431946238 0.2690411858606842
0.8147823323157103 12.990669422591314 8956.089537980612 17.90769956302234 0.27286545950997926
0.8386630251822236 12.994130120221959 7807.236372019292 18.739680706852326 0.2767515996127992
0.8628454817099371 12.998403257334003 6814.488307236773 19.607555107016026 0.28070011291927455
0.8873256841005712 13.003353777050398 5955.044638271615 20.513407263286094 0.2847173472952047
0.9120825529205487 13.008855114192498 5211.095578335134 21.459031380640102 0.28880631624181385
0.9371031387344761 13.014731529728602 4564.983992241696 22.445909644133938 0.2929669256654461
0.96238618326051 13.020959378568365 4004.427690265506 23.476071406424527 0.2972030067176325
0.9879069681433102 13.027330325579875 3516.532757588377 24.55193719385519 0.3015206442991534
1.013649390720604 13.033794216451422 3091.7894977186843 25.67544673777585 0.30592145073588767
1.0396135200459835 13.040249677092303 2721.3714282987457 26.84856649985064 0.3104067244866479
1.065761492174097 13.046576696995496 2398.1434060043457 28.074390855440036 0.314985181930209
1.0920959655214655 13.052707355877141 2115.734533235189 29.354970774798417 0.31965724080890656
1.1185932719965215 13.058545130662838 1868.5153168158083 30.693070088444514 0.32442764157623954
1.1452253559997139 13.063993446016086 1652.060150025848 32.09208069731662 0.32930438804757284
1.1719884037762478 13.069005873624194 1462.0267260187359 33.55395084538646 0.3342852242948041
1.198845606506649 13.073458595748098 1295.3924404395357 35.08321958458555 0.3393836945581062
1.2257896979765348 13.077332058624535 1149.0259444983537 36.68190583065919 0.34459653369900306
1.2527865592274177 13.080497900060367 1020.147786548463 38.35506673539653 0.3499382087635709
1.2798273092616637 13.082936419646794 906.6388024810772 40.104945532135034 0.3554053196688593
1.306872284016563 13.08452361580899 806.7307983001609 41.93700769684822 0.36101239220073117
1.3339101922365928 13.085232830206829 718.5614407290442 43.854739859742665 0.3667613725477999
1.3609190462210763 13.08502914140642 640.6133210200885 45.86283077458792 0.3726600162609469
1.3878489503846525 13.083777803206099 571.7736328375724 47.96661349981503 0.37871827994159
1.4147056657143289 13.08148527657278 510.80098241993494 50.17084344113972 0.38494180875838296
1.4414294606417573 13.078030828867247 456.8545562451352 52.480742745513915 0.3913375863675721
1.4680235730373208 13.073434129890039 408.9918135731573 54.90272620656296 0.397917297224859
1.4944326801354848 13.06756702986233 366.51581725406015 57.44298339182667 0.4046900018498061
1.5206448451730643 13.060422306488089 328.8235171950869 60.1081419510564 0.4116654708080016
1.5466282260103617 13.051934516730133 295.2784416731039 62.90530705276046 0.4188542431737183
1.5723447747791361 13.042055308692643 265.4529774610354 65.84210459651072 0.42626768976555673
1.5977685449760979 13.03072668210755 238.90968410735215 68.92672858431175 0.4339180817137475
1.6228559467401142 13.017904105457962 215.22755464734328 72.16799308198468 0.441818664986204
1.6476075117779139 13.00356733740641 194.09359530413573 75.57538925554323 0.44998374157620913
1.6719561726413095 12.98763338308856 175.22767651890098 79.15884469061315 0.4584274914176925
1.6958952888115342 12.970082666306359 158.3612945906437 82.92857019827878 0.46716326698635846
1.7193739158634944 12.950873881435987 143.27419472077364 86.89729338628923 0.47621257751222296
1.7423560884836657 12.92993265158879 129.7728909655639 91.07658812900783 0.4855897500360658
1.764839260847612 12.90728681362344 117.67428630939978 95.48055077554217 0.4953167330020316
1.7867657946308848 12.882852974666813 106.81527034250307 100.12284324519828 0.5054110246457574
1.8081046127804308 12.856594882817218 97.07940104545766 105.01999381708397 0.5158983378791638
1.8288145737138728 12.828460402770226 88.32497686686106 110.18854326463173 0.5268012096373641
1.848894387943451 12.798496048081173 80.4585128267659 115.64613188493537 0.5381430483589207
1.8682715928777047 12.766557025253524 73.38787695805011 121.41295109329678 0.5499531226772492
1.8869500603363252 12.732739083405757 67.00767218346076 127.51043170906071 0.5622612618490557
1.9048745380469725 12.696923523639212 61.25593634305284 133.96100164018787 0.575096719231304
1.9220155465442494 12.659107492728321 56.07159218081314 140.79035910675634 0.5884958464102085
1.9383290692377206 12.619221763080072 51.390175285827496 148.026179565988 0.6024969029159241
1.9538262218858002 12.577378676575682 47.15960709949773 155.696965471459 0.6171356665635054
1.968443441299046 12.533448488587014 43.33902183695376 163.83635761862263 0.632459717779558
1.9821581463039255 12.487452710755745 39.87800774206844 172.47813322477916 0.6485106325282413
1.9949479606064575 12.439378669025347 36.74107973838652 181.66157517227705 0.6653415570233921
2.006785000195582 12.38921941729025 33.90161821896524 191.4286890203696 0.6830069201053707
2.017633177947945 12.336946945589135 31.327001618643063 201.82550773413672 0.7015659536612716
2.0274692990195557 12.282562918997362 28.990762578353145 212.90197192197954 0.7210813068773715
2.036280122223832 12.226099534075416 26.86802440933315 224.71357978141776 0.741623350748102
2.044026320317574 12.167506165225626 24.94104265335899 237.3214789750568 0.763269168828944
2.0506859405257605 12.106802160912197 23.18703057515488 250.79254079493006 0.7861013767523611
2.056259054530345 12.044058601859732 21.592643973808755 265.1998948861819 0.8102082340509013
2.060707051156105 11.979210445461142 20.14140871449404 280.62520485877826 0.8356891852779733
2.0640128594782046 11.912316236285756 18.820444079175434 297.1582660823846 0.8626514151625283
2.0661746926143834 11.843418250067163 17.618174617578354 314.8994486813868 0.8912153881613141
2.0671685120312757 11.772529827315578 16.523101716742673 333.95813079664646 0.9215068743442723
