M[M_sun], R[km], Lambda[1], P_c[MeV/fm^3], rho_c[fm^-3]
0.24162668629717493 15.618656898711224 2160425.4255784233 3.5677272577965504 0.1711233750220791
0.2536415628790744 15.277351631149248 1723236.4989245094 3.7847912850852947 0.1738878200465482
0.26603625446952794 14.981343375923577 1383090.7415857562 4.011341950314741 0.1766659416868381
0.2788101886696193 14.723598156946014 1116510.7865207351 4.247636225911602 0.1794564472882979
0.291963070653588 14.498497819962965 906033.0619358 4.494298841989351 0.18226589483244296
0.30549558833732243 14.301365403854339 738797.0696434849 4.7514829436714585 0.18508994242166651
0.3194097558438081 14.128285967087077 605198.605504426 5.01987483586991 0.18793529722219537
0.3337069498364707 13.976081015095863 497758.53962787543 5.29969302338627 0.19079847380379772
0.34838459213320166 13.84211244873113 411077.21846818994 5.591672500638035 0.19368589811019002
0.3634452865383246 13.724106975245363 340723.9430829251 5.895972473581783 0.19659248418423225
0.37889653363578923 13.620118976140457 283370.50684630504 6.213460300484485 0.1995259819611337
0.39472552237938435 13.528586374183226 236467.7177568091 6.544399167807518 0.20248267274500126
0.4109474650225829 13.448016089255928 197925.85737715187 6.889479885052793 0.20546607227700642
0.4275526773926761 13.3771696151959 166133.6590965175 7.2494125179056885 0.2084793466117126
0.44454601187605475 13.315025436428028 139845.9987571578 7.624464347760401 0.2115181759499051
0.46192298750851185 13.2606867017231 118024.35201400431 8.015567687447787 0.21458846514717667
0.47968514931626566 13.213259862350245 99846.42048332514 8.423434894212164 0.21769198409733279
0.4978377496450115 13.172080801454811 84675.09974233598 8.848518141538648 0.22082636538740105
0.5163724174475552 13.136489021385138 71966.70203211841 9.291668006326681 0.22399469714457867
0.5352873007187275 13.105927083690306 61300.01987666911 9.753779490197367 0.22720005217879333
0.5545903876387557 13.079896215958568 52320.75738382248 10.23566172144933 0.23044378068857554
0.5742690652897864 13.057899616790113 44749.82537792277 10.737801658254869 0.23372278227415896
0.5943226309772968 13.039574281516314 38346.64138207751 11.261412246758713 0.23704284828616423
0.6147555244996921 13.024542083644855 32918.057733283174 11.807445485301365 0.24040578520225708
0.635552646563531 13.012464972537666 28308.101870272265 12.37687978977411 0.24381322491505394
0.6567218685622378 13.00305839345554 24383.856366461685 12.970425803898408 0.24726336476274524
0.6782496282504695 12.996000415525668 21038.776243811695 13.589366706017877 0.2507605052081158
0.7001331060381865 12.99106718331069 18182.358719112955 14.234920093935367 0.25430751771337484
0.7223624046531499 12.988011273005613 15737.726900292993 14.908274886257614 0.25790638542897193
0.7449456301001001 12.986646707502354 13641.196201859704 15.61048826265955 0.26155728445854365
0.7678622389689246 12.986756530485478 11842.362138783581 16.34277080592885 0.2652615584514037
0.791102719901218 12.988125282969772 10294.966545308875 17.106763983887912 0.26902416491409864
0.8146725977034082 12.990645360624594 8961.803385376388 17.903921827957934 0.27284753442721965
0.8385499241241895 12.994111722295036 7811.889877105516 18.735642327352675 0.276733045348512
0.8627263841890184 12.998375440985967 6818.870119994406 19.603203578850728 0.28068059035676207
0.8871972384125912 13.003322441922013 5959.336230228904 20.508721644956772 0.28469681418916903
0.9119521173579007 13.008820829281703 5214.69860332583 21.453989296721147 0.2887847274985948
0.9369673010238384 13.01470736984416 4568.299766270372 22.440532096928962 0.2929445903958677
0.9622416923827366 13.02090170463977 4007.340760088349 23.47029091790652 0.2971795304362104
0.9877620862717023 13.02730180813715 3518.9979087845572 24.545726558944043 0.3014959723949782
1.0134974290567924 13.03376149725012 3093.9154365318186 25.668829995416722 0.30589591545281114
1.0394585899747986 13.040209238040779 2723.453025528266 26.84146276720495 0.3103798878638784
1.0656073983140197 13.046549805975348 2399.925413995642 28.06676688418946 0.31495697754539637
1.0919317353771718 13.05266691602365 2117.2315575778766 29.34685358360378 0.31962802390458667
1.1184253770729817 13.058501105911782 1869.990276653785 30.684362776789435 0.3243969259701565
1.1450528851340018 13.063959733819273 1653.1769419753691 32.08281168171669 0.32927254062293276
1.1718108286791635 13.068974169462392 1463.266190875049 33.54401141378661 0.33425172738551434
1.1986616276487538 13.073434255066585 1296.430661454924 35.072562831215656 0.3393484555637643
1.2256038270668748 13.077303776704634 1149.9294215510513 36.67056267775908 0.34455994244362964
1.2525951592823563 13.080472735233569 1021.0089921157756 38.34291990547038 0.3498997659293341
1.2796312239788015 13.082924820598421 907.4148986458603 40.09200028979259 0.35536527141377783
1.3066725980395588 13.084513192690537 807.4354943260553 41.92322375390728 0.3609707212529625
1.333706372078897 13.085230769864724 719.1914042516765 43.83996269539748 0.3667174471731794
1.3607115712237419 13.0850372939127 641.1621101461716 45.847091348570714 0.37261424814812827
1.3876393173833046 13.083787573841509 572.3018997819173 47.94984459314479 0.37867055022008567
1.4144925546746978 13.081505715256895 511.2510674880608 50.15286120269716 0.38489142054458325
1.4412214099190364 13.078082356497996 457.24900825499674 52.46157571824403 0.39128496089195347
1.4678067698225865 13.073477268181612 409.3669723382001 54.88228953255653 0.39786228537388935
1.4942118092849221 13.067619521622838 366.85019942717435 57.42118534014094 0.4046324429836852
1.520421670252415 13.060487460932341 329.12156212206617 60.084883302410276 0.4116051918142082
1.5464041005525866 13.052015088857368 295.55312705197133 62.8804804228385 0.41879105742676226
1.5721186602819193 13.042148468091694 265.6982431924277 65.81559369104166 0.42620139598288065
1.597541530653951 13.030835399410032 239.13692221803748 68.89840737825368 0.4338484626965296
1.6226287400580839 13.018035836421204 215.4357464171683 72.13772491420475 0.441745486232473
1.6473801049409271 13.00370773137254 194.27784270184557 75.54302582931801 0.44990674975217804
1.6717295309688973 12.987793388049461 175.38615318102654 79.12439392966624 0.45834711818654567
1.6956675963917538 12.970263733255853 158.50583893346675 82.89169603610942 0.46707853026908824
1.7191402172547317 12.95106377874201 143.42219653510608 86.85780603580143 0.4761231580915141
1.7421370797386777 12.93015178125264 129.90590885461438 91.03447115271244 0.48549605526651024
1.7646218477488382 12.907531070199484 117.78392022878214 95.4353985154043 0.49521765886127933
1.7865472957379824 12.883108541916595 106.92210827157199 100.07461638802108 0.5053069531802319
1.8078887958157928 12.85687248704841 97.17808112927878 104.96844232239705 0.51578886817214
1.828602624988845 12.828761449525143 88.41283528479475 110.13328731341836 0.5266855094557852
1.848686349672678 12.798820651160469 80.54015384063565 115.58686265681278 0.5380206185858576
1.8680766999930094 12.766939162246373 73.45218044551665 121.34945367760635 0.5498238652081103
1.8867523524530938 12.733118347680602 67.07140619171811 127.4423496690707 0.5621246217380318
1.9046805716233464 12.697327825710028 61.3143392271722 133.8881951586587 0.5749529766305536
1.9218293294600808 12.659540747270418 56.12570373883285 140.71215998605362 0.588343484785457
1.9381562525923899 12.619709587592341 51.44046034263112 147.9421196004767 0.6023352093900189
1.953654859851815 12.577874347170823 47.207658630411636 155.60680722410072 0.6169648076597937
1.9682785247937045 12.533971618246717 43.37901212213838 163.73944231100498 0.632278508503457
1.982004721637316 12.48800764060596 39.9161403077483 172.37379477479564 0.6483179829884769
1.9948038711296938 12.43995989618299 36.77825465547329 181.54932288254105 0.6651370879211719
2.0066434932954476 12.389817221290476 33.9357460285524 191.30779408379726 0.6827895858279779
2.017507062930329 12.337595115567032 31.355740943187126 201.69516620069717 0.7013346102965485
2.0273556828358616 12.283247398447603 29.01756866821355 212.76162458545943 0.720835777608844
2.0361772552718183 12.226813290209417 26.894150423447783 224.56192789181108 0.7413612168465974
2.043934378854336 12.168255516968536 24.96414894581595 237.15778385501787 0.7629900536119878
2.0506077256092725 12.107587355676824 23.20812147919509 250.6153615141516 0.7858028445448932
2.0561882592142706 12.044856585893951 21.61236928046582 265.00807263481096 0.8098890306799822
2.060656051679066 11.980066590249974 20.159140326839537 280.41771180482846 0.8353487829091576
2.0639823728454654 11.91322202360064 18.837484532793404 296.93319717105743 0.8622867631980798
2.066153471689267 11.844345926771728 17.633209636953115 314.6549567277213 0.8908240046313618
2.0671637528864886 11.773491686935204 16.53752792927359 333.6926035914061 0.9210874953337586
