M[M_sun], R[km], Lambda[1], P_c[MeV/fm^3], rho_c[fm^-3]
0.24162668629717493 15.618656898711224 2160425.4255784233 3.5677272577965504 0.1711233750220791
0.2536391475576437 15.277414723381732 1723275.177192436 3.78475121060486 0.17388732053748215
0.2660318078018942 14.981451397798844 1383108.9979220896 4.011257707192694 0.17666492365842507
0.27880266126321995 14.723751762333299 1116637.5845297927 4.247504965547958 0.1794549248658848
0.29195329672095405 14.498643020362605 906157.321845498 4.494117121539236 0.18226387133305583
0.3054832454279113 14.301509762930822 738901.3805917432 4.75124459465698 0.18508736779741422
0.3193939056972562 14.128467557857391 605310.138735562 5.019578104163811 0.1879322185162167
0.3336878609115847 13.976252052569752 497893.01737012056 5.299330098958446 0.19079481975701004
0.34836307473208666 13.842347200950542 411197.1820110215 5.591242479013993 0.19368173753268253
0.36341938462153917 13.724307061454745 340827.55333267915 5.8954656962429794 0.1965877244242207
0.37886687953999487 13.620324119258807 283468.03887405817 6.212870637146679 0.19952060494149376
0.39469350007909865 13.528753880963777 236551.06370267793 6.543727232341818 0.20247678077870743
0.41091174077000736 13.44818151792038 198002.46943239777 6.888712709131583 0.2054595386849285
0.42751267705172824 13.377331041927155 166206.03078448426 7.2485429054066115 0.20847215253037032
0.44450128177714177 13.315199163776882 139913.48871438342 7.623494703720352 0.21151045695986723
0.4618750534829003 13.260807019088253 118069.03190659026 8.014481103407977 0.21458005954116327
0.4796325044488339 13.213377862098508 99901.6801390056 8.422222900730537 0.21768287160068675
0.49778161881329147 13.17218857559777 84716.22327778584 8.847185208668167 0.22081671438390038
0.5163117875203589 13.136593986343794 72011.11581996712 9.290192568943313 0.22398430997341695
0.5352224263226724 13.106005293057278 61337.51486683014 9.752151548760457 0.22718890642999662
0.5545206030113429 13.079975553731426 52355.32218976728 10.233870668995737 0.23043185297792643
0.5741918109309307 13.057967636630652 44775.64232269094 10.735855277523584 0.23371028590695084
0.5942443003681509 13.039653636419231 38367.87271016021 11.259281275497875 0.23702953393916382
0.6146689192126914 13.024606143976321 32938.660021067604 11.805117340308186 0.24039162619627438
0.6354618504668381 13.012510481764172 28327.385580868235 12.374341103048396 0.2437981931625729
0.6566245844979991 13.003108127052267 24401.464021004052 12.967688233124255 0.24724771793079392
0.6781468533903023 12.996035302473658 21053.221729016095 13.586391389196693 0.25074393944119056
0.7000249874622176 12.991098368982122 18195.444509209654 14.231691085105853 0.2542900001828829
0.72224853437829 12.988022754371794 15749.302175962135 14.904775215200639 0.25788788134888274
0.7448248591544249 12.986663381117667 13652.154955835873 15.606734005189935 0.26153809518465637
0.767736305483754 12.986754592643093 11851.256525602184 16.33871113865821 0.26524132202825923
0.7909708201664428 12.988113704041375 10233.846092299165 17.10237854160313 0.2690028399933031
0.8145333028790805 12.99064430921366 8969.526025353996 17.899188895649267 0.2728250770018359
0.8384055857693282 12.994090152695106 7768.518596360098 18.7305828937387 0.276709799868877
0.8625766230086397 12.998353156595206 6824.516215221541 19.597751882923394 0.28065613203534084
0.8870406588873704 13.003293257151228 5964.4574465813685 20.502851460311035 0.2846710901298649
0.91178964791519 13.008787286477123 5218.940134659328 21.447672601555507 0.28875768123912826
0.9367995845524855 13.01466858766433 4572.468662983442 22.43379519813993 0.29291660915370654
0.9620664008209524 13.02085498127751 4011.007074973626 23.463049305438425 0.2971501200962848
0.9875806032972593 13.027253642806247 3522.2599920558814 24.537946163975732 0.30146506457929606
1.0133170935833835 13.033714564812941 3097.1517782746387 25.660540926592773 0.305863926339835
1.0392630465999568 13.04016172287898 2725.947628600003 26.832563731206026 0.31034626890831984
1.0654078837992824 13.046502146601231 2402.2427112201794 28.057216246038646 0.31492164558194075
1.0917265818364885 13.052621053887137 2119.335444731832 29.33668518195911 0.31959142390209627
1.1182138552665724 13.05846544462731 1871.8330059606117 30.673455264857118 0.32435844901502614
1.144834629404145 13.063918738951275 1654.9646960616528 32.07115469865921 0.32923234901277165
1.1715874096452035 13.068943774668938 1464.6262899044548 33.53156072365244 0.33420976727604235
1.1984370733190917 13.073412770674851 1297.7420365752769 35.05921375219668 0.3393043137783921
1.225369847937626 13.077273369359661 1151.1575963612524 36.65635393352375 0.3445141072341928
1.252356263379676 13.080451822887595 1022.084305234023 38.327688096327975 0.3498515148971155
1.2793884213754758 13.082904193916345 908.4258955373101 40.07578510644848 0.3553151070536539
1.3064232108354104 13.084507862908305 808.2950036208347 41.90595820224503 0.36091852487456794
1.3334518935200814 13.085223750226953 719.9510648498205 43.821453299406414 0.3666624276759392
1.3604531618126234 13.085045480253724 641.927200716699 45.8273768749097 0.3725569211367309
1.387376777634377 13.083807226998747 572.9233910825783 47.92884087861218 0.3786107668683793
1.414223559990175 13.08153410717748 511.78506101754414 50.13033805974603 0.38482830821593256
1.4409500622223446 13.078123167230318 457.78717781745627 52.43756888507036 0.3912190471226417
1.4675303578506342 13.073531705918196 409.82460184465214 54.856692766509525 0.39779338348316884
1.4939345099434134 13.067687850512261 367.2698355500877 57.3938837955759 0.4045603518642051
1.520142995863028 13.060573892975524 329.50459671980894 60.055752760718015 0.41152969474778
1.5461226376263424 13.05211590443608 295.9017566115759 62.849386445674654 0.4187119207827995
1.5718364278076826 13.04226683707687 266.012718728673 65.78239068820524 0.42611836778692563
1.5972524888779913 13.030961287773806 239.4096150521714 68.86293758062567 0.43376127105480655
1.6223442540481676 13.018188703991651 215.69033306729187 72.09981724097952 0.44165383759673016
1.6470954632948764 13.003883309112444 194.50126766383755 75.50249463742354 0.44981032700718204
1.6714492223103699 12.987990717394634 175.60265857989478 79.08117200930923 0.4582461397466275
1.695384137417284 12.970483336612947 158.7116863246534 82.84551694220455 0.4669724108457902
1.7188479383538777 12.951271786893527 143.58917492165656 86.80835508319699 0.4760111760141967
1.7418647126211484 12.930438192107973 130.0633004137575 90.9817277521442 0.48537872061439374
1.7643446139393681 12.907827505524038 117.93049088924651 95.37885490727902 0.4950935895594783
1.7862729672196573 12.883429954895055 107.05334227383626 100.01422334858506 0.5051766276212069
1.8076167866236985 12.857217055909125 97.2960252235115 104.90388687614882 0.5156517845467183
1.8283456492217398 12.829168755149377 88.52333083565182 110.06395515455955 0.5265401089342568
1.8484241195773867 12.799230299702625 80.63646707616122 115.51264509020818 0.5378673107037658
1.8678239502371965 12.767381229850546 73.54223752123634 121.26994279765225 0.5496620101940107
1.8865032895291347 12.73359347895461 67.15215065929692 127.35709936960293 0.5619535250672241
1.9044381354554372 12.697832657217734 61.38892053805899 133.79703041406944 0.5747729891183324
1.9215779983846661 12.660021690617482 56.19401664624384 140.61424456350173 0.5881527083069725
1.9379320618735338 12.62028808423456 51.50584341682296 147.83686755357274 0.6021327518411833
1.9534345956476482 12.578473600584372 47.26491415116171 155.49392136895372 0.6167508776642567
1.9680732803211678 12.534623442871402 43.435618399664435 163.61788453207004 0.632050899581598
1.9818101770495498 12.488695842077998 39.962985652997965 172.24315898247988 0.6480767782813878
1.994617733776193 12.440686654539014 36.824234645501114 181.40878129418306 0.6648810894692583
2.0064736112795494 12.390588550739713 33.97817165780559 191.15643471974172 0.6825174852839326
2.017356343112912 12.33842377768106 31.39684630684635 201.5319830842144 0.7010449763614787
2.0272105908954896 12.284096687657655 29.054087273320636 212.5859179290231 0.720528389325604
2.0360350376621716 12.227674559300645 26.925291283915445 224.37207273303179 0.7410330476848371
2.043821852013309 12.169198125142401 24.993541277259975 236.95285589385375 0.7626406326131997
2.0505102016083825 12.108576286504139 23.235895339749632 250.3934369168449 0.7854287298374263
2.056107755007492 12.045883611567536 21.63691894351193 264.76794372553405 0.8094894422237499
2.0605916775088686 11.981139233727895 20.182638107572764 280.15755400666933 0.8349213029888098
2.063937229941294 11.914342319349359 18.858090505968057 296.6514622462595 0.8618303021383292
2.0661266698163145 11.845510476736502 17.65234707676924 314.3489164109302 0.8903340942776768
2.067155011500342 11.774707962270293 16.554850597198758 333.3602409872612 0.9205625551494492
