M[M_sun], R[km], Lambda[1], P_c[MeV/fm^3], rho_c[fm^-3]
0.24162668629717493 15.618656898711224 2160425.4255784233 3.5677272577965504 0.1711233750220791
0.25364409031585383 15.277275033136055 1723222.0305187115 3.78482062701325 0.17388818577952514
0.2660400340947705 14.98126904617575 1383069.6824328422 4.011403632656051 0.1766666870815304
0.2788151117607388 14.723514613957443 1116474.2721641113 4.247732335221311 0.1794575620114569
0.2919694154932424 14.498409674029606 905864.6514011848 4.494431899985333 0.18226737646410937
0.3055046884700236 14.301231165601283 738625.8878332599 4.751657467981096 0.18509182761729526
0.31942156046022363 14.128140067997562 605115.1723999527 5.020092111802083 0.1879375515438525
0.33371910365822505 13.975987902815978 497687.98701557086 5.299958770849399 0.19080114943979662
0.3484004610199475 13.842031151344756 411008.212633042 5.59198738284768 0.19368894468218945
0.3634641769089933 13.723962013810185 340655.6113680361 5.896343564353173 0.19659596954728834
0.3789160868882354 13.620004473887425 283286.8624114061 6.213892090100545 0.1995299193625236
0.3947488181550635 13.528459530803252 236413.86291906648 6.544891207671489 0.20248698726989497
0.4109735448784764 13.447874552619894 197867.89948511292 6.890041673350909 0.2054708567018985
0.42758146031312316 13.377060988103665 166080.62480596546 7.250049325843804 0.20848461476058475
0.44457656554312913 13.314932844099577 139810.00019368104 7.625174415002219 0.2115238285417217
0.46195768940907517 13.260578315530054 117982.86263085467 8.01636339843472 0.21459462061496531
0.4797223758994131 13.213168054145292 99810.32943776186 8.424322453111387 0.21769865729947036
0.4978799729052942 13.171983109101655 84645.6381442675 8.849494275565974 0.22083343301482888
0.5164176250905985 13.136409388041093 71939.3268462042 9.29274851127075 0.22400230396674653
0.5353360383639546 13.105849888098874 61277.59116694351 9.754971691354564 0.22720821461898436
0.5546430412827006 13.079803072047863 52300.01977939116 10.23697338919587 0.23045251588408425
0.5743252864233784 13.057852958419545 44732.00349681717 10.739227093289795 0.2337319340086277
0.5943823483034472 13.039518626720156 37995.887908786404 11.262972883960039 0.23705259917563987
0.6148185129881291 13.024501460418888 32901.35970603126 11.809150543121302 0.24041615479862843
0.635621932470343 13.012438302603847 28291.73640345358 12.37873906173611 0.24382423380230445
0.6567927556256874 13.003014084095405 24371.01010881804 12.972430752000447 0.24727482422392882
0.678324027679762 12.995993002020112 21028.584645982053 13.59154579867272 0.25077263781220416
0.700211786552078 12.991067230037277 18172.44986172884 14.23728501372492 0.2543203475186531
0.7224468921776543 12.987998137193445 15615.500461327993 14.910838066334973 0.257919937928239
0.7450337194240424 12.986654100596505 13634.151864843077 15.613237928026985 0.2615713389239769
0.767953299617214 12.98675357094591 11836.533952870057 16.345744189526847 0.26527638002288934
0.7911981733498602 12.988138430736443 10289.117423999129 17.10997600673729 0.26903978389353295
0.8147738408601917 12.990652759969224 8956.537577429734 17.907388400250852 0.27286398306487775
0.8386548465232148 12.994127468731554 7807.722307199347 18.739348074183166 0.27675007133779317
0.8628361618504589 12.998398902406956 6814.980207736864 19.60719667929913 0.28069850488015735
0.8873154838401304 13.003351205170874 5955.439971808526 20.513021315350244 0.28471565601150767
0.9120711260070365 13.008843450773696 5211.178390461363 21.458616069175548 0.28880453799839145
0.9370917981927244 13.01473727714273 4565.33931171404 22.445466699204818 0.2929650859243851
0.9623699527401064 13.020933336465594 4004.6115409559993 23.47559526923489 0.2972010729830313
0.9878945712771224 13.027335037533096 3516.6914122989992 24.55142562318657 0.30151861207174097
1.0136369119500421 13.033788547088243 3091.9430384242346 25.674901713885497 0.3059193473837291
1.0396008670197863 13.04024178360932 2721.5577310556237 26.84798135952826 0.3104045139318759
1.065751075531373 13.046567237422254 2398.3953512928388 28.07376285956336 0.31498285870038767
1.0920823174701213 13.052696639657517 2115.8558158176343 29.354302149140207 0.31965483416707524
1.1185799437949202 13.058537338029561 1868.6711610730936 30.692352850075583 0.3244251114714173
1.1452107925974817 13.063989294048323 1652.1432894053269 32.09131718720207 0.32930176470202194
1.171974699410482 13.069007054348251 1462.1194220432958 33.553132107404494 0.3342824650633895
1.1988304076676786 13.073465756840422 1295.5523215188246 35.08234175434402 0.3393807918114778
1.2257748229078655 13.077331097373106 1149.0959433517392 36.68097145560873 0.34459351954972844
1.252770360983619 13.080491530523117 1020.2072803761387 38.35407202350679 0.3499350765111897
1.2798127579481495 13.082937148982984 906.7424327064521 40.103879177159385 0.3554020207228108
1.3068556220265055 13.084520968657218 806.748425185341 41.93587224952771 0.36100895957146173
1.333893407145176 13.08523557418183 718.6160511833741 43.85352258949059 0.3667577541910849
1.3609001210573914 13.085034431095666 640.6276621508982 45.86153423204961 0.3726562460913675
1.3878316574738259 13.083773756414681 571.8292641256265 47.96523214693375 0.3787143481653795
1.4146883137781916 13.08148367525145 510.83991833301747 50.169362130527404 0.38493765796280344
1.4414117197091871 13.078034577478107 456.8929207711806 52.479163828766815 0.3913332512537535
1.4680059361641375 13.073436525802697 409.03258717828163 54.90104269222758 0.3979127655070416
1.4944146399026998 13.067575108462904 366.55190165620894 57.441187722123644 0.40468526029246304
1.5206262833246942 13.060428940188887 328.84322195666647 60.10622595117456 0.4116605051478404
1.5466098249677143 13.051941891420173 295.29893847329936 62.903261875091914 0.41884903803395296
1.5723257718534709 13.042064080053287 265.47268100583824 65.8399206592619 0.4262622285616186
1.5977498047729854 13.030736601803833 238.93288936264926 68.92439550386084 0.4339123465495123
1.6228365179779043 13.017917105159912 215.24654099813483 72.16549959827343 0.4418126365396933
1.6475891527134416 13.00357961313098 194.10585902746172 75.57272314970629 0.4499773989736053
1.6719375003964214 12.987645346785959 175.2373333734253 79.15600661581794 0.458420870221665
1.6958746954065174 12.970099766191721 158.36887918193918 82.92553246391887 0.4671562862816467
1.71935537594727 12.9508894661077 143.28278927321227 86.8940403545097 0.4762052109957644
1.742341096554878 12.929950413998426 129.78189880649873 91.07311844577383 0.48558203126801464
1.764821886069738 12.907303899231012 117.68481557085555 95.47683101523843 0.4953085710173431
1.7867482122799927 12.882869718959045 106.82580230900675 100.11887016889575 0.5054024509194636
1.808086719235945 12.856617768128409 97.08870846416663 105.0157468218601 0.5158893193759039
1.8287970577886312 12.828485333221602 88.33373718918239 110.1839998776528 0.5267917106237674
1.8488765363550579 12.798523649794982 80.46543168342833 115.64124901045716 0.5381329620251991
1.8682641160167393 12.766617154929307 73.3839605619905 121.40771984707786 0.5499424737769854
1.8869335007095347 12.732770181754281 67.01216003098017 127.5048227200821 0.5622500046529305
1.9048568567191415 12.696957956167724 61.258010750914266 133.95500338817965 0.5750848768193991
1.9220002824356022 12.659143920296346 56.077178254960145 140.78391652932095 0.5884832938193759
1.9383155016365976 12.619271122314819 51.39439054274818 148.01925408090258 0.6024835814007978
1.9538116911783652 12.57741919776359 47.163510226789676 155.68953751387426 0.6171215898403333
1.968429361971795 12.533492703784912 43.3384777340493 163.82838217429506 0.6324448195832735
1.9821458274893753 12.487497808939159 39.88178233954393 172.46953685755886 0.6484947602760763
1.9949372855140184 12.439425082912996 36.7474258092163 181.65232671896678 0.6653247108374504
2.006773662758326 12.389269330860987 33.9051029551841 191.41872842128745 0.6829890138169412
2.017621410674013 12.337000287233321 31.328556986385326 201.81476873635557 0.7015468929995249
2.0274615699951677 12.28261751877519 28.992754336140386 212.89040844325376 0.7210610772631617
2.036272342641757 12.226158464755045 26.870769337330582 224.70108478859473 0.7416017528555437
2.0440180520455655 12.167567739500514 24.943985178635014 237.3079915942418 0.7632461716056825
2.050678852488749 12.106866889827716 23.18876831389584 250.777963580767 0.7860768488532468
2.056253030473022 12.044126585366072 21.594014728783716 265.1840897214693 0.8101819333385589
2.060702682934073 11.979281573690258 20.14305351244499 280.60811166674887 0.8356611484646395
2.0640106394341493 11.912388428611704 18.822279297492937 297.139721211427 0.8626213691486863
2.0661729684618613 11.84349506658608 17.61943427255844 314.87930321160843 0.8911831392265078
2.06716965019958 11.77260880935955 16.52459298469646 333.9362518549987 0.9214723183036172
