M[M_sun], R[km], Lambda[1], P_c[MeV/fm^3], rho_c[fm^-3]
0.24162668629717493 15.618656898711224 2160425.4255784233 3.5677272577965504 0.1711233750220791
0.2536447973499256 15.27730021857334 1723079.9921769158 3.7848450353494876 0.17388849001766138
0.26604245947818783 14.981227531555568 1382926.0601099718 4.011454944161455 0.17666730715079124
0.2788233639204679 14.723293454670571 1116406.4682553115 4.247812286164348 0.1794584893219126
0.2919752461191515 14.498327411768829 905806.4975978377 4.494542588670789 0.18226860900831143
0.3055119407231 14.301160539852784 738544.5540805386 4.751802653184353 0.18509339589458054
0.31943046460091473 14.128040915414754 605036.0853948848 5.0202728633391835 0.18793942691081358
0.3337304039432054 13.97583932200506 497619.4734759184 5.300179847856405 0.1908033753184241
0.34841360230498736 13.841921010961938 410942.3654900259 5.592249337653126 0.19369147916699342
0.36347895875745695 13.723858779013367 340601.3699338684 5.896652282656092 0.1965988690949211
0.3789335152452549 13.619907843841549 283245.938230384 6.214251308329394 0.1995331950002438
0.39476776858978724 13.528365672626208 236360.34975867852 6.545300553218067 0.20249057667733972
0.410995323116739 13.447797273291016 197825.17114510378 6.890509049278997 0.20547483707142877
0.4276060737568047 13.37695642344941 164034.31967722526 7.250579118542431 0.20848899759980624
0.44460330233142137 13.314856370386867 139768.9092590328 7.625765160504138 0.2115285312557651
0.4619850783464035 13.26048071530529 117947.35419645155 8.01702540163042 0.21459974174489063
0.4797540635133935 13.213086842268309 99782.99418424263 8.425060876904602 0.2177042092140978
0.4979142797892034 13.171928649196426 84620.31586312296 8.85030639754111 0.2208393131249219
0.5164559541024832 13.136332338712016 71920.0950312561 9.293647475241631 0.22400863272914542
0.5353754471258781 13.105791737290247 61256.72683076417 9.755963593370709 0.2272150057052312
0.5546861787123297 13.079748227808137 52287.60428194311 10.23806112805962 0.23045973768652317
0.5743709885267014 13.057795486179884 44714.75251746334 10.740413062822851 0.2337395483003973
0.5944307600266764 13.039490059395261 38313.86908873826 11.264271353366404 0.23706071203598833
0.6148702915298954 13.024472726311982 32890.05305724442 11.810569184215113 0.24042478250342922
0.6356786640632915 13.01240083313579 28281.353958774554 12.380286025002354 0.24383339348659314
0.6568514596314265 13.00299640365386 24360.76020894022 12.974098933468012 0.24728435886512742
0.6783868328844886 12.995959987745968 21019.77053335174 13.59335888921699 0.2507827326145986
0.7002780158544331 12.991046117627862 18165.13891350992 14.239252736236418 0.2543310225093127
0.722515088490457 12.98799312263061 15722.408797141936 14.912970768476585 0.25793121432838984
0.7451065267420224 12.986652937893542 13628.189905087695 15.615525811746924 0.26158303306793995
0.7680301753650639 12.986763612082504 11831.238899189777 16.34821824078891 0.26528871254791725
0.7912792811883306 12.988150041281134 10285.49294383521 17.112648644115193 0.26905278002407074
0.8148555469732278 12.99068167552669 8952.004175441985 17.910272865730306 0.27287766964732857
0.8387424755591771 12.994137982604776 7754.281221626845 18.74243157332258 0.2767642384208935
0.8629254696227701 12.99841745782672 6810.899446316989 19.610519309530634 0.2807134114265329
0.8874114721544778 13.003381020791892 5952.497240242939 20.516599070804585 0.28473133429064834
0.9121708878181496 13.008863202113105 5208.656506656716 21.462466039324333 0.28882102245566726
0.9371948631646757 13.014763480525186 4562.939978606806 22.44957284535602 0.29298214051781213
0.9624805820399072 13.020973600380868 4002.4607120507894 23.48000912666559 0.2972189989695421
0.9880047716125301 13.02735416632653 3514.6640039328004 24.556167970668227 0.30153745116698755
1.0137504172537877 13.03381220488662 3090.5371852566177 25.679954192947687 0.30593884587348263
1.0397177647923082 13.04027763753005 2719.976565761192 26.85340574534055 0.31042500628470804
1.0658713642622142 13.046602817740489 2396.7843877058776 28.079584547383934 0.31500439565509986
1.0922085198111577 13.052729599456201 2114.586569218033 29.36050050400586 0.3196771444387823
1.1187096633769156 13.058561950701414 1867.341281672845 30.699001883520936 0.3244485663677424
1.1453434896560035 13.064016672220061 1650.9774665873979 32.09839519606081 0.3293260840433047
1.1721105148052318 13.069028922067602 1461.2008060246137 33.56072212676555 0.3343080442112
1.1989691399715239 13.073481197851278 1294.6653151261683 35.090479613002515 0.33940770150388294
1.2259181981159681 13.077349802457906 1148.3769870026329 36.68963353563347 0.34462146207902705
1.2529173292134466 13.080513037900895 1019.5746832861944 38.36329348253075 0.34996411400162675
1.27996122221137 13.0829493340054 906.1586232260805 40.11376484129783 0.3554326036650681
1.3070145886394364 13.084546461215826 806.2641926413497 41.94639846990404 0.3610407819303748
1.334047517018916 13.085239710245824 718.1199989139498 43.86480739933964 0.3667912984820302
1.3610578412433834 13.085029756592169 640.1575723383902 45.873553983090616 0.37269119789463495
1.3879990249512395 13.083781614305273 571.4313654888848 47.978038186307835 0.3787507982873176
1.4148430618212886 13.081452691433405 510.49330597119564 50.183094901554746 0.3849761387006047
1.441576505666019 13.078008563957095 456.588904382953 52.49380152823298 0.39137344089221554
1.468171810946385 13.073404030358132 408.7438411518655 54.91665014378888 0.3979547779597057
1.4945827392482973 13.067530126476557 366.2906634496981 57.4578350007073 0.40472921827976793
1.5207960487427514 13.060375957398374 328.63472415116655 60.12398885318716 0.4117065409204453
1.5467806179097379 13.051882902049407 295.0966802475236 62.92222243554961 0.4188972941677492
1.57249789132069 13.041991985246709 265.28217388571454 65.86016772107025 0.42631285883212816
1.597911880889766 13.030648191197804 238.75209348094955 68.94602534510418 0.4339655168942657
1.6230203809922963 13.017832753416045 215.08326495397657 72.18861662409743 0.4418685261182125
1.6477627483702608 13.003471998101464 193.9568530124678 75.59744065619209 0.45003620133577177
1.6721107724086053 12.987526485640188 175.11906123843525 79.1823185446245 0.4584822556505426
1.6960475941930842 12.969965141595587 158.25175003766017 82.953695572081 0.467221005022179
1.7195272797108148 12.950740167013645 143.18012340392795 86.9241996425231 0.47627350694446274
1.742508386036292 12.929792011366919 129.6892494554789 91.10528646630581 0.48565359327307556
1.7649898414748444 12.907126130202197 117.59155873123782 95.51131770874065 0.4953842425233914
1.7869000728926712 12.882646130308924 106.74833811191212 100.15570556559649 0.5054819401074853
1.8082518701051793 12.856404387608288 97.01976526018531 105.05512196298844 0.5159729325706234
1.8289565578408213 12.82825234429984 88.27423453094518 110.22612314476362 0.5268797791701801
1.8490364099413026 12.79827161462067 80.41097832307443 115.68652002222626 0.5382264763136889
1.8684078286126615 12.766319103489465 73.33287360365658 121.45622098158395 0.5500412043131568
1.8870827557375027 12.732484390847478 66.95759913985576 127.55666853201421 0.5623538117888135
1.9050047133711017 12.69664858672425 61.213859968449 134.0106162913088 0.5751946739578292
1.922142384659358 12.658813833995135 56.03594885619662 140.8436493216575 0.5885996760140805
1.9384516513819525 12.618908756797955 51.3540557900549 148.08346453691397 0.6026070934076051
1.9539427196694459 12.577045848628217 47.13026783006473 155.75840705216729 0.6172521045093365
1.9685527469192845 12.533096683003647 43.309921886625254 163.90232821628882 0.6325829514042522
1.9822644673920191 12.487078665666738 39.8471330085502 172.5492404018048 0.6486419241559213
1.995046506633422 12.438976409023235 36.71964089017017 181.73807674267766 0.6654809056946311
2.0068781498309076 12.388799155697003 33.879490549958014 191.51108187912158 0.6831550387357028
2.017718559401343 12.336504982625044 31.30744813694564 201.91434002098012 0.7017236222078361
2.0275479623256563 12.282104620954145 28.9713841381696 212.99762488521318 0.7212486460138138
2.0363506408553134 12.225612533790061 26.851934561913367 224.8169389819944 0.7418020095869323
2.0440869788086475 12.166998117212648 24.926386389785037 237.43304804991283 0.7634594043504833
2.0507393807054184 12.106267409284559 23.172716135277366 250.91312598131267 0.7863042756912927
2.056303030459014 12.043497856379075 21.57962415679803 265.33052629439425 0.8104254326991491
2.0607413263457737 11.97862624527278 20.12892070201168 280.76660486412896 0.8359211141973114
2.0640375992241085 11.911706454352107 18.809191786625895 297.3116760902427 0.8628999668634346
2.0661863167092935 11.84277975736755 17.608753283537194 315.0661008771645 0.89148216554879
2.06717304815282 11.771872227152757 16.513321355806617 334.13912458100106 0.9217927395689789
