M[M_sun], R[km], Lambda[1], P_c[MeV/fm^3], rho_c[fm^-3]
0.24162668629717493 15.618656898711224 2160425.4255784233 3.5677272577965504 0.1711233750220791
0.2536435393534619 15.277273740281432 1723186.7243938285 3.784810924326178 0.17388806484021152
0.2660382850585132 14.98132671363369 1383015.5629513063 4.011383235678064 0.1766664405960889
0.2788131831708927 14.723556786664918 1116445.1100538445 4.247700553897792 0.1794571933959975
0.291966666660736 14.498468177820055 905903.10425372 4.4943879003573715 0.18226688651804024
0.30550292070529556 14.301275100165771 738675.8603773123 4.751599756066669 0.18509120421847458
0.31941771703359373 14.1281634406235 605121.7618015896 5.020020262489561 0.18793680607950378
0.333714365867302 13.975990232456455 497722.67219928856 5.299870892556832 0.19080026465120695
0.348395242909619 13.84207526355056 411035.04724906303 5.591883256174199 0.19368793722797925
0.3634570504747889 13.724033677342081 340685.5252322333 5.896220849967474 0.1965948169878087
0.37890992237279564 13.620043079941992 283327.95685535704 6.21374930300473 0.19952861731613664
0.3947411452593267 13.528499588932474 236422.6076734864 6.544728496124516 0.20248556050944055
0.4109648009851594 13.447938464076937 197885.52108591225 6.889855896247301 0.20546927454612582
0.42757358195337114 13.37708344254874 166097.4127187398 7.249838739902943 0.20848287263706455
0.4445656412081622 13.314970048093741 139821.34845146138 7.624939602270282 0.2115219592813914
0.46194594982529624 13.260607922238716 117990.66262997779 8.016100263262917 0.21459258505167575
0.4797099410682096 13.213186487381163 99830.84159050332 8.424028943649345 0.2176964505186345
0.49786616040879567 13.172021374178357 84654.02606689949 8.849171474035264 0.22083109579382407
0.5164037285958836 13.136424355031574 71948.50675987778 9.292391193801016 0.22399978842948348
0.5353196567594171 13.105879338829048 61285.61764162324 9.75457743528803 0.22720551533326097
0.5546257546312215 13.079828550996664 52308.25460034317 10.236539624666051 0.23044962718152776
0.5743064634513336 13.057862341867693 44737.32912254605 10.738755705005742 0.23372890754982628
0.594362359667882 13.039547160233864 38334.41468698851 11.262456783021515 0.23704937456763644
0.6147976091004019 13.024530491838458 32907.18575389735 11.80858668071385 0.2404127255744075
0.6355993377618521 13.01243118517501 28300.437837103054 12.3781241988401 0.24382059315347251
0.6567684254841951 13.00303011453386 24375.806365272827 12.97176771215944 0.24727103456008992
0.678298371150081 12.995990764984752 21031.461965857245 13.590825166717499 0.25076862552654633
0.7001864330847767 12.991059681064758 18039.627033965022 14.236502925826821 0.25431610465363613
0.7224191708642463 12.9880051296823 15733.431773178198 14.909990410410566 0.25791545605184035
0.7450044097247663 12.986645504288633 13636.764773370098 15.612328598215573 0.2615666910331632
0.7679233725856712 12.986756323161837 11837.929550334493 16.344760871819734 0.26527147843074395
0.7911672138797208 12.988129961075684 10291.304353704803 17.108913766174595 0.2690346185773814
0.8147400759968313 12.99066395868633 8958.374305825912 17.906241974695476 0.27285854335759085
0.8386204437791702 12.994122850379304 7809.212355906025 18.738122548437293 0.27674444068109494
0.8627988212060035 12.998390329673338 6816.108905795893 19.605876118876324 0.28069258035837413
0.8872741624540903 13.003335540116183 5956.864868543164 20.511599364575062 0.28470942480273387
0.9120319710189649 13.008840290991625 5212.306829227305 21.457085937157256 0.2887979864161954
0.9370499903412023 13.014730517821153 4566.3243019001175 22.443834759824732 0.2929583077772856
0.962327820322776 13.020922030343742 4005.63105872855 23.473841043302173 0.2971939485502872
0.987850478853967 13.027318110014466 3517.5233528064214 24.549540853942116 0.30151112477827474
1.013591732093777 13.033780748040257 3092.615462467704 25.672893696891986 0.3059115980594289
1.039552859271424 13.040238180523549 2722.1408683764753 26.84582554702394 0.3103963696604307
1.0657019017657254 13.046556508945184 2398.9184066985435 28.07144916056138 0.3149742993217059
1.0920328899257632 13.05268978533989 2116.4943192026913 29.35183876363307 0.31964596749177593
1.1185290907747145 13.058528982936274 1869.0641043231099 30.689710368617096 0.32441578994684395
1.145158566207419 13.063987986744454 1652.4985270787133 32.088504234106665 0.32929209967225087
1.1719185186236525 13.068997861066764 1462.53121720914 33.550115688138355 0.33427229941945674
1.1987738627567046 13.073454210106771 1295.7838768988793 35.07910763258279 0.3393700974475858
1.2257181933990955 13.077321853911016 1149.3958044911492 36.67752901627949 0.34458241477333046
1.2527123067636439 13.080487146598388 1020.4489353116148 38.35038791778349 0.34992342295519097
1.2797526935506165 13.082934856688844 906.9540298841173 40.099950511154994 0.35538986674267575
1.3067960484943173 13.084521816380056 806.9699444147768 41.93168904117096 0.360996313098846
1.3338308699202883 13.085240553225043 718.7359264509054 43.84903793991309 0.3667444234932506
1.3608380177791137 13.085036882947627 640.8128419816516 45.856757537783835 0.3726423561133075
1.3877676676174406 13.083781120485272 571.9684587120196 47.96014300612527 0.3786998628278282
1.4146234065721304 13.081490853635112 510.9801045602277 50.1639047414689 0.3849223657572448
1.441346317567053 13.07804275741445 457.0105357288341 52.47334685460465 0.3913172800221361
1.467939138328687 13.073452024902295 409.1401151268139 54.89484037712555 0.39789606999024896
1.494348147073001 13.067588319052222 366.6529578312188 57.43457222404185 0.40466779173270817
1.5205594036421473 13.060446296880588 328.94268742625786 60.09916715509147 0.41164221100135945
1.5465414076236752 13.051967160928255 295.3824087051837 62.89572718758909 0.41882986165522407
1.5722573118534824 13.042091986460058 265.54493698310296 65.83187478239817 0.42624210885605573
1.5976809306539428 13.030769569612898 238.99572652837938 68.91580018600526 0.4338912175912132
1.6227684598939633 13.017954000307299 215.30385448562632 72.1563133592857 0.44179042715042716
1.6475192040343043 13.003623589695795 194.16280610625614 75.56290097752535 0.44995403225875574
1.6718694154529756 12.987692393708462 175.2903137638653 79.14555091613698 0.4583964771939303
1.6958065083124116 12.970152071460793 158.41942466837014 82.9143412303996 0.46713056885961357
1.7192713384331548 12.950914155054795 143.32766027756023 86.88205598078332 0.4761780722856982
1.7422739496568573 12.930017894056475 129.82315807529656 91.06033594331723 0.48555359490511873
1.7647539403079544 12.907376113840638 117.71923067002466 95.46312725259519 0.4952785019022023
1.7866817540451974 12.882950317362637 106.85755596360599 100.10423321402571 0.5053708650058603
1.808021088979765 12.856703453874067 97.11624257266145 105.00010077878179 0.5158560949706317
1.8287330856800312 12.828578432938928 88.3598852307168 110.16726196244997 0.5267567160954937
1.8488132390913592 12.798621959823068 80.49020784845962 115.62326047197324 0.5380958039120587
1.8682020621581403 12.766722284819867 73.40329791095347 121.38844795770449 0.5499032432725807
1.886874272356713 12.732884398627254 67.0312901193037 127.48415928626933 0.5622085333061446
1.9047981216525045 12.697080538790471 61.277833472668846 133.932905971471 0.5750412496576293
1.9219436501301095 12.65927616905825 56.09199022244912 140.7601822999225 0.5884370505148365
1.938259493744107 12.619398710995835 51.40861143670893 147.99374091603116 0.6024345055588085
1.9537605749263922 12.57756811187801 47.17772656746117 155.66217334221713 0.6170697319958508
1.9683793565275394 12.53365285422237 43.35336151235161 163.79900118043784 0.6323899356425752
1.9820990844100976 12.487666587646016 39.89260354788949 172.43786853462888 0.648436288180329
1.994892732758937 12.439602924283111 36.75819891139387 181.6182562730788 0.665262651047852
2.0067251851628307 12.389439451305964 33.91600584964065 191.38203461881443 0.6829230489281596
2.0175842794750216 12.33719626066048 31.33750249544811 201.7752075317767 0.7014766757637884
2.0274244745136616 12.282825611425283 29.00060895088141 212.84781008826425 0.7209865539896863
2.0362405563951986 12.226373752712334 26.879531612635528 224.65505502834264 0.7415221893191349
2.0439908223398957 12.167794633413754 24.950517879305025 237.25830619716837 0.7631614534394939
2.0506555939896645 12.107105764204482 23.19512449011315 250.72422324844166 0.7859863608219194
2.0562280590401527 12.044352470896342 21.599965647714175 265.12586643153384 0.8100850464014044
2.0606867816800096 11.979541182578856 20.148197434407372 280.5451437619754 0.8355578664451595
2.0639998321124424 11.912659371156321 18.82739126249407 297.0714058993689 0.8625106861023385
2.0661664825962793 11.843776108040009 17.623691948229265 314.8050919631015 0.8910643416138775
2.0671660705510777 11.772899872426668 16.528314243619768 333.85565524513703 0.9213450223963524
