M[M_sun], R[km], Lambda[1], P_c[MeV/fm^3], rho_c[fm^-3]
0.24162668629717493 15.618656898711224 2160425.4255784233 3.5677272577965504 0.1711233750220791
0.2536448899392962 15.27726312050233 1723102.751057178 3.784843731256684 0.1738884737627737
0.26604226263013914 14.98121090637473 1382899.8580272608 4.011452202669624 0.17666727402148039
0.2788195855393329 14.723452289190087 1116401.3711636374 4.2478080144951935 0.1794584397769877
0.2919747633782984 14.498316183238899 905842.3040603373 4.494536674702135 0.1822685431548979
0.30551380969980324 14.301088516739044 738545.1489843177 4.751794896074532 0.18509331210298982
0.3194298412834459 14.12804742375504 605026.8820599046 5.020263205915605 0.18793932671131655
0.33373042414396475 13.975862460025564 497623.38594617357 5.300168035824606 0.19080325639086357
0.34841290190445595 13.84192771159264 410946.7157266803 5.592235341488798 0.19369134375025332
0.3634781657303302 13.723872091333595 340633.3135031087 5.8966357878675915 0.19659871417237684
0.37893214772429834 13.619928806392931 283244.41414462123 6.21423211525981 0.19953301998255915
0.39476725919077077 13.528356537390437 236374.60735095348 6.54527868176228 0.20249038489421936
0.4109941663140185 13.447778225774613 197820.93508771854 6.8904840771467555 0.20547462439827147
0.42760336052076603 13.376993319456252 166049.11595342963 7.25055081134275 0.2084887634215978
0.44460131070881537 13.314867476512255 139766.96376878567 7.625733596445296 0.2115282799855611
0.46198244902330077 13.260498294494441 117944.24248175081 8.016990030076943 0.21459946811732783
0.47975227572918533 13.213087728020831 99794.5488122559 8.425021421968031 0.2177039125681318
0.4979124671094087 13.171913711658927 84620.2359239796 8.850263004673348 0.22083899894201894
0.5164530858961615 13.136338266869224 71919.37464755632 9.293599442101973 0.2240082945728477
0.5353741213029355 13.105788286632622 61257.38733017293 9.755910594202325 0.22721464284487036
0.5546839313565387 13.079770538817455 52289.18031183165 10.238003384406156 0.23045935665136552
0.574368128177989 13.05782420423171 44715.08623820605 10.740349693835443 0.2337391414518689
0.5944277140244041 13.039492044915484 38315.948861398865 11.264201973009273 0.23706027854626144
0.6148663229605578 13.024485001981065 32889.95116737168 11.810493382519939 0.24042432150265022
0.6356754770722114 13.012407867097377 28281.04728280401 12.380203366419558 0.24383290405899088
0.6568484079271244 13.002995466794168 24361.170077833693 12.974009797585639 0.24728384940097567
0.6783827271412992 12.995971726214494 21019.87069852151 13.59326201006397 0.25078219321743006
0.7002745643419934 12.99104609865801 18165.0314070638 14.239147594230053 0.25433045210879673
0.7225108926241386 12.987998741847266 15723.90172647272 14.912856810644415 0.25793061179037446
0.7451033740464713 12.986649395974306 13628.241512417531 15.615403561647971 0.2615824082065258
0.7680262279555168 12.986766149619466 11831.668054115347 16.348086042591486 0.2652880535730595
0.7912751632185633 12.988146939633626 10285.828338126226 17.11250583417066 0.26905208558766996
0.8148509353781287 12.990678349146943 8952.412644341726 17.910118736383833 0.27287693831460036
0.8387378528353171 12.994142896849098 7804.087783982102 18.742266808265583 0.27676348141070833
0.8629202393164909 12.998426449901283 6810.996043473868 19.610341765988412 0.2807126149006298
0.8874066539168921 13.003366417682619 5952.561601939225 20.516407894036305 0.2847304965244073
0.9121656266931055 13.008869821626575 5208.865182036555 21.462260316049033 0.2888201416081772
0.937188389269204 13.014759916143355 4562.936661851442 22.44935343265041 0.29298122920234765
0.9624753181150983 13.020971082067767 4002.5900935466093 23.47977327046848 0.297218041087446
0.9879985182139865 13.027352989512309 3514.7574632201395 24.555914560523696 0.30153644448878275
1.013745724891523 13.03381103312691 3090.629918621956 25.679684209916505 0.3059378039569695
1.0397113547083692 13.040269468696636 2720.068026244019 26.853115888085696 0.3104239112561937
1.0658663992302984 13.046597762762847 2396.982371200499 28.079273458717495 0.31500324480285097
1.0922014384279148 13.052736189486795 2114.6747680072 29.36016928666393 0.31967595225971984
1.1187026616006748 13.058560456722265 1867.3970311825685 30.698646582176092 0.32444731301922547
1.1453364202837684 13.064019567674988 1651.1496089805457 32.09801697054915 0.3293247844977004
1.1721026127350656 13.069027969203262 1461.2058592994763 33.560316539473504 0.33430667734020797
1.1989611800847844 13.073484323123457 1294.6809905182151 35.09004474910111 0.3394062635268529
1.2259108576549858 13.077345537371151 1148.4259963542822 36.6891706573099 0.3446199689052073
1.2529092617961903 13.080511232059981 1019.6010022336093 38.36280071084033 0.3499625623108139
1.2799536955617323 13.082942450668803 906.1857705833892 40.11323657392885 0.3554309693823113
1.3070072938870745 13.084548964968551 806.3421277985806 41.9458359707224 0.3610390814101304
1.3340391105164084 13.085239496620815 718.1192721746389 43.86420436011938 0.3667895059375987
1.361050248321426 13.085032238181364 640.222634170547 45.87291166768232 0.3726893301286796
1.3879902842163845 13.083781149320611 571.4455207744502 47.977353850469754 0.378748850446614
1.4148345261669144 13.081455706478105 510.52180010908876 50.182361039229036 0.38497408233749475
1.4415677837455756 13.07801049618425 456.5939409021049 52.49301930468657 0.3913712931994309
1.4681641621321382 13.073404254175934 408.75238088663974 54.91581609446857 0.3979525328489359
1.4945741183166552 13.067532449379316 366.30219962512683 57.45694538037952 0.40472686919196493
1.520786956555381 13.060379012777554 328.64024272735986 60.123039610803495 0.4117040807871579
1.5467712765641422 13.051884373109297 295.10518083329936 62.921209186602916 0.418894715368623
1.5724890194607022 13.041993887646642 265.29595639497467 65.85908571716439 0.4263101531481645
1.5979020001627922 13.030652130016131 238.76270677759342 68.94486944042077 0.4339626754563731
1.623011300732775 13.017837784578218 215.09148884533136 72.18738123841092 0.4418655393505438
1.6477529905215305 13.003476332816176 193.94499204530592 75.59611973403571 0.45003305889326534
1.6721017179572621 12.987531594794048 175.12465234201954 79.18091240991994 0.45847897515436414
1.6960384441691578 12.96997131985681 158.2571052293617 82.95219050144043 0.4672175463742304
1.7195180984796037 12.950748104250286 143.18581356404857 86.92258788578 0.476269857108439
1.7424995594420494 12.929799297866026 129.6946365092508 91.10356735267061 0.48564976887802025
1.7649806255659248 12.907136491275805 117.59616378732619 95.50947467186614 0.4953801984889586
1.7868921628030723 12.882656481020863 106.75292441009705 100.15373700052727 0.5054776920294697
1.8082425667067628 12.856416007765883 97.02091566889078 105.05301765856647 0.5159684640757726
1.8289471368360837 12.828261800015959 88.27444172443175 110.2238719629041 0.5268750725477437
1.8490276143239048 12.798283807922745 80.4112876913763 115.68410060261809 0.5382214786276559
1.8683997949575688 12.766333595004681 73.3335056439248 121.45362892119178 0.5500359278280825
1.88707504516406 12.732499479109388 66.96078993738121 127.5538991317717 0.562348269053492
1.9049963503853722 12.6966659686422 61.21710496450079 134.00764412464224 0.5751888059779798
1.9221348051822973 12.658830991465583 56.03679953321077 140.84045695429933 0.5885934560684708
1.9384448854180942 12.6189254000539 51.358695351200396 148.0800328446988 0.602600492376892
1.9539364591544517 12.57706505534882 47.133147654743034 155.754726338099 0.6172451291877324
1.968546233944405 12.533116046199495 43.311289215376036 163.89837616773949 0.6325755689447183
1.9822580840408643 12.487100607443994 39.85379772292873 172.544980616007 0.6486340589272009
1.9950404344233745 12.43899979094711 36.72095506779876 181.73349377291368 0.6654725577516596
2.006873002793232 12.388823605747707 33.881354838683656 191.50614595335 0.6831461653627457
2.016440378343685 12.339302244600955 31.513058415398245 202.38463081310783 1.2446151838101311
