M[M_sun], R[km], Lambda[1], P_c[MeV/fm^3], rho_c[fm^-3]
0.24162668629717493 15.618656898711224 2160425.4255784233 3.5677272577965504 0.1711233750220791
0.25364409879374217 15.277290035931355 1723269.001064385 3.7848211949332007 0.17388819285837337
0.2660401863129031 14.981253213024324 1382994.2052159286 4.0114048265390405 0.17666670150890176
0.27881471631138216 14.723513556133508 1116413.7948797846 4.247734195460227 0.179457583587425
0.2919697818904327 14.498396874489849 905857.5417269982 4.494434475396285 0.18226740514190803
0.3055047571056091 14.30124976375345 738700.4271856037 4.7516608460135075 0.18509186410649237
0.3194219909978417 14.128124224569255 605100.1655269254 5.020096317341455 0.18793759517794667
0.333719632685898 13.975993226759295 497690.0899378138 5.299963914618599 0.19080120122901742
0.3484007665096215 13.842028564107268 411006.65478521684 5.591993477691543 0.19368900365148045
0.36346406869494224 13.723967627423498 340668.0350401297 5.896350747203673 0.19659603701014028
0.3789166032076707 13.620002812885142 283308.7325909773 6.213900447883026 0.1995299955754364
0.3947489962297392 13.528458460924233 236419.84787882862 6.544900731710534 0.20248707078285105
0.41097419050669903 13.447863939992587 197863.1163368165 6.8900525475109715 0.20547094931080873
0.4275819679028049 13.377059890658396 166084.77812603765 7.2500616521695855 0.20848471673311897
0.4445771243828411 13.31495395371692 139802.9091958547 7.62518815942699 0.21152393795618052
0.4619584504201242 13.260568848702988 117979.82387516723 8.016378800698318 0.21459473976392643
0.4797232854249363 13.21315734660369 99813.11657015233 8.424339633321727 0.21769878647063462
0.49788077329415087 13.171981398391996 84645.25539608899 8.849513170378561 0.22083356982134514
0.516418502580942 13.136410580199012 71938.50367249215 9.292769426467924 0.22400245121103857
0.5353377318725175 13.10583622304109 61276.59530540993 9.754994768750747 0.2272083726190542
0.5546445015445732 13.079816597607877 52299.626472841686 10.236998779222894 0.23045268497175955
0.5743267586312896 13.057836051633766 44731.38937328784 10.739254685628866 0.2337321111599916
0.594382785900651 13.039522559064372 38329.20505594541 11.26300309356755 0.23705278792581427
0.6148197741370582 13.024501992604604 32902.35341861627 11.809183548466121 0.24041635552619314
0.6356227533992062 13.012455780875591 28292.309922158223 12.378775052421545 0.24382444690582353
0.6567936505731091 13.003030147854757 24371.726495982715 12.972469562751238 0.24727504605026526
0.6783266733677957 12.995978208083521 21028.21180435797 13.59158798062065 0.250772872669989
0.7002134142524382 12.991064988230193 18172.490704165753 14.237330793049033 0.2543205958737207
0.7224477617695918 12.987999251278916 15730.017810060632 14.91088768374712 0.25792020027420043
0.7450360347653925 12.986643839978125 13634.259446480311 15.61329115558152 0.2615716109879284
0.7679557965010132 12.986747712064178 11836.448724207226 16.345801748049876 0.2652766669376905
0.7912000859956652 12.988142849639877 10288.805488802944 17.11003818511147 0.26904008624591125
0.814775183496517 12.990662574410754 8956.571490626022 17.907455506511745 0.27286430147928736
0.8386553952573509 12.99412858051065 7807.481701850533 18.739419810685114 0.27675040092990216
0.862838070982147 12.998401763587351 6814.870407444989 19.607273978808717 0.28069885167430664
0.8873175986869629 13.003361470032962 5955.455648186722 20.513104549918804 0.28471602075829283
0.9120734714729319 13.008843082223231 5211.21591270547 21.45870563633204 0.28880492149901804
0.9370933296820468 13.014743625511993 4565.273939707608 22.4455622258409 0.29296548268764677
0.9623769818922028 13.020946746789194 4004.5869548255514 23.475697954164517 0.29720149001704116
0.9878969709538231 13.027329880936188 3516.5426123894317 24.551535949751184 0.3015190503468077
1.013639993788634 13.033791359891797 3091.9178757883633 25.675019255020665 0.30591980099760685
1.0396030709467015 13.04024541215421 2721.467042180464 26.8481075522245 0.3104049906651588
1.065752911895486 13.046572186291188 2398.326859219897 28.07389829453956 0.31498335973325625
1.092085546356725 13.05269831522704 2115.8328356464576 29.354446346384453 0.31965535318861693
1.1185835359993734 13.058534369909072 1868.6285723675828 30.69250753118717 0.32442565711906146
1.1452142554942737 13.063994148874228 1644.2456477395544 32.09148184732726 0.32930233045799373
1.1719767221478905 13.069008986383338 1462.0541647268408 33.55330867801925 0.3342830601245664
1.1988333998269194 13.0734588461668 1295.4454776894174 35.082531068841135 0.3393814178231965
1.225778569622416 13.077327380148732 1149.0817559210413 36.68117296460459 0.34459416958655614
1.2527738384347176 13.080491815355886 1020.196455419294 38.35428654478903 0.3499357520181421
1.2798161542653521 13.082938523539406 906.7181880939781 40.1041091490268 0.35540273217894
1.3068596994377888 13.084524344188246 806.7338561959904 41.936117121888046 0.36100969985770504
1.3338971448070853 13.085236363302089 718.6025587701217 43.85378510781204 0.36675853453130075
1.3609039838157169 13.085037565390563 640.6111519990162 45.861813846261214 0.3726570591715121
1.3878354503942494 13.083773280617004 571.8194769960271 47.965530051367736 0.37871519609756427
1.4146921772635361 13.081485047212745 510.83894454740766 50.16968159185215 0.3849385531286407
1.4414152883184448 13.078033440298741 456.8767102331386 52.47950433983888 0.39133418616957893
1.4680084095048662 13.073436078136393 409.02214409637565 54.901405760815166 0.39791374282238295
1.4944183989826696 13.0675721658171 366.5326515096043 57.4415749781269 0.40468628286167097
1.5206305431765141 13.060424838785362 328.8442890645044 60.106639157560906 0.4116615760469101
1.5466138065855057 13.05194056316003 295.2933512889821 62.9037029399221 0.41885016057901203
1.5723297810195869 13.042060307339147 265.46738248660904 65.84039164892897 0.42626340632926096
1.59775409339776 13.03073448823265 238.92152970279403 68.92489865767722 0.4339135833991766
1.6228403851016038 13.017914444826628 215.2455738947185 72.16603734456085 0.44181393663831253
1.647592709910504 13.003575435197487 194.0998325469604 75.57329812355947 0.4499787668227761
1.671942089693222 12.987643142771917 175.23176782435257 79.15661867638038 0.45842229815195473
1.695878632075743 12.970097665629075 158.36728969865968 82.92618758288043 0.46715779174311234
1.7193592903031394 12.95088578887468 143.28034134847013 86.89474190429107 0.4762067996608501
1.7423452004555844 12.929944936956096 129.78053545013782 91.07386671838798 0.48558369589915185
1.7648254780608132 12.907301701085043 117.68302215889233 95.47763321915937 0.49531033123186907
1.7867515504889229 12.882863686285855 106.82209449003224 100.11972700262828 0.5054042999294857
1.8080905229353743 12.856613562322384 97.08531089596104 105.0166627285728 0.5158912643057281
1.8288008259757798 12.828479940602229 88.3322549364326 110.18497970377112 0.5267937591795394
1.848881212152193 12.798517314907455 80.46744120558547 115.64230204986217 0.5381351372412339
1.868257471425886 12.766581301283685 73.38821248009498 121.40884801572295 0.5499447703149191
1.8869381275935553 12.73276164491067 67.00817900287049 127.50603235202107 0.5622524323745801
1.9048602301010784 12.696950271942057 61.256717310815965 133.95629696784798 0.5750874307473173
1.9220035376778404 12.659135238792345 56.07604435002849 140.785305931261 0.5884860009027181
1.9383174518400819 12.619252576969139 51.392845096937975 148.02074762560505 0.6024864543083416
1.9538144256274186 12.577410690661228 47.16303538015731 155.69113942063365 0.6171246256139954
1.9684323915244475 12.533482661471917 43.341771568023304 163.83010215070112 0.632448032513494
1.9821487498972579 12.487487262846926 39.88048365010045 172.4713907405153 0.648498183268256
1.9949388080204187 12.439415408912765 36.74635043456319 181.65432122900737 0.6653283438651447
2.00677619265231 12.389258985586046 33.90355851763989 191.4208765106064 0.6829928754628724
2.0176246662332336 12.33698834584587 31.32837180965874 201.81708469274093 0.7015510035936586
2.027461284722015 12.282607284859504 28.992069812801198 212.89290220460447 0.7210654399494478
2.0362733656789502 12.22614585978832 26.87023023463469 224.7037794371036 0.7416064106196418
2.0440194721105347 12.167555229623135 24.94300772516025 237.31090025768006 0.7632511311440391
2.0506800211232066 12.106852836467654 23.1882813128961 250.78110727366874 0.7860821384909977
2.0562542860893926 12.044111359999748 21.59360907487445 265.1874982293614 0.8101876052937214
2.060703530600721 11.97926639866891 20.142455780572593 280.6117979455095 0.8356671948197808
2.0640109453275555 11.912374140542806 18.821843855494773 297.1437205531282 0.8626278487988488
2.066173317720017 11.843478693279488 17.619474910611252 314.8836477313672 0.8911900939481403
2.0671682215209093 11.772592263139538 16.524153762519973 333.9409702073942 0.9214797705643264
