M[M_sun], R[km], Lambda[1], P_c[MeV/fm^3], rho_c[fm^-3]
0.24162668629717493 15.618656898711224 2160425.4255784233 3.5677272577965504 0.1711233750220791
0.253641649128194 15.27733949857347 1723200.58202242 3.7847928634240615 0.1738878397197795
0.2660372241821378 14.981320758595366 1383018.2930466328 4.01134526826726 0.17666598178233617
0.27881064134146294 14.72359863526352 1116517.2980963017 4.247641395697917 0.17945650725002846
0.2919635278261909 14.498511942899077 906033.4734205992 4.494305999236013 0.18226597453004564
0.30549627427408615 14.301353861886422 738764.0081140469 4.751492331362283 0.1850900438266441
0.31941083594346154 14.128260621781655 605184.7093114475 5.019886523122521 0.18793541848195208
0.33370701836107175 13.976088601190778 497766.3480667656 5.299707317848899 0.1907986177253176
0.34838569572836997 13.842154074356802 411105.8371248048 5.591689437964934 0.19368606198348706
0.36344591094398265 13.724107730895483 340707.6561088088 5.8959924342393535 0.19659267165895228
0.37889760313978543 13.6201085498343 283370.3049776563 6.213483525972296 0.19952619374961722
0.3947262383192808 13.52858565886921 236459.65985816342 6.544425633976257 0.20248290481754705
0.4109488719568357 13.448009661245774 197923.01114511368 6.889510102757714 0.20546632962366188
0.4275541084638613 13.377163593291938 166130.37513337907 7.249446770641732 0.20847962997581967
0.444546789716479 13.315041858789247 139847.3389988986 7.624502540824103 0.21151847999125023
0.4619250028572348 13.2606575984254 118019.88045367564 8.015610486920563 0.21458879623570049
0.4796864039652607 13.213251848215794 99841.67155490001 8.423482633760003 0.21769234303199386
0.4978397422500334 13.172076679172433 84672.36543469057 8.848570645111778 0.22082674553570358
0.5163761559897481 13.136474555428467 71965.55474377358 9.291726123468312 0.22399510629287894
0.5352909578842704 13.105903969121101 61299.39045986495 9.753843614862845 0.22720049121019636
0.5545935854925694 13.079889052993892 52320.5969970345 10.235732271528239 0.2304442505245794
0.5742711451512976 13.057904815279167 44750.48487275808 10.737878327194021 0.2337232745124974
0.5943255365330097 13.039578431991238 38345.67350662459 11.261496187362413 0.23704337274857515
0.6147597436192226 13.024536148107382 32917.59203941894 11.80753719332925 0.24040634294007807
0.6355573942850771 13.012478717458961 28307.160218933415 12.376979791909818 0.24381381703511992
0.6567256517367523 13.003054155696988 24382.772305569917 12.970533640924359 0.24726398111496492
0.6782529898956879 12.99599807309057 21038.481156766833 13.589483908978739 0.25076115776280133
0.7001370806842955 12.991079541487217 18181.17189136947 14.235047291097098 0.2543082077641851
0.7223674393916265 12.988001458787716 15736.927893468326 14.90841274624675 0.2579071143467012
0.7449504532289779 12.986652402981132 13641.193124109306 15.610636152181774 0.2615580403716823
0.7678672989474205 12.986751971588468 11842.224958057055 16.342930727342168 0.26526235561953937
0.79110823663894 12.988126408847918 10294.713962006126 17.106936739599096 0.2690250049666221
0.8146780031056452 12.990654042844678 8961.762025759683 17.904108273563775 0.27284841909828783
0.8385558115215559 12.994115153040815 7811.681383821944 18.73584163597456 0.2767339610685045
0.8627331856003421 12.998372839817208 6818.710965060587 19.603418341458667 0.2806815538611402
0.887203389011954 13.0033222245873 5959.26489547668 20.508952894924864 0.2846978275623851
0.9119606530773285 13.008817430823088 5214.552722906346 21.45423813817517 0.28878579296563966
0.9369739900331078 13.014704649327468 4568.107193916445 22.440797493422 0.2929456927018059
0.9622464006720228 13.020914542372246 4007.0421796011415 23.47057619924185 0.2971806890484785
0.987768714255455 13.027299935464283 3518.809826383381 24.546033067545846 0.30149719000814673
1.013506686102248 13.033761089648463 3094.156298807708 25.669156545013276 0.30589717567059416
1.0394652233766388 13.04021363924798 2723.263171683472 26.841813348995977 0.31038121229875576
1.0656163022909928 13.046547707538673 2399.8659939583304 28.067143138771076 0.3149583694747018
1.0919394565694078 13.05267029237018 2117.334893582908 29.34725417769586 0.3196294657973521
1.1184337653752332 13.058504803976755 1869.92316592974 30.684792491887997 0.3243984418180116
1.145059480022171 13.063962297629288 1653.092788680144 32.08326911558604 0.32927411232065246
1.171819359035695 13.068975832082423 1463.2013680934683 33.54450193067772 0.3342533804780118
1.1986697535187099 13.07344469314936 1296.3620820581073 35.073088745561385 0.33935019461992993
1.2256133996679324 13.077306351308433 1149.920721628727 36.67112246371554 0.3445617482264722
1.2526044438156188 13.080480445963323 1020.928276791442 38.34352000189679 0.34990166690325875
1.2796428368712032 13.082925368181634 907.3963748044531 40.092639132704036 0.3553672477803222
1.3066833993305307 13.084515342654754 807.3961274781493 41.92390398328537 0.36097277768942676
1.3337156627104738 13.08523484603218 719.1587833863439 43.840691935516105 0.36671961485194715
1.360721283058747 13.085039875853827 641.1270209879151 45.84786807180186 0.37261650675377456
1.3876491072183266 13.083785699023405 572.2468692918623 47.950672116135785 0.37867290561764827
1.4145032239914848 13.081503594818475 511.2310170616102 50.15374859670392 0.38489390712038307
1.441230983588017 13.078080197421965 457.237699277267 52.462521574925894 0.39128755786002
1.467817327664313 13.073471614883076 409.35369454671326 54.88329803878565 0.39786500009128223
1.4942228836042812 13.067615058414464 366.8430919882683 57.42226102186844 0.40463528337609433
1.5204317479154195 13.060486536811654 329.1049861715147 60.08603105501913 0.4116081664226404
1.546414588519653 13.052010638271641 295.5395719776314 62.88170554452391 0.41879417545885317
1.5721300372963665 13.042144907231748 265.6905999757713 65.81690191955681 0.4262046673693286
1.5975527368840419 13.030830549071093 239.12392036643854 68.89980493139785 0.43385189815320496
1.622639934037991 13.018029157535436 215.41778439202153 72.13921853448097 0.4417490973288286
1.6473915453339794 13.003701329859874 194.2672651330581 75.54462283323399 0.44991054898664784
1.6717407472944719 12.98778391087842 175.3757968310572 79.12609392647248 0.4583510842596454
1.695679490470227 12.970252450978515 158.5008597770649 82.89351560598838 0.4670827116353707
1.7191513754541883 12.951053985768116 143.4142360325737 86.85975454201957 0.47612757049941495
1.7421478130495265 12.930140574542495 129.898692515147 91.03654940644832 0.48550067861609486
1.7646327196122504 12.90751750495728 117.77795177219431 95.43762652963254 0.4952225476219875
1.7865579337088433 12.883094495394664 106.91486132640556 100.07699610250243 0.5053120885008417
1.807899694146814 12.85685867399624 97.17557740762769 104.97098607280054 0.5157942698314537
1.828613456799935 12.82874778728967 88.408327344896 110.13601931315475 0.5266912388920674
1.8486958432669884 12.79880387448433 80.53647517946256 115.5897871897586 0.538026659661745
1.8680866025853142 12.76692308697233 73.4473395868026 121.35258682172798 0.5498302431413727
1.8867624448044047 12.733099066377218 67.06841971839336 127.4457090083065 0.5621313639050733
1.904689895408842 12.697306831829144 61.30985265394333 133.89178759112175 0.5749600692076761
1.921837409865819 12.659520908360934 56.12354222666943 140.71601847457575 0.588351002588407
1.9381605194634837 12.619656923183511 51.438096202856634 147.9462672420681 0.6023431875849781
1.9536636627900152 12.577851567992047 47.2060463898859 155.61125573237885 0.6169732380282826
1.968286259591504 12.533946735888618 43.37694198933613 163.74423260861388 0.6322874780197125
1.9820124737595597 12.487979825839929 39.91492431869372 172.37894286869127 0.6483274883809742
1.9948105209628677 12.439930971949618 36.77642517041428 181.55486140404122 0.6651471764148804
2.006649861526733 12.389790789019974 33.933445818964366 191.31375898391795 0.6828003090004631
2.0175131883215998 12.337563057970677 31.355185002628254 201.7015971366218 0.7013460245734552
2.0273613106759094 12.283213005765152 29.016332572393484 212.76854914261386 0.7208478917073026
2.0361815343748186 12.226778624692852 26.89274876521996 224.5694101322731 0.7413741500773628
2.0439389270007355 12.168218467066199 24.96311782220552 237.16586021618008 0.7630038245496765
2.0506107853012647 12.107549222857799 23.20669989403365 250.62410784358642 0.7858175888793096
2.0561912802827536 12.044815723521136 21.61084132632446 265.01753654330406 0.8099047791735562
2.0606587448040896 11.980024615835921 20.1582297241963 280.42796522746687 0.8353656308849775
2.0639852119409516 11.913177017313565 18.83681676418079 296.9443011465922 0.8623047536280688
2.066154736351522 11.844300377100764 17.632801473161916 314.66701882620464 0.8908433136786015
2.0671619295839028 11.77344527518472 16.536113217762473 333.7057033322753 0.9211081853280615
