M[M_sun], R[km], Lambda[1], P_c[MeV/fm^3], rho_c[fm^-3]
0.24162668629717493 15.618656898711224 2160425.4255784233 3.5677272577965504 0.1711233750220791
0.2536451784667765 15.277278764130203 1723089.0614453482 3.784855673776636 0.17388862262052365
0.2660433869400342 14.981205147800763 1382888.7473144524 4.011477308541123 0.17666757741112096
0.27882186204512327 14.723357952677135 1116369.1242830006 4.247847133409142 0.17945889349743854
0.29197822307231247 14.498275398606136 905781.7037204677 4.49459083349974 0.18226914622567883
0.3055154468708789 14.301094002659951 738519.8623834737 4.75186593408061 0.18509407944903353
0.31943460357523956 14.127993778101862 604973.9704488247 5.0203516467608065 0.18794024431922055
0.3337354181308661 13.97584463536197 497579.6014368455 5.300276208362155 0.190804345508826
0.3484193128879395 13.841873061957674 410910.9090083481 5.592363516154803 0.19369258387540655
0.36348429700643825 13.723843485767437 340555.01130798226 5.896786844813732 0.19660013293118206
0.37894027462727137 13.619876808338448 283222.16292744904 6.214407882999845 0.19953462277271014
0.3947767159090936 13.528309380112846 236331.645921411 6.545478978158647 0.20249214122302833
0.4110048438943646 13.44774746637844 197810.22685012643 6.890712769601926 0.20547657203918676
0.4276162378386536 13.376924020745111 166029.96679434308 7.250810046488835 0.2084909080075251
0.4446145502261595 13.314802275053005 139753.99826507884 7.626022658109779 0.2115305811022764
0.46199778806876823 13.260447244295284 117937.34534345752 8.017313961096423 0.21460197398565048
0.47976759660038704 13.21305263747843 99770.2317262922 8.425382749037917 0.21770662924257134
0.4979285067919304 13.17189094322426 84607.82892623894 8.850660395793174 0.22084187622351864
0.5164715628766977 13.136312952023975 71909.36454095658 9.294039329495662 0.22401139140752307
0.5353933640317022 13.105766070683975 61247.28327425397 9.756395961296466 0.2272179659249166
0.5547061827342548 13.079737551107845 52279.32564282754 10.238532202329674 0.2304628461815349
0.574390956175808 13.057791020357266 44708.31287849396 10.740930029688068 0.2337428673878083
0.5944519595311926 13.039464764377747 38307.425319677364 11.264837362299714 0.2370642484700463
0.6148930044513613 13.024461341877082 32885.7748328136 11.811187579950227 0.2404285433812692
0.6357020158066707 13.012395547558503 28276.431876275186 12.380960360985974 0.24383738627998988
0.6568767366826301 13.002987279220703 24356.8873351641 12.974826112975252 0.24728851512499683
0.6784143088054856 12.995953920461805 21016.019106301395 13.594149240577808 0.25078713307922784
0.7003069757339364 12.991049806920957 18161.31256836606 14.240110498511568 0.2543356759115185
0.7225452784388109 12.987995542382752 15719.329831740279 14.91390045314974 0.2579361299217041
0.7451382798323571 12.986649743324966 13625.478154260842 15.616523147486141 0.26158813078667986
0.7680631470903924 12.98676480178617 11828.396765122076 16.349296736710183 0.26529408857958864
0.7913133879853645 12.9881504078381 10282.584853878447 17.11381371469897 0.26905844536779366
0.8148919395255311 12.990690018938716 8950.105922303792 17.91153028450269 0.2728836360094938
0.8387808854794 12.994149885388795 7802.135538559481 18.743775762463777 0.27677041427449517
0.8629663998987376 12.998428759526245 6809.380538140224 19.61196775106719 0.28071990967022314
0.8874521995121459 13.003391960135573 5951.139019345302 20.518158738333486 0.28473816899559024
0.9122135752540945 13.008873192984451 5207.5589217654515 21.46414438407424 0.28882820864185954
0.9372376522765102 13.014776972913545 4562.261568443401 22.451362874862404 0.2929895752812934
0.9625265209672409 13.020987005297654 4001.495595895194 23.481933310434354 0.2972268136515578
0.9880540982269328 13.02737086805536 3514.0918968323085 24.558235368689303 0.30154566395788535
1.0138012872463078 13.033824013668687 3089.763260994997 25.682156801150782 0.3059473461627368
1.0397690256114211 13.040289237788649 2719.3028151528642 26.855770498501048 0.3104339398963284
1.0659253760052692 13.046613800489284 2396.4724232807084 28.08212251860775 0.3150137847142512
1.0922627521749846 13.052741680961395 2113.929231065309 29.36320269643283 0.3196868706723648
1.118765822852483 13.058578034045793 1866.8650459029946 30.701900567942833 0.3244587916648707
1.1454023554697372 13.06403606339337 1650.6321306245563 32.101480909694985 0.3293366862514212
1.1721698143205892 13.069037370715051 1460.9452167169763 33.56403107549641 0.3343191957095899
1.1990304464980879 13.073488284544439 1294.40076653151 35.09402741984267 0.33941943313929074
1.2259804278935609 13.077357007668871 1148.0471673190025 36.69340990264174 0.3446336440544267
1.2529811587303752 13.080516021547846 1019.2809488418789 38.36731373988104 0.3499767734066146
1.2800273053837656 13.082946858939144 905.9074589693357 40.11807469802773 0.35544593692196036
1.307081370508415 13.084554188497437 806.071703703061 41.9509876142726 0.36105465560905325
1.3341163553937558 13.085237096428402 717.9153737151003 43.86972730022627 0.36680592297185066
1.3611265949810047 13.085028768753608 640.024761822357 45.878794328809285 0.3727064361081377
1.3880684243357921 13.083776659069253 571.2374391388539 47.98362136723902 0.37876668982253775
1.4149150304305405 13.08144917031089 510.3417338051237 50.189082160276435 0.38499291565935245
1.441647922036086 13.078001579949587 456.44840427266325 52.50018335729861 0.3913909630037651
1.468245050589465 13.07338837153081 408.6201437098928 54.923454810886156 0.39797309489973887
1.4946567756034492 13.067513757910753 366.1884215225807 57.46509306371924 0.40474838356496057
1.52086987795879 13.060354904399432 328.5328457732889 60.13173336528682 0.4117266122239802
1.546855374039536 13.05185502362483 295.0111816412665 62.93048917076476 0.41891833366610637
1.5725726343716748 13.041961059308875 265.2017528949225 65.86899542259756 0.42633493358650665
1.5979874254430766 13.030612338391357 238.66606025194696 68.95545599892976 0.4339886992703874
1.6230962219662959 13.017791933980664 215.01197255122588 72.1986957607967 0.44189289424870853
1.6478379796301488 13.003424829299977 193.88900607842675 75.60821768413723 0.4500618396298558
1.6721862372286842 12.987475993337581 175.06496809284795 79.19379082035564 0.45850902033857205
1.696123378219303 12.969908538054089 158.20064649600295 82.96597506966675 0.46724922327186735
1.7196027906527533 12.950675846991556 143.13359140021862 86.93734959856118 0.4763032851249875
1.7425869933485485 12.929725372775284 129.64320361022843 91.11931235343222 0.4856847957091884
1.7650633930287571 12.907048188018283 117.55351823671253 95.52635469928572 0.49541723703824414
1.786973169699934 12.882558741016629 106.70942397420752 100.17176675442927 0.5055165994561914
1.8083230810950608 12.856312583817147 96.98644131373885 105.0722906675085 0.5160093903506587
1.8290352630741487 12.82816559831876 88.23655380814371 110.24449024594931 0.5269181798929679
1.849105402290164 12.798164793439845 80.38591819967762 115.70625981128963 0.5382672519062163
1.8684766433163267 12.766200292497809 73.30861440137622 121.47736938454159 0.5500842547115534
1.8871514944520174 12.732359032699108 66.93514736187122 127.57926388967765 0.5623990346082177
1.905068078398657 12.696514231599268 61.19182524845256 134.03486607569567 0.5752425505617001
1.9222044838876968 12.658670284183867 56.015094260193834 140.8696957903728 0.5886504244401093
1.9385178712124196 12.618781464828075 51.34151635761361 148.11146373726768 0.6026609512625326
1.9540003942212834 12.576880659494243 47.11699334410153 155.78843810699158 0.6173090163643795
1.9627989814985678 12.541818030658286 44.470114938029496 165.91633540174294 2.7096290588186918
