M[M_sun], R[km], Lambda[1], P_c[MeV/fm^3], rho_c[fm^-3]
0.24162668629717493 15.618656898711224 2160425.4255784233 3.5677272577965504 0.1711233750220791
0.25364423701269834 15.2772654096713 1723221.838386359 3.7848233514809597 0.17388821973870083
0.26604062832848596 14.981254716231833 1383018.7992994194 4.011409360042383 0.17666675629361414
0.2788160099362279 14.723487853420886 1116461.7150574608 4.2477412593044575 0.17945766551737308
0.2919703169732958 14.498384881292715 905837.513551147 4.494444254952216 0.18226751403953306
0.30550563836030425 14.301236330550969 738656.9078943699 4.7516736733539435 0.18509200266625042
0.31942180879784365 14.128146245473028 605101.8663245827 5.020112286966237 0.1879377608689675
0.3337202821847761 13.97593346850771 497662.6391530076 5.299983446977238 0.19080139788745887
0.34840192951174875 13.84201981273463 411002.0552894963 5.592016621562095 0.1936892275747947
0.3634652561037543 13.723963159301222 340650.77371495153 5.896378022560257 0.1965962931860614
0.3789189939686834 13.619982760113096 283294.3044312129 6.213932184810155 0.19953028497799807
0.39475097588872177 13.528448414761684 236414.0816732153 6.544936897267712 0.20248738790593024
0.4109768276642629 13.447851232851866 197855.95580237175 6.890093839890446 0.20547130097404
0.42758451451342544 13.37704415424854 166072.79126338856 7.250108458869909 0.20848510395295522
0.44457921035756265 13.31492512562135 139798.9204261118 7.6252403510890305 0.2115243534353695
0.46196105054666226 13.260564601178174 117979.68719357566 8.016437287692513 0.21459519220811124
0.4797257680490503 13.21316360820796 99809.25179267624 8.424404871739295 0.2176992769723331
0.49788314880181134 13.171979583724973 84641.09912304228 8.849584919683393 0.22083408931696824
0.5164222723636923 13.136393119717562 71938.14340096542 9.29284884781723 0.22400301034228903
0.5353405818418719 13.105838585630737 61275.60732978019 9.755082400663628 0.22720897259351605
0.554647448971646 13.079802007442135 52298.590785618624 10.237095192942117 0.23045332704951846
0.5743294114659523 13.05784181933865 44729.42871511009 10.739359462241147 0.23373278385829815
0.5943870724952199 13.039519497702042 38327.70253239644 11.2631178088034 0.2370535046686838
0.6148234848032035 13.024503943719425 32900.65453603231 11.80930888003593 0.2404171177512487
0.6356291374616045 13.012444712330481 28291.466501565603 12.378911720317454 0.24382525612657635
0.6567992025806965 13.003012896732953 24370.09949323051 12.972616939370853 0.24727588839458836
0.6783311354594548 12.995975918731316 21027.37542605899 13.591748158803243 0.25077376449919536
0.7002196375151146 12.991066118469314 18172.138065859424 14.237504631679483 0.25432153895677506
0.7224478346019229 12.988037270287608 15728.339633752346 14.911076096896767 0.2579211964855455
0.7450401209085398 12.986646981205748 13633.230616490364 15.613493277665242 0.2615726441019475
0.7679630348078752 12.98674657568917 11835.779052454593 16.346020316302074 0.26527775644560886
0.791207871168339 12.988137251665572 10288.624289003252 17.110274296527408 0.2690412343757729
0.814782595466348 12.990659942963115 8956.232744761695 17.907710330818094 0.27286551060240016
0.8386636270979001 12.994128985366928 7806.9849739737465 18.73969221761849 0.2767516524988139
0.8628463415379615 12.998401493664456 6814.391501373435 19.60756751042614 0.2807001685655533
0.8873259763603081 13.0033611323662 5955.203174706392 20.513420619040645 0.284717405822192
0.9120826227307868 13.008847714350372 5211.0582935158345 21.45904575252786 0.28880637777807533
0.9371025549682684 13.01474172063251 4565.039277362611 22.445924972285425 0.2929669893298608
0.9623864233360194 13.020951811950415 4004.3365226014275 23.47608788320457 0.297203073634732
0.9879073916880297 13.027330393047112 3516.529815657534 24.551954896822537 0.30152071462463864
1.0136506390899853 13.03378383555869 3091.698223844738 25.675465598402926 0.3059215235226799
1.0396138835402378 13.04024779888741 2721.379381327052 26.848586748721537 0.3104068009832359
1.0657645117204073 13.046576829471867 2398.248874157627 28.07441258734384 0.3149852623259709
1.0920963443509974 13.052701733365277 2115.7434082618997 29.35499391271117 0.3196573240911857
1.1185950442791064 13.05854093220343 1868.5694096582995 30.69309490862045 0.32442772913101847
1.1452258558035608 13.063993534814944 1652.0564983966121 32.09210711874542 0.32930447882899977
1.1719887397910966 13.06900775473511 1462.0266529887208 33.55397917800073 0.33428531977863546
1.1988448369098643 13.073463028874146 1289.4618453567791 35.08324996211532 0.3393837950083618
1.225791229146636 13.077334007734182 1148.9864305338451 36.68193816494863 0.3445966380044156
1.2527869349104988 13.080491701738975 1020.1570881603541 38.35510115767129 0.3499383171560142
1.2798291175388592 13.082939868257824 906.6580479871476 40.10498243365661 0.355405433829839
1.3068735805730725 13.084526303966493 806.7083107047447 41.937046989346335 0.36101251098790577
1.3339107175542984 13.085232651187399 718.555364368286 43.854781983769556 0.36676149776219275
1.3609190017123343 13.085030284829156 640.6048594017631 45.86287564187648 0.3726601467289273
1.3878493928231281 13.083774450608303 571.7802921000751 47.966661302014536 0.3787184160020807
1.4147064424519675 13.081486625103379 510.7938888896042 50.17089470243889 0.38494195239819234
1.4414297628813943 13.078029366958205 456.86197505673954 52.480797384533716 0.39133773638584896
1.468024278296235 13.073433249462344 408.9916928575464 54.90278446524889 0.39791745404676393
1.494433389337675 13.067570012166573 366.51932630162145 57.44304553172284 0.404690165933368
1.5206476429651077 13.060421027195686 328.8195340817264 60.10820825505987 0.41166564264681627
1.5466288769974113 13.051934202664745 295.27844404481664 62.90537782705152 0.4188544232999158
1.5723463059747436 13.04205449351065 265.45555676919486 65.84218017267678 0.42626787875306354
1.597769208963624 13.030726462707422 238.90641422294144 68.92680932168881 0.43391828018187883
1.622856359075429 13.01790467168104 215.23172432902192 72.16807937023897 0.4418188736036187
1.6476082930896083 13.003566286859806 194.09548549946106 75.5754815175219 0.44998396106526994
1.6719570128550212 12.987633003210343 175.2287096074107 79.15894290371172 0.45842772054772785
1.6958942992117128 12.97008329833435 158.35498458399323 82.9286753207622 0.4671635085575192
1.719374568516919 12.950873951093277 143.27271257759085 86.89740595932383 0.4762128324347593
1.7423553475009692 12.929930541116937 129.77007241475192 91.07670819945052 0.48559001714860445
1.7648401649690564 12.90728636836595 117.675236647144 95.48067950012737 0.49531701545251433
1.7867659075772664 12.88285102521866 106.81368375780137 100.12298073601212 0.5054113213449688
1.8081050643431802 12.856594891388987 97.07981102549464 105.02014078711582 0.5158986499703345
1.828815199534836 12.828460613909543 88.32479326095036 110.18870049158203 0.5268015383570936
1.8488952635487572 12.79849515447186 80.46113998894121 115.64630086019088 0.5381433974034896
1.868272097092345 12.766556727778934 73.38539978726948 121.41313212430721 0.549953491190046
1.8869510572393808 12.732737792221094 67.0055616443652 127.51062581225008 0.5622616514126079
1.9048750033191275 12.696921711741831 61.25380782334173 133.96120921422767 0.5750971290469098
1.922016080048165 12.65910626809612 56.07150389474966 140.79058205716134 0.5884962808023811
1.9383295342165419 12.619219813907895 51.3899215663283 148.02641922795289 0.6024973639176374
1.9538268934212313 12.5773768842212 47.159268444171914 155.69722252205037 0.6171361537001071
1.968443451952334 12.533447856428719 43.338757247938155 163.83663361562597 0.6324602333442539
1.9821585936891253 12.48745108428001 39.877716680859194 172.4784307095698 0.6485111818013809
1.994949985784483 12.439375208762845 36.74472383049848 181.66189522330356 0.6653421400007746
2.006785523557391 12.389217427067186 33.90257964329101 191.429033716094 0.6830075397690084
2.01763305180618 12.336944887652137 31.32644321969201 201.82587936735078 0.701566613273568
2.02747003263823 12.282560894955019 28.99108121984712 212.90237208743096 0.7210820069428877
2.036280724872541 12.22609726365806 26.868383199800025 224.7140121831787 0.7416240981648399
2.044026332297904 12.167503846532691 24.94143710364599 237.32194571976936 0.7632699646715548
2.050686093323685 12.106800122850151 23.187023321739463 250.7930452548649 0.7861022255662874
2.0562594530839378 12.044055521776295 21.59276332956092 265.20044184114835 0.8102091442157429
2.0607067216354835 11.979208209369244 20.140962564972195 280.62579638782995 0.8356901555232952
2.064013278907001 11.91231315963792 18.820822140192572 297.15890784900853 0.8626524549394515
2.0661744816796297 11.843416067174507 17.617974952674146 314.9001458392512 0.8912165041739345
2.0671686210550866 11.772526781935968 16.522742053442222 333.9588879440821 0.9215080701981664
