M[M_sun], R[km], Lambda[1], P_c[MeV/fm^3], rho_c[fm^-3]
0.24162668629717493 15.618656898711224 2160425.4255784233 3.5677272577965504 0.1711233750220791
0.2531894198437407 15.287772999422218 1736735.3824768236 3.767408594806049 0.20133292760194343
0.2629316984667818 15.037193042345434 1452126.9656095132 4.028677839118131 0.2661787024041311
0.2709162836088323 14.837194288816715 1252872.6088296964 4.313218909854784 0.3296637621381931
0.2778276901848295 14.660523247124313 1098586.422710442 4.621827275114619 0.3859451933668382
0.28400886451438234 14.496080617270444 972897.1517724985 4.960179483981678 0.4380485762034861
0.2897310678750399 14.337412473132549 849546.8117243656 5.32948738337432 0.4892234204883861
0.2951922613734158 14.180550868480394 772003.3031212499 5.731181671811103 0.5382814243025904
0.3005535367520014 14.023350454671862 688172.460605191 6.159623177054307 0.582531104883185
0.30594089713946954 13.864889843561537 612209.0166581182 6.619622365461316 0.6259064122029392
0.31146798523128527 13.704737317772821 533966.9128525199 7.1117271232909065 0.668123902655006
0.317201336667698 13.54306052635369 479971.27532737603 7.636058692772882 0.7090651698535995
0.3232210261613036 13.380365183416233 422342.69568671426 8.189357769504785 0.7480967139511329
0.3295873417642669 13.21740743092078 370063.05981519335 8.773192691508246 0.7859687169783339
0.33634913936960953 13.055000357487742 322852.2323355136 9.39012545925784 0.8233076297829448
0.34354032049100647 12.894009510740629 280512.2776281834 10.040568573651383 0.8602759131162576
0.35119239355144316 12.735462359243638 242709.87433129278 10.725061361546198 0.8971101348374723
0.3593331024659721 12.580041321288611 209226.4775053362 11.444318060633012 0.9341142578938074
0.36797322332013727 12.428773498480247 179797.80024855933 12.199259390255706 0.9716643395370046
0.37712496758370817 12.28219683142247 154062.70359851755 12.991038184862594 1.0102257399247117
0.3867884937215215 12.140954797866799 131722.7502534432 13.82106671322166 1.0503860294689158
0.39694874531741364 12.005560400543885 112418.93520152922 14.691052371093447 1.0929106452102546
0.4075946827168413 11.876246912513551 95848.99881418345 15.603049499281296 1.1388353636619855
0.4187109224534871 11.753438554310684 81663.68981670652 16.5595388024035 1.1896234185824694
0.4302405256373897 11.636929937661616 69588.0103363394 17.563554266424674 1.2474443948695502
0.4421346377098449 11.527165338586233 59346.50238177889 18.618895889231453 1.315699901250755
0.4545644354022964 11.42204400745111 50557.98696398559 19.717127524698224 1.3295121772777894
0.4678139464627908 11.321329671412071 42909.07577590926 20.856094608988435 1.340564783484251
0.4818855514629478 11.226063688790274 36325.4654313904 22.038891810877914 1.3518527747595879
0.49674152549720535 11.13680812461982 30707.434615223938 23.26802670970736 1.363420753661333
0.5123656921272266 11.053641609855404 25925.308267212586 24.536117157253994 1.3751926270356862
0.5287283547271175 10.977220731405346 21886.93331494014 25.855246061182058 1.387320966835417
0.5457915972782283 10.907029153410853 18480.05719006529 27.224676207090877 1.3998010750043064
0.5635241871256466 10.843075843780888 15614.850762148055 28.64349607527556 1.412626685149851
0.5818902914689699 10.785090455087548 13208.190712496847 30.11966001036352 1.425885091139949
0.6008579917727906 10.732669687384519 11187.28205473101 31.649620285361674 1.4395389985398332
0.6203934780155989 10.685590679037348 9489.385804451376 33.24075004272522 1.4536640387525457
0.6404543629137083 10.64347186594755 8063.399417592657 34.89511750279312 1.4682784615979843
0.6610208085807864 10.605958642596288 6862.945689650413 36.611956064160516 1.4833720390928486
0.6820442649280476 10.572647208704902 5854.462153158236 38.39918679144105 1.4990195536927322
0.7034992724352955 10.543122421581664 5003.334581631848 40.25922315524682 1.5152396402920667
0.7253469734545703 10.517172845525977 4285.454828901067 42.19455304053011 1.5320509826827309
0.7475483888994803 10.494338980040535 3678.177686088667 44.20763611439647 1.5494712093870184
0.7700680215840242 10.474338791035795 3164.002156259042 46.30467717226326 1.5675530476378252
0.7928799901320139 10.456681911185157 2727.3911485344784 48.489823887230585 1.586328223114604
0.8159515054050487 10.441279775727471 2356.215358797783 50.76768365032807 1.6058318648537284
0.8392265646792064 10.427831776004288 2039.8444094977906 53.14264082549162 1.6260959211046806
0.8626808094921765 10.415991125309786 1769.8680573871388 55.61878011731675 1.647147943524397
0.8862867301375718 10.40552871605698 1538.7261143647372 58.20353465830333 1.6690449846341464
0.9100089689767563 10.396210189730631 1340.6776504478041 60.903500991112935 1.6918346904658281
0.9337924835653437 10.38778539345043 1170.683771393186 63.72267040037128 1.7155382752019799
0.9576190748843653 10.380099870447358 1024.1707270475238 66.66910091650858 1.7402145321466587
0.9814560362139503 10.372876422379255 898.0185945043223 69.74999805337897 1.7659123672330481
1.005242404157197 10.365996011980805 788.903996101084 72.97351249892192 1.792688066708461
1.0289710156464074 10.359239446559116 694.3461460911143 76.34588373845054 1.82057720652105
1.0525849259872164 10.352469735315376 612.4571130733282 79.87829497873815 1.8496612016966907
1.0760443530279307 10.345508695110142 541.2509485706729 83.57963056124987 1.8799966573538855
1.0993354227119596 10.338243236517899 479.2511080964214 87.45976834783198 1.9116470548248825
1.122397402376872 10.330516272749353 425.1253236588119 91.52961372645144 1.944682854188701
1.1452135375144905 10.322181228654449 377.83004533556544 95.80114910935683 1.9791817169232486
1.1677335255251973 10.313143109503905 336.43369444045396 100.28749778276332 2.0152288355333794
1.189938322305874 10.303278572764437 300.1129474362394 105.00199669171451 2.052907280033548
1.2117660987854024 10.292469583902792 268.22305836064953 109.95825998155705 2.092298048015031
1.2331817494756088 10.280558539995479 240.16254607447013 115.17421810244846 2.1335202161538
1.254194637359226 10.26760680113962 215.4138969894495 120.66565193712087 2.1766653769705977
1.2747074918139574 10.253375235922542 193.56943923822556 126.45090348644916 2.2218442608640983
1.2947355560909921 10.237854410304806 174.25101821627902 132.5508493649336 2.269186142067783
1.314195102638093 10.220905369905138 157.1407678255234 138.98700730695612 2.3188186286615484
1.333112983999458 10.202541432455691 141.95134116135569 145.78308524049436 2.370882607273344
1.3514020811671916 10.18260147582846 128.47029155661565 152.96335256676892 2.4255141157383497
1.3690538695073926 10.161072394499863 116.45803312127578 160.55681054866054 2.4828869640612288
1.3860429509796146 10.137914232680748 105.76474340201075 168.59289236331105 2.54316618721106
1.4023191720801451 10.113028381863383 96.2178766819377 177.10497621799746 2.606543754818022
1.4178688264779833 10.086347484201301 87.69137854529095 186.12811444257395 2.6732124803386603
1.432654210042999 10.057849538320074 80.06246647708637 195.7010943937566 2.743386120061395
1.446637178955839 10.027556033278154 73.2234191730048 205.866756377007 2.817300837546129
1.4598140807580406 9.9953690685463 67.08743137728692 216.67183103198855 2.89521093328836
1.4721472778264753 9.961264828267295 61.57842863938383 228.16594402071112 2.9773743861474813
1.4836086488810105 9.925188997428599 56.60546160543653 240.40535708829594 3.0640915308423495
1.4941864299773924 9.887196068898 52.15508594384632 253.45113905384235 3.1556807841774868
1.5038563224551207 9.847208826249897 48.131795471970385 267.3701241377323 3.252484835058983
1.5125886330993248 9.80524386082874 44.50086839194981 282.2349427689001 3.3548653487574764
1.5203525448981057 9.761259260488258 41.21666737736067 298.12761737280516 3.4632398368003985
1.5271667262766981 9.715295293191186 38.25097030543163 315.13683336662956 3.5780420611062267
1.5329989877076118 9.667333155759039 35.56411271602276 333.3609959639421 3.6997505201209364
1.5378372334403823 9.61741221755521 33.13276221789064 352.9088290290942 3.8288865068963154
1.5416586436006254 9.565542109148401 30.9281023730598 373.9005537064334 3.966017769522844
1.544475251749106 9.511706219316675 28.9183888517559 396.4687253887023 4.111755635503257
1.546263248408506 9.455981980245348 27.108680283644375 420.76144241604203 4.2667817507359125
1.5470260173661812 9.39838464224381 25.425646579327285 446.9431290950365 4.431840971713176
