M[M_sun], R[km], Lambda[1], P_c[MeV/fm^3], rho_c[fm^-3]
0.24162668629717493 15.618656898711224 2160425.4255784233 3.5677272577965504 0.1711233750220791
0.25364401054728947 15.277260065933332 1723136.4675636962 3.784820933254537 0.17388818959667507
0.2660401069171039 14.981270246503657 1382988.40153449 4.011404276437349 0.17666669486124745
0.2788151294148831 14.723505303326686 1116495.1580250196 4.247733338323771 0.1794575736459338
0.2919696734785311 14.498411200459065 905813.9230810456 4.4944332887321865 0.1822673919281279
0.3055047505103314 14.301231222370125 738628.8387953723 4.75165928952792 0.1850918472934774
0.3194216683936253 14.12813118599087 605088.2483672608 5.020094379567948 0.18793757507279862
0.3337206599686916 13.975901863251474 497659.8967380235 5.299961544539674 0.19080117736625532
0.3484006257501378 13.842029756164017 411007.37263344927 5.59199066938868 0.19368897648037772
0.3634635226409389 13.72402382850818 340647.6490663816 5.8963474375831035 0.1965960059254835
0.3789163152267953 13.620006879510683 283302.47791021806 6.213896596892364 0.19952996045903845
0.39474882137771755 13.528463791892182 236407.93115351198 6.544896343347076 0.2024870323028319
0.41097413499761215 13.447880018128638 197876.8299482943 6.89004753705596 0.2054709066396713
0.4275818072501031 13.37708086480877 166082.01624692374 7.2500559726041605 0.20848466974752974
0.44457686567571564 13.314927204043249 139800.78492154132 7.625181826447894 0.21152388754159482
0.4619580154335089 13.260572152259858 117982.3059652193 8.016371703841232 0.2145946848639993
0.4797230946570224 13.213152801819502 99813.99968914 8.42433171724482 0.21769872695280276
0.49788040549283097 13.171983623584694 84645.73422648276 8.849504464268826 0.22083350678539082
0.5164178444090117 13.136404014521231 71935.62863075842 9.292759789430805 0.22400238336569644
0.5353366800873975 13.105850610913159 61277.21514003037 9.754984135442704 0.2272082998177988
0.5546440425810245 13.07980160728613 52299.784589285286 10.236987080329762 0.23045260706169504
0.5743259078223651 13.0578397940533 44328.105262578974 10.739241971981908 0.23373202953443992
0.5943831725314083 13.039516359204221 38329.578838492336 11.262989173968275 0.2370527009559061
0.6148193696890072 13.02450269267108 32902.4086125005 11.809168340681795 0.2404162630374908
0.6356226603691821 13.012449908839589 28291.814745535325 12.378758469088993 0.24382434871468095
0.6567930872494577 13.00303782867157 24177.280108016777 12.972451680023948 0.2472749438399292
0.6783256987495504 12.995971406679747 21028.207846860456 13.591568544554834 0.25077276445518176
0.7002122204139859 12.991060658746628 18172.530079151686 14.237309699428572 0.25432048143980024
0.7224478089165225 12.987994315286445 15729.783038211343 14.910864821659695 0.2579200793937263
0.7450352330496938 12.986650034327182 13634.316357154734 15.613266630057096 0.261571485629716
0.7679551367512357 12.98676275014686 11836.614099583037 16.345775226954903 0.2652765347366837
0.7911992126711507 12.988141880183145 10289.157629222358 17.110009535338015 0.26903994693176453
0.8147742253745968 12.990658008569152 8956.496243802507 17.907424586126776 0.27286415476427156
0.8386573344675707 12.994127654888654 7807.684418883258 18.739386756834193 0.2767502490645597
0.8628372510939674 12.99840594860981 6814.756492979553 19.607238361702773 0.2806986918828148
0.8873162953898501 13.003369891657707 5955.555639542198 20.513066198128396 0.2847158526948007
0.912070960951517 13.008854323034814 5211.120354158765 21.458664366688385 0.2888047447943551
0.9370930819476135 13.01473498161476 4565.40867882773 22.445518210260396 0.292965299871984
0.9623704556489266 13.020938033921961 4004.543566573999 23.47565064027187 0.29720129786126476
0.9878940460039579 13.027341191137749 3516.5643523813396 24.551485114837853 0.3015188484038295
1.0136376663270235 13.033787685933618 3091.950362967057 25.674965095864327 0.3059195919869921
1.0396017494435033 13.040248880721037 2721.543129284985 26.8480494067055 0.31040477100185826
1.0657525922696112 13.04657023185126 2398.3194122826258 28.073835890473227 0.3149831288734795
1.0920840961081009 13.052702490693946 2105.275616630397 29.354379904945045 0.31965511404023034
1.1185821580441055 13.058536280213485 1868.6327423028276 30.6924362591161 0.32442540570221245
1.145213358158862 13.063997604535926 1652.1596868323966 32.091405977245124 0.3293020697758644
1.1719755905711424 13.06901026379281 1462.0689902205997 33.553227319962886 0.3342827859395281
1.198831614530293 13.073467304452727 1295.502417769008 35.08244383880918 0.3393811293771289
1.225777327860489 13.077329058278202 1149.109775575651 36.68108011573576 0.34459387007047804
1.2527724131941411 13.080491694950762 1020.2096837338148 38.35418770027247 0.3499354407662353
1.2798144835208352 13.0829319162554 902.8648178639943 40.10400318537092 0.35540240436278886
1.306858063846158 13.084521472548353 806.7666913308309 41.93600429255815 0.3610093587575472
1.3338950398103222 13.085232486012279 718.6051314038469 43.8536641477822 0.36675817497553614
1.3609024497239675 13.085035751254045 640.6491695325324 45.861685008986896 0.3726566845302196
1.3878337326853427 13.083774831612962 571.8261355535615 47.965392786538104 0.3787148053975491
1.4146903866938625 13.081485828370008 510.85121793545346 50.169534394288355 0.3849381406648455
1.4414136812304075 13.078032601495595 456.8963518842209 52.47934744321673 0.3913337553902386
1.4680078719461644 13.07343751525945 409.03107725771156 54.90123847040205 0.39791329250667734
1.4944166252919286 13.067573380852206 366.5384041356034 57.44139654291542 0.4046858116944035
1.5206286865499228 13.060426920685343 328.85031017931425 60.10644876523077 0.41166108261075823
1.546611943937209 13.05194201026851 295.2999458129132 62.90349971129797 0.4188496433460062
1.5723277722483853 13.042062870299278 265.4788121388474 65.84017463188103 0.4262628636514173
1.5977525945865114 13.030735093983902 238.93282453940313 68.92466682039988 0.43391301349818545
1.6228385603160607 13.01791695150036 215.24477825981685 72.16578956815842 0.44181333759417923
1.6475910938895821 13.003576253987731 194.10628623548615 75.57303319386179 0.4499781365613037
1.6719398965760768 12.987644738776305 175.24111900513049 79.15633665829016 0.45842164020697673
1.6958769614319338 12.97009891779228 158.37037279919784 82.9258857248269 0.4671570980741845
1.7193575445883091 12.950888849415094 143.28282700766746 86.89441865236644 0.4762060676542838
1.7423434095612549 12.929948422540443 129.78248405456253 91.07352193804219 0.4855829288897916
1.7648230196008163 12.907302530538388 117.68202431769627 95.47726358894887 0.49530952018065283
1.7867499031895995 12.882865748871854 106.82307039150972 100.11933220070358 0.5054034479640601
1.808089798104881 12.856613981543632 97.08760210822057 105.0162407076584 0.5158903681434318
1.8287990898648139 12.828482425555048 88.33298238473247 110.18452823078263 0.5267928152696159
1.8488793358188667 12.798519566251963 80.46810633116468 115.64181684246266 0.5381341349701787
1.8682556691528904 12.766584346481574 73.38942622616156 121.40832819109995 0.5499437121424811
1.8869352578694112 12.732766561108946 67.01131942277425 127.50547499163575 0.5622513137567341
1.904858707202289 12.696954094121448 61.257476368693574 133.95570092694933 0.5750862539775143
1.9220020685498045 12.659139790784321 56.076654092127626 140.7846657384199 0.5884847535636105
1.938315905264319 12.619255855692696 51.39363846555448 148.02005944699187 0.60248513056254
1.9538142927606512 12.577413845686182 47.163289303690426 155.69040131212677 0.6171232268244892
1.9684311623648225 12.53348733655248 43.34005707045954 163.82930963933686 0.6324465520956793
1.9821476841537045 12.487492304144288 39.881194987495505 172.47053652912538 0.6484966060603221
1.9949381931843428 12.439420145999476 36.746277466946445 181.65340222097421 0.6653266698792696
2.0067747140648136 12.389263548479159 33.903736044680564 191.4198867379488 0.6829910961366953
2.0176227723083024 12.336993906329502 31.32819499522265 201.81601757207525 0.7015491095597398
2.0274610211790813 12.28261211088078 28.992702557015743 212.89175315684722 0.7210634297591418
2.036273220889283 12.226151219610614 26.87093275350877 224.7025378266699 0.7416042644664487
2.0440190415189146 12.167560581010143 24.943172653086304 237.30956003568716 0.7632488459424264
2.050679924620045 12.106859122233555 23.18769129104882 250.7796587572464 0.7860797011895851
2.0562535308356957 12.044118291990333 21.59295738527098 265.1859276942233 0.8101849918320055
2.0607032650220076 11.979272799357286 20.142777695876987 280.61009942197643 0.8356644088458587
2.0640104991217996 11.912380953885421 18.821770579640283 297.1418777796567 0.8626248631756347
2.066173361938105 11.843486069494977 17.61956856524137 314.8816459102611 0.8911868894262774
2.0671685879858726 11.772599591541848 16.524694718648913 333.93879613547205 0.9214763367913891
