M[M_sun], R[km], Lambda[1], P_c[MeV/fm^3], rho_c[fm^-3]
0.24162668629717493 15.618656898711224 2160425.4255784233 3.5677272577965504 0.1711233750220791
0.25364112123032406 15.277351763017833 1723230.5615379966 3.7847848866654856 0.17388774029333198
0.26603721186687046 14.981255223701206 1383098.5722994837 4.011328499703334 0.17666577914413725
0.2788080937549619 14.723654833804739 1116548.073337174 4.2476152682017565 0.1794562042104463
0.29196166763813797 14.498532488742512 906004.0541803953 4.494269827388208 0.1822655717481253
0.3054937182277391 14.301377287286947 738774.8082518623 4.751444887177273 0.18508953133889738
0.3194075619784503 14.128305424785342 605215.2696499262 5.0198274573111785 0.1879348056513621
0.3337026196983267 13.976154214751187 497804.3328144907 5.299635075627519 0.1907978903660198
0.34838210147791693 13.842174039659426 411101.62332263327 5.591603839165043 0.1936852337915507
0.363441761669799 13.724137994763405 340741.5170606161 5.895891556073629 0.1965917241898717
0.378891925621784 13.620144394622052 283387.55076295015 6.2133661479719215 0.1995251234035861
0.39471995046735225 13.528600993567899 236484.26049207815 6.544291878211082 0.20248173196018165
0.41094175621533247 13.448042232953927 197937.39064619847 6.889357387493301 0.20546502903638567
0.42754644812899084 13.377195154054862 166140.84170035349 7.249273663182459 0.20847819790217276
0.44453846705419225 13.315054936784598 139859.23571354442 7.624309519806371 0.21151694341983696
0.46191521462074026 13.260698090426029 118033.63695522302 8.015394186146919 0.21458712297434468
0.47967616213638475 13.213273158004132 99857.34220939671 8.423241366992137 0.21769052904318428
0.4978287776642303 13.17209697915286 84681.83140423374 8.848305302089583 0.22082482433885053
0.5163634963797421 13.136494254142727 71972.88074954737 9.291432410843342 0.2239930385376883
0.535277543492491 13.105928502018681 61306.348308557244 9.753519541720847 0.22719827243392432
0.5545802820481023 13.079899818621291 52329.43606070689 10.235375726002342 0.2304418760704658
0.57425742967682 13.057917530706556 44753.64083156393 10.737490858549345 0.2337207868437758
0.5943098666255676 13.039582799357056 38350.75972658698 11.261071969684997 0.2370407222288499
0.6147417145202789 13.024579355291293 32920.693125169644 11.807073721232745 0.2404035242564452
0.6355379989693531 13.012493543485519 28309.167285287578 12.376474403732518 0.24381082459422082
0.6567045206020324 13.003061893389745 24385.617601136186 12.969988657443267 0.247260866212868
0.6782330844623827 12.996006666792562 21040.575011734603 13.58889159281128 0.25075785990507193
0.7001157298257609 12.991071218664924 18183.541598039774 14.234404467233643 0.25430472041335284
0.722345004506623 12.988006916974186 15739.700356533209 14.907716035714595 0.2579034305754907
0.7449268297428354 12.986660151971652 13643.77612824415 15.609888755470429 0.2615542201754617
0.7678425731462536 12.986757244579135 11843.9280664142 16.342122525266124 0.2652583269348944
0.7910808064076532 12.988131718334202 10296.294101542217 17.106063677127295 0.2690207595594655
0.8146487806087862 12.990657794566575 8962.917331074575 17.903166026870206 0.2728439482051007
0.8385257922370275 12.99411090263447 7812.8639556017115 18.73483438383423 0.27672933326608595
0.8627022361671218 12.99837180699788 6819.685522214246 19.602332990129824 0.28067668457422296
0.8871721296000545 13.003326759017316 5960.242324266982 20.50778422218731 0.2846927062572436
0.9119264467061783 13.008821792047367 5215.336333660678 21.452980564268657 0.288780408398349
0.9369405229743918 13.014697668678298 4568.897375257416 22.439456256171482 0.29294012196585195
0.9622140561137982 13.020899891429625 4007.7540309978344 23.469134471229783 0.29717483376264237
0.9877345142128375 13.027289052466703 3519.516472717805 24.54448406478192 0.3014910365555118
1.0134700155330447 13.033743601110567 3094.5094097430283 25.66750626244952 0.3058908069123541
1.039427413841772 13.040204781281544 2723.860374008515 26.840041616885564 0.31037451901387764
1.0655759355930972 13.046536284904045 2400.2612111111875 28.06524166633236 0.3149513351013274
1.091898977206686 13.052660096937833 2117.5889453997784 29.34522970276747 0.3196221789306438
1.1183916654129744 13.058496586455576 1870.3098123781747 30.68262085102703 0.32439078121415565
1.1450173417587357 13.063953272145344 1653.5549649097577 32.08095739507861 0.32926616947668425
1.171774948550715 13.068976322221856 1463.4810082375918 33.54202302219328 0.3342450263008331
1.1986250581604971 13.073433900212205 1296.6478459505352 35.07043095314957 0.33934140602095325
1.2255662930263993 13.077300335030447 1150.1057795046868 36.66829349828178 0.3445526224218973
1.2525568398831408 13.080474249495532 1021.1596343753865 38.34048732471693 0.3498920600467819
1.2795941955420924 13.082920172000298 907.5896562787062 40.08941064740247 0.3553572599253664
1.3066329702743613 13.084510512659854 807.5438193933518 41.92046634876636 0.36096238519947643
1.3336650270803796 13.085232883235294 719.292897794604 43.83700662275722 0.36670866019652437
1.3606696558246787 13.085038123014646 641.2502341447329 45.843942800655114 0.3726050925984876
1.3875963721291624 13.083793298799913 572.3808420004815 47.946490126064404 0.37866100232392935
1.4144488226365028 13.081512473935268 511.3522740580516 50.14926404663941 0.3848813409168947
1.4411773099736396 13.078088746904962 457.348533088684 52.45774158186239 0.3912744337899763
1.4677612632661423 13.073488207597508 409.43717084591947 54.87820144464606 0.39785128097646094
1.494167511294914 13.06763020558978 366.91907721820286 57.41682495509809 0.4046209291648112
1.5203780992141733 13.060500800030244 329.1933673310474 60.08023077720848 0.4115931339538385
1.546358860005031 13.052030743960826 295.61611443533474 62.87551428173073 0.4187784182028173
1.572073637400437 13.042165918274199 265.74918965982744 65.81029067662459 0.4261881351425181
1.5974963494172643 13.030856975448943 239.18350030327258 68.8927422873588 0.43383453680439976
1.6225829909941734 13.01805716212845 215.469213195033 72.131670416899 0.44173084839345594
1.6473351452388305 13.003735422654193 194.31094253615433 75.53655226907513 0.4498913493057727
1.6716840374745197 12.987824465082456 175.4299176722096 79.11750289014421 0.4583310414701794
1.695623043183485 12.970298644165863 158.53983248422 82.88432031200038 0.4670615808765673
1.719086662568705 12.951072535792473 143.44350148261128 86.84990767457103 0.47610527218939497
1.7420908827288204 12.930196794694409 129.92514038300797 91.02604686613499 0.48547731432974384
1.7645770300482078 12.907578096539195 117.80390908106399 95.42636718447174 0.4951978421046151
1.7865032496891273 12.883158939239191 106.94074851961368 100.06497014998229 0.5052861370170344
1.8078450220733524 12.856929356671618 97.19413215477657 104.95813117680316 0.5157669724328583
1.8285698960302181 12.828845634728916 88.43363834817968 110.12221311631608 0.5266622851099595
1.8486445706906531 12.798885280224646 80.55173140396043 115.57500804407145 0.5379961310466465
1.8680361814179904 12.767010356209889 73.4660125211403 121.33675348058503 0.5497980122610779
1.8867125752316707 12.733194710660227 67.08418488684127 127.4287326151909 0.5620972924195474
1.9046422812992347 12.697407596455255 61.326332850398835 133.87363328734907 0.5749242269751674
1.9217906503201478 12.659629657929015 56.13603421748765 140.69651969095904 0.588313011542909
1.9381201235992698 12.619802615118603 51.449940806925405 147.92530726383436 0.6023028700240215
1.9536158714392513 12.577952881021917 47.21571440424997 155.5887753671187 0.6169306354857984
1.9682464034981733 12.534075898398143 43.38815758320107 163.72002506578983 0.632242150992752
1.9819734497379922 12.488114991060298 39.92232656021989 172.35292726097475 0.6482794534058133
1.9947739016950883 12.440077221027884 36.78686663881398 181.526872838691 0.6650961948550115
2.0066160599604324 12.389943245372743 33.94175365106897 191.28361579357275 0.6827461202256663
2.0174825714449596 12.337723619178984 31.363752643760172 201.669098926509 0.7012883434561891
2.0273321808641755 12.283383871998957 29.022997625784637 212.73355651768264 0.7207866742035277
2.036156963962908 12.22695631727871 26.899304729431297 224.5315993782193 0.7413087932888345
2.0439162199313103 12.168408359999072 24.9695527565835 237.12504720843182 0.7629342346223189
2.0505925244200145 12.107745086051061 23.212782383860752 250.5799093163773 0.7857430801530216
2.056175426957557 12.045020165598382 21.61584409362345 264.96971191269205 0.8098251962096653
2.0606460766339536 11.980238210658069 20.162327094038975 280.37615099846084 0.835280492009091
2.0639763116207304 11.913400190153135 18.84085711938839 296.888188883288 0.8622138417072581
2.0661497433286975 11.844532222398763 17.636474710109677 314.6060649716983 0.8907457385462373
2.067162012459699 11.7736903207164 16.540570090906787 333.6395060687262 0.9210036320380858
