M[M_sun], R[km], Lambda[1], P_c[MeV/fm^3], rho_c[fm^-3]
0.24162668629717493 15.618656898711224 2160425.4255784233 3.5677272577965504 0.1711233750220791
0.25364195055614297 15.27737287980508 1723212.3440395591 3.7848018615758563 0.17388795187740078
0.2660371869323038 14.981308252702014 1382941.0418936235 4.011364184041402 0.17666621036830335
0.2788111805243106 14.723619418139934 1116535.2522411814 4.2476708689036915 0.17945684909480028
0.2919651482420272 14.498493605581961 906002.390841003 4.494346803127066 0.18226642889084263
0.3054987374683445 14.301319057256094 738740.0896615628 4.7515458512501 0.18509062194357676
0.31941407134005145 14.1282347882832 605143.4240380792 5.019953153093602 0.18793610979361886
0.33371046548546957 13.976042415595339 497713.0539676766 5.299788811885176 0.19079943823503984
0.3483903665716447 13.842067929910373 411068.12795527675 5.59178599937774 0.1936869962417191
0.3634521365720434 13.724089670882508 340685.54336251534 5.896106232171083 0.1965937404732093
0.37890352639244573 13.620083259498033 283348.59497107734 6.213615937301712 0.19952740118150786
0.3947337218016054 13.528542547119926 236441.72602463636 6.544576521068185 0.2024842278935048
0.41095680076267005 13.447948752903741 197901.406760224 6.889682378150745 0.2054677967932015
0.427563805585791 13.377119493388152 166113.55609142367 7.2496420506561705 0.20848124547733315
0.4445563692773405 13.315014535716003 139835.50864735187 7.624720285580613 0.21152021337952145
0.46193572364262747 13.260633426394197 118009.16700300715 8.015854493969522 0.2145906838274954
0.47969837502724966 13.213217753500658 99834.1431617567 8.423754805478792 0.2176943893828301
0.49785282827550714 13.172049512152757 84665.65730152313 8.848869977841787 0.22082891283256387
0.5163885209838233 13.136459767176506 71957.50408763156 9.292057460764507 0.22399743892810062
0.5353047871052277 13.105895575297879 61293.5738430883 9.754209202852213 0.22720299421908857
0.5546087235049055 13.0798581512462 52310.654328189834 10.236134492802947 0.23044692916136192
0.5742895863867435 13.057877529389502 44742.422325725645 10.738315434044214 0.2337260808738744
0.5943446383623926 13.039548820526841 38336.63118924166 11.261974752400354 0.23704636283159247
0.6147785552574465 13.024552910972437 32912.12581227345 11.808060043138 0.2404095227392709
0.6355772464839451 13.012450005600368 28303.252139905526 12.377549929392314 0.24381719286145967
0.6567472666088033 13.003044439962878 24378.59199414603 12.971148447955345 0.24726749509984056
0.6782764505243454 12.99598809932022 21035.479432136355 13.590152114751318 0.25076487815352005
0.7001617651203703 12.991073046956975 18178.735741747794 14.235772477707798 0.2543121419369409
0.7223923310570887 12.988005309030138 15735.312593242787 14.909198725918875 0.25791127011750503
0.7449783762990859 12.986653597130273 13639.53313599564 15.611479314275883 0.26156235005701584
0.7678952629028215 12.98675944033177 11840.125930338618 16.343842488328253 0.26526690051937746
0.7911369519049604 12.988121090044986 10224.373796495194 17.10792167448335 0.2690297943714373
0.8147073185768811 12.99065968274296 8959.809066142372 17.9051712606308 0.27285346289591367
0.8385864829052447 12.994116665199572 7810.015064553927 18.736977960827012 0.27673918189325125
0.8627643226605015 12.998393737695874 6817.45726646978 19.604642776681334 0.28068704712977344
0.8872373567781031 13.00332605373953 5957.6242567341815 20.510271332454472 0.2847036051600668
0.9119960542634071 13.008834021287806 5213.485399634298 21.45565687336204 0.2887918675788626
0.9370117698743315 13.014713067707339 4567.28227315733 22.44231061695334 0.2929519773555132
0.9622882340662122 13.02091534616884 4006.580575613502 23.472202696389722 0.29718729473667543
0.987809434983422 13.02730899140996 3518.123418289798 24.547780592403377 0.3015041320948167
1.0135487871439055 13.033773794888189 3093.566236885827 25.67101833397845 0.30590436067277105
1.0395080733597502 13.040224652644856 2722.764666829304 26.843812158538576 0.31038876344128297
1.0656603284684942 13.046558376703903 2399.298039304379 28.069288323127548 0.314966305444434
1.0919871597488437 13.052678976135786 2116.7420396821517 29.349538135018204 0.3196376866413556
1.11848162846364 13.05851555938886 1869.497969208796 30.687242484852614 0.3244070843269498
1.1451096157321934 13.063967836818918 1652.9150645654825 32.085877149139336 0.3292830732670606
1.1718701717207556 13.068983735932385 1462.8730754131818 33.547298590347516 0.3342628055094467
1.1987218877956451 13.073443459606356 1296.0779867072256 35.07608722776427 0.33936010978768455
1.2256656293676151 13.07731244178146 1149.6152474818934 36.67431406855152 0.34457204384962326
1.2526582294894668 13.080479479852514 1020.7092810883371 38.346941442312286 0.34991250527644074
1.2796972045538288 13.082928196193873 907.2022557753598 40.09628149127713 0.35537851602091397
1.3067387070854377 13.084517731833486 807.1952332589432 41.92778231266349 0.36098450246670116
1.3337735152400625 13.085234196262217 718.908031629738 43.844849707966 0.3667319739019098
1.3607788748772323 13.085036215501878 640.9682575907343 45.85229657711974 0.372629384245672
1.387709013572472 13.083780806467459 572.1330539228918 47.95539026532343 0.378686334993288
1.4145630405796876 13.08149937499939 511.106020049537 50.15880811289473 0.38490808444231994
1.4412846986949799 13.078053284079154 457.1072960664977 52.467914427993605 0.3913023646140165
1.467877008431851 13.073462292888419 409.2492975108152 54.889048101807106 0.3978804782268097
1.494285043818446 13.067601098117988 366.74442248159767 57.428394101382516 0.4046514780850412
1.5204955716418 13.060466740168888 329.0234852555126 60.09257506410515 0.41162512640553034
1.5464778752423225 13.051989743823066 295.4615605776489 62.88869069314891 0.4188119532174477
1.5721935967508816 13.042118535927493 265.6198269893499 65.82436092411126 0.42622331952843684
1.5976162278570656 13.030800750882179 239.05775166921634 68.90777324557861 0.4338714858148678
1.6226973014617458 13.017961700147163 215.3632437776624 72.1477346039416 0.4417696864624143
1.6474552866890728 13.003662147608244 194.2130719533468 75.55372837672442 0.44993221085882557
1.6718035122190196 12.987740305783335 175.33303531655156 79.13578671557548 0.45837369742573
1.6957416480460612 12.97020380220941 158.45417721638952 82.90389018157563 0.4671065523798545
1.719206610489348 12.950967453332213 143.3750724439747 86.87086429396086 0.47615272862146
1.7422104711702262 12.93008059417448 129.86341697908532 91.04839895968455 0.48552703951038173
1.7646911508400882 12.907444527113066 117.75149278025398 95.45033000009933 0.49525042187273877
1.7866191399065783 12.883023968447286 106.88704746344841 100.09056455039024 0.5053413686227332
1.8079600384843515 12.856781070666722 97.1463433591198 104.98548983725024 0.5158250686056637
1.8286727242668337 12.828664181153123 88.38435688658664 110.15159646284643 0.5267239066428828
1.8487552262994318 12.79871126597216 80.51446145821552 115.60646215139543 0.5380611043783998
1.8681443787850183 12.766824533471555 73.42831880435098 121.37045127440719 0.5498666086204361
1.8868178482149058 12.732991814484187 67.04960108426096 127.46486321879789 0.5621698062526955
1.9047443837175821 12.697193753946285 61.29620552202684 133.91227089257254 0.5750005096047486
1.9218906306499044 12.659399344525571 56.10781612068148 140.73801882908853 0.5883938676453099
1.9382086373228493 12.619528591446716 51.4245863174746 147.96991635447412 0.6023886778293077
1.9537118496289774 12.577714262241287 47.19454362032037 155.63662039534887 0.6170213066036494
1.9683328040800332 12.53380049071397 43.36523202940644 163.77154617586973 0.6323386208725164
1.982056068394908 12.487825850789353 39.90068185410265 172.4082966152441 0.6483816868645117
1.9948514413181486 12.439767577975887 36.76953644335369 181.58644140390678 0.665204699822517
2.0066886497399583 12.38961646183738 33.92642618277551 191.34777024200278 0.6828614514470258
2.017548834804729 12.337380627951537 31.346827948082407 201.7382657927031 0.7014111078209349
2.0273922402010025 12.283019450635978 29.008695999554277 212.80803249701086 0.7209169654736061
2.036211410947399 12.226577099536803 26.885943444911426 224.61207349548243 0.7414478947163409
2.043964465159078 12.168007702197524 24.956949032841376 237.21191136760007 0.7630823459931784
2.050633799733708 12.107327895353626 23.2014549893003 250.67397930401208 0.7859016608886972
2.056209871303642 12.044585615402575 21.605412913781375 265.0714998102115 0.8099945771848899
2.0606749398476274 11.979782263871654 20.15539587512619 280.4863471443684 0.8354614263074911
2.063995383833987 11.912929451302212 18.83284116204911 297.0076165205329 0.862407335878772
2.0661600232612773 11.844039134340857 17.62848258762647 314.7357977190131 0.8909534151582207
2.067164879158442 11.773175419631285 16.532479082513 333.7803992077526 0.9212261614967135
