M[M_sun], R[km], Lambda[1], P_c[MeV/fm^3], rho_c[fm^-3]
0.24162668629717493 15.618656898711224 2160425.4255784233 3.5677272577965504 0.1711233750220791
0.25364486170293704 15.277248571929826 1723257.04789459 3.78483692579937 0.17388838893603134
0.2660417695286122 14.981238064046964 1382947.265903782 4.011437896113125 0.17666710113518824
0.2788173601153594 14.723492867211295 1116389.4450783322 4.247785722695732 0.17945818122570698
0.2919732783404566 14.498351482468358 905785.7564538113 4.4945058125707655 0.18226819949790238
0.30550992072085914 14.301142195151948 738615.7087637148 4.751754415542852 0.1850928748359894
0.31942822553542516 14.128031763872293 605065.4688575453 5.020212808652528 0.18793880382026057
0.333724739350197 13.975938672139629 497651.1959194632 5.300106394826127 0.19080263576828982
0.3484092008832018 13.841918008963416 410947.4966970852 5.592162302707612 0.19369063707995307
0.3634734481945938 13.723914761717465 340624.21614750323 5.896549710171236 0.19659790571243668
0.3789280369258266 13.619934262420594 283254.4150545169 6.214131956779488 0.1995321066578173
0.3947621498517614 13.528379573209849 236386.2708961339 6.545164546343839 0.20248938408078904
0.4109878790380419 13.447806698076432 197834.74794232435 6.890353761133216 0.20547351457241517
0.42759705446619783 13.377007480569983 166058.17608141352 7.250403091618613 0.20848754137417733
0.4445936200557766 13.314883817550353 139776.997800432 7.625568881159563 0.21152696874597507
0.46197739058665266 13.26051446827473 117964.14128795158 8.016805445835011 0.21459804020898654
0.4797436657158035 13.213104978566895 99794.88599354282 8.424815529116053 0.21770236454171782
0.4979013563363015 13.171949699223248 84629.40133365575 8.850036562260762 0.22083735940220042
0.5164429682777956 13.136355949900667 71929.0615323129 9.293348785103674 0.22400652993195305
0.5353629771810231 13.105811098474256 61263.410706099094 9.755634022746834 0.22721274929028826
0.5546707678589513 13.079789597005503 52293.277690320145 10.237702054611466 0.23045736825543048
0.5743558984126588 13.057822516540991 44719.925406822535 10.740019009189224 0.23373701835400687
0.5944141679343379 13.039501496461252 38320.82891354703 11.263839919099272 0.23705801642687993
0.6148537101494748 13.024476700599001 32893.97079000311 11.810097820052714 0.2404219158228681
0.6356595222207495 13.012431964332414 28284.998474280823 12.379772022617354 0.24383035004033105
0.6568321227914565 13.003021731807307 24364.97480680518 12.97354465327721 0.2472811908268501
0.678365466434564 12.995968154178037 21022.646415186904 13.592756459118053 0.2507793784452084
0.7002561918765075 12.991044286559708 18167.203799617844 14.238598925379634 0.25432747555350543
0.7224927845910721 12.987999487210855 15724.902384680177 14.912262138394032 0.25792746753402324
0.74508329620295 12.98665038303685 13630.535461891088 15.61476561808734 0.2615791474622085
0.7680058910307056 12.986746158673967 11832.751506410947 16.347396187265257 0.26528461481727994
0.7912529727740747 12.988146154187728 10287.122570891603 17.111760604072824 0.2690484617860603
0.8148308004839843 12.990668509581562 8895.132422591261 17.90931443888348 0.2728731219804712
0.8387134605576806 12.994133909355522 7805.228807464565 18.741407011034717 0.2767595310873035
0.8628960285943019 12.998415903973466 6812.015998366658 19.60941528768668 0.2807084583767892
0.8873795314557162 13.003362670299232 5953.445105669453 20.51541027453973 0.28472612480108994
0.9121383273550666 13.008854848234046 5209.500093022622 21.46118678977247 0.2888155450795402
0.9371596596888431 13.01475415662633 4563.755686769741 22.448208471990593 0.29297647368760854
0.9624456277820942 13.02096357500783 4003.2124922373296 23.478542504399176 0.2972130425807423
0.9879679187479469 13.027348586370646 3515.358639683569 24.554592194609334 0.3015311913567616
1.0137112840298037 13.033821506827401 3090.6876773473973 25.678275363490975 0.3059323669472849
1.0396758376595836 13.040272546249424 2720.3907496298348 26.851603334468273 0.3104181971009919
1.0658318379512233 13.04659281749165 2397.3061567388186 28.077650116041443 0.31499723935240875
1.0921664822149397 13.052722251054783 2114.9226971856297 29.358440909145532 0.3196697311618828
1.1186680698816296 13.058552349100635 1867.7207329235464 30.696792530670805 0.324440772732401
1.1453005233113172 13.064004973736509 1651.481618508775 32.096043297200254 0.3293180031504726
1.1720631122995053 13.069019273548353 1461.4782444898021 33.558200088626776 0.3342995446826393
1.198922873424093 13.073474651410534 1294.9359019549702 35.08777552917932 0.33939875983175843
1.2258705754163546 13.077346669345758 1148.5830937978465 36.68675525449045 0.34461217718960807
1.252868483010576 13.080503368295787 1019.7714710760414 38.360229320762386 0.34995446524996876
1.2799132285242893 13.082944438571149 906.354070795623 40.11047996373 0.35542244135128
1.306958156571784 13.084523730647152 806.4778145628445 41.94290073529355 0.3610302077487428
1.3339968587850755 13.085238017703285 718.3110707306573 43.86105758327466 0.366780152089423
1.3610060130866606 13.085030471646265 640.3757083609638 45.869559944202564 0.3726795837720977
1.3879391622863346 13.08376752393859 571.5826440025945 47.97378286099797 0.3787386862578368
1.4147894794485496 13.08146135656452 510.6154649316228 50.17853161756789 0.38496335187598923
1.4415212180632075 13.07801793460471 456.6917267491347 52.4889375311641 0.39136008617864665
1.4681170726393584 13.073414497157414 408.83707423627817 54.91146389127882 0.3979408175006758
1.4945271762869923 13.067544361995061 366.3694315800832 57.45230320518583 0.4047146112918399
1.5207395676787523 13.060395873931494 328.70576643727054 60.11808632559383 0.41169124345284186
1.546726020042477 13.051898423165094 295.1647822112438 62.91592191345859 0.41888125883811383
1.5724405320511783 13.042015849715241 265.34979060004565 65.8534396794822 0.42629603453590054
1.5978546088609165 13.030675883935931 238.81203691029117 68.93883778795569 0.4339478484848113
1.6229515757640394 13.017855070963789 215.14120362395846 72.18093485430111 0.4418499540545108
1.6477048274795039 13.003506239038735 194.01348980756617 75.58922702174708 0.45001666129407636
1.672053663536327 12.987566236924392 175.15573248395393 79.17357505941926 0.4584618571995908
1.695990694242548 12.97000601793756 158.29617027651332 82.94433690647475 0.4671994988358727
1.7194702387947007 12.950789737432695 143.21577556118265 86.91417760740997 0.47625081196586655
1.7424505190437756 12.929838613164215 129.72465023560991 91.09459689058261 0.4856298129017828
1.7649337774270937 12.907184951079351 117.62513261697593 95.49985758640292 0.49535909645606147
1.786860024439101 12.882746029977717 106.77932477672915 100.14346491707661 0.5054555253190249
1.8081969616878242 12.856476414922227 97.04282599459393 105.0420372974649 0.5159451472559576
1.8289103068451529 12.82834321998401 88.28923353956525 110.2121252081356 0.5268505132082507
1.8489831901365406 12.798354429512745 80.42600549411081 115.67147600184624 0.5381954005588762
1.868357306047394 12.766407230113753 73.35267576161775 121.44010350017231 0.5500083950274007
1.8870333549781235 12.732578873643709 66.97722948757747 127.53944837134685 0.5623193470006225
1.9049556914748464 12.696752213351443 61.22838506121372 133.99213535659652 0.5751581868544279
1.9220941329328807 12.658924620413208 56.04862606661344 140.82379921188496 0.5885610004516283
1.9384060390877613 12.619025408084429 51.3677133874755 148.06212634409817 0.6025660483320827
1.9538999346442214 12.577169390119918 47.14240288501942 155.7355204827434 0.6172087321693004
1.9685130018751 12.533230535116155 43.32099571695366 163.87775453769703 0.6325370475684213
1.9822248104267965 12.487217569624915 39.86121683180094 172.52275327552098 0.6485930185732807
1.995008687961648 12.4391261422535 36.72820845928912 181.70958012588542 0.6654289987120161
2.006842870582723 12.388956191372653 33.88772288223933 191.48039066069413 0.68309986476425
2.017686244632471 12.336669537307126 31.31435129988154 201.88124999806473 0.701664890681223
2.0275188445566936 12.28227621435946 28.978067990937223 212.96199403053757 0.7211863119652852
2.0363246327224513 12.225793239596168 26.857693770576972 224.77843738458193 0.7417354586592119
2.0440643961194533 12.167187803544598 24.931435302025697 237.39148808583053 0.7633885407939597
2.05071952479757 12.106466123380008 23.1782214408361 250.86820729059528 0.7862286946439173
2.0562877092618503 12.043705722968863 21.584732123679842 265.281915659491 0.8103446892712249
2.0607282741760358 11.978844025313746 20.133006040141872 280.7139320673436 0.8358347185510974
2.064028344566104 11.911935121493604 18.813558130110476 297.2545291907517 0.862807378646614
2.0661847362525045 11.843020420261793 17.611933782494482 315.0040208171824 0.8913827875829666
2.0671716336851027 11.77211557515147 16.51745776305938 334.0717017747151 0.9216862506321459
