M[M_sun], R[km], Lambda[1], P_c[MeV/fm^3], rho_c[fm^-3]
0.24162668629717493 15.618656898711224 2160425.4255784233 3.5677272577965504 0.1711233750220791
0.2536450660545724 15.277268962714148 1723225.3313711146 3.7848407066773033 0.17388843606285082
0.2660419258851273 14.981241469003276 1382990.623279212 4.011445844339186 0.17666719718480947
0.278818660051387 14.723436529649367 1116341.8543647332 4.24779810723875 0.17945832486774285
0.29197404077230993 14.498331392505387 905819.2628795812 4.494522958480858 0.18226839042159063
0.3055108913047219 14.30115735004775 738602.1033937695 4.751776905084258 0.18509311776595852
0.3194289891110373 14.12806464139708 605033.1862322838 5.020240807562312 0.18793909431975617
0.33372814528010125 13.975862206368364 497610.9286567587 5.30014064033351 0.19080298056372558
0.34841126960636243 13.84194096623101 410951.5025082748 5.592202880390507 0.19369102968019763
0.36347542621599116 13.723901747701587 340606.5111597094 5.896597531775188 0.19659835486306113
0.37892968604305677 13.619934609576712 279334.323403 6.214187601120933 0.19953261406721112
0.39476464221940416 13.528395222832579 236365.7408072405 6.545227955724722 0.2024899400953975
0.41099147051211105 13.447809039515777 197831.59444921184 6.890426159812823 0.2054741311499516
0.42760091979018905 13.376985047620124 166043.51375676433 7.250485159104854 0.20848822029745892
0.4445980170588838 13.314864365890147 139769.0540552259 7.625660390695534 0.21152769722072184
0.46198008345116465 13.260517928281258 117950.65293138911 8.016907993755613 0.21459883350005882
0.4797491244518129 13.213089648742962 99786.62649799623 8.42492991522673 0.2177032245653613
0.4979074532763224 13.171932096179997 84623.3412127317 8.85016236485908 0.2208382702667636
0.5164491533373253 13.13634123789506 71923.70615211126 9.293488040317072 0.22400751029733693
0.5353691460301436 13.105796978060548 61259.67728409816 9.755787674944116 0.2272138012745637
0.5546779185199909 13.079761312495505 52289.24588200804 10.237869461496528 0.23045847292936456
0.5743626785314615 13.057805875363176 44717.98410525049 10.740202724378424 0.2337381978624294
0.5944221417591412 13.03949211946929 38318.6985114968 11.264041061703779 0.2370592731695128
0.6148615017783323 13.024476086120522 32614.307985244275 11.810317578560984 0.24042325232125736
0.6356683935694406 13.01241028690686 28283.534329542636 12.380011659674635 0.24383176894912897
0.6568410334770215 13.00299707411624 24362.663937877216 12.973803068416812 0.24728266782181993
0.6783751689953162 12.995970391248608 21021.07795952517 13.593037322399171 0.2507809422167099
0.7002663393240025 12.991055177941115 18166.196575360485 14.2389037430485 0.25432912920423567
0.7225021942938744 12.988011947892984 15723.590183585278 14.912592513488756 0.2579292143516849
0.7450935952796549 12.986652173747112 13629.574455337855 15.615120032778295 0.26158095899501616
0.768017139028192 12.986763116554568 11832.54171804356 16.347779441775145 0.2652865252448882
0.7912652359866259 12.988147267050271 10286.501089363557 17.112174622272896 0.2690504750163689
0.8148426111836795 12.99067238816483 8952.815980542604 17.909761272211774 0.27287524217266385
0.8387269799691807 12.994136664492029 7804.808436880087 18.741884677456305 0.27676172571735946
0.8629103454436104 12.998420427966831 6811.436364689049 19.609929999001746 0.2807107675618485
0.8873942777607369 13.003365547500552 5952.953845550607 20.515964508562398 0.28472855354051263
0.9121533914792253 13.008863958003527 5209.177704705267 21.461783194013663 0.2888180987097901
0.9371761116858658 13.014763364589092 4563.298965073959 22.448844561800897 0.2929791156425459
0.9624631601238354 13.02096522729026 4002.9253157655776 23.479226263588878 0.29721581952997633
0.9879844556046794 13.027356867596707 3514.9999463284316 24.555326842259525 0.30153410976312217
1.0137301391268683 13.03382142562149 3090.423915915012 25.679058055552343 0.30593538750668764
1.039695724656019 13.040270877922502 2720.157353642953 26.852443641187325 0.3104213716284628
1.0658509898351956 13.046596730301419 2397.1250258994796 28.0785519717208 0.3150005757087236
1.0921865346864625 13.052727304578172 2114.722226098124 29.359401117034672 0.31967318732071304
1.1186865630956577 13.058555731876195 1867.547586861186 30.69782255677884 0.32444440621624115
1.145320163231105 13.064013782420686 1651.3250439038513 32.097139779269106 0.32932177055486206
1.1720866852561627 13.069022498355015 1461.329651885725 33.559375890685494 0.33430350725680746
1.1989452997236876 13.073476723667532 1294.8184119076639 35.089036201991284 0.33940292853497844
1.2258918319348766 13.077344398264765 1148.4748908245235 36.688097139125084 0.3446165059017201
1.2528905630433227 13.080511619234183 1019.6296199624201 38.361657863981605 0.34995896359561657
1.2799356142624208 13.082940602317448 906.2479313644379 40.11201140568242 0.3554271791210591
1.3069894516632765 13.084549685563463 806.3750763802029 41.944531412217245 0.3610351375321296
1.3340200913139693 13.08523937943754 718.1670445626422 43.86280578153907 0.3667853486387664
1.3610312055531943 13.085030874103376 640.2973341587535 45.871422000113306 0.37268499837774494
1.3879700967486712 13.08378501196642 571.4871071262421 47.97576672957153 0.37874433298820387
1.4148149600677118 13.08145671478558 510.5816428040767 50.18065905727438 0.3849693131964955
1.4415467106276467 13.078014067128745 456.6398629176648 52.49120516411947 0.39136631224913343
1.468143052226883 13.073408773127555 408.7996725673193 54.913881760456 0.39794732596965643
1.494552379252075 13.06753909636234 366.33603351063283 57.45488216715706 0.40472142117232707
1.5207659073294946 13.060384713414257 328.674135900414 60.12083812338541 0.41169837523442226
1.5467501420948755 13.051891463690602 295.135014226285 62.918859256676065 0.4188887346101315
1.5724673855232636 13.04200364892711 265.3158345349296 65.85657633251496 0.42630387812293785
1.5978811578578906 13.030661992080113 238.78400848470855 68.94218866717193 0.4339560855958077
1.6229789506982253 13.017840828095599 215.1127132638789 72.18451613524915 0.44185861244699903
1.6477320554388846 13.003489500949435 193.97967908981894 75.59305625751473 0.45002577095522117
1.6720792880827746 12.987548197867026 175.13670671898612 79.17765131120879 0.45847136704838043
1.696017152918981 12.96998553157386 158.27163720307135 82.9486999542337 0.4672095251069155
1.7194958212898421 12.950767338926727 143.19499025294647 86.918849916462 0.4762613924470496
1.74247924464596 12.929818447896517 129.70518194997547 91.09958040553482 0.4856408993881856
1.7649601828786845 12.9071579994638 117.60661375457443 95.50520032757518 0.49537081962316953
1.786886670370175 12.882714320371965 106.76070769991028 100.14917153692748 0.5054678399570883
1.8082225916869938 12.85644195848769 97.03331429146918 105.04813739475787 0.5159581008253455
1.8289355011447548 12.828307070508407 88.28139476101246 110.2186510683683 0.5268641570460678
1.8490085695333747 12.798314909226097 80.41841721817062 115.6784895405283 0.5382098881096071
1.8683812233311925 12.7663657852667 73.34069498116025 121.4476174803484 0.5500236907374727
1.8870565314121177 12.73253518299828 66.96898441408368 127.54747641437584 0.5623354144931347
1.9049780757797734 12.696704071014851 61.2208747541054 134.0007511639579 0.5751751971333436
1.9221177317483722 12.65887141922228 56.0427535666504 140.83305331854254 0.5885790309705562
1.938427053280561 12.618968944638299 51.362119388935064 148.07207418311782 0.6025851834953728
1.9539204935010785 12.577109529246451 47.13805216687247 155.74619016226984 0.6172289522800529
1.968532953983763 12.533168671414925 43.31637848363605 163.8892107326285 0.632558447835761
1.9769061697680117 12.493593295705738 40.79001645253091 173.8705152505975 1.6705475839416142
