M[M_sun], R[km], Lambda[1], P_c[MeV/fm^3], rho_c[fm^-3]
0.24162668629717493 15.618656898711224 2160425.4255784233 3.5677272577965504 0.1711233750220791
0.2536443573734891 15.277264022450485 1723238.9848862072 3.784826874346385 0.17388826364951887
0.2660409129554732 14.981229549571422 1353274.0354244397 4.011416765832089 0.17666684578821215
0.27881618268546055 14.72347742528099 1116378.3341583454 4.2477527985920345 0.17945779935571965
0.29197134887949794 14.498380030247597 905825.0375904839 4.494460230562324 0.18226769193165934
0.3055072254379637 14.301175593613529 738598.3921206768 4.751694627761197 0.18509222901384084
0.31942376602568145 14.128111599898777 605078.9058426524 5.0201383745519115 0.18793803153773775
0.3337238220599446 13.975865408806 497657.0096808426 5.300015354588781 0.1908017191441628
0.3484038234110245 13.842003833460256 410992.0990490626 5.592054428891334 0.19368959337110553
0.3634671268612076 13.723963820888853 340635.4900664123 5.896422579039336 0.19659671166994205
0.3789208836730965 13.619981099066289 283297.25729026314 6.213984029671791 0.1995307577407109
0.3947521612080275 13.528447784743676 236389.21394815343 6.54499597670994 0.20248790595282615
0.4109791181447582 13.447870879203794 197857.83584133367 6.890161294486392 0.20547187544568532
0.4275865453085184 13.377056282886556 166074.45768181045 7.2501849216471195 0.20848573650991534
0.44458362297353937 13.314900881314 139797.4745947316 7.625325610736609 0.21152503215698598
0.461965200846046 13.260551004579224 117977.12237124484 8.016532831404147 0.2145959313159645
0.4797306178898145 13.213137250549151 99806.06308255506 8.42451144459969 0.21770007825125715
0.49788830257438915 13.17196743645198 84637.7127826583 8.849702128761942 0.22083493796077652
0.5164272878831268 13.13638332570779 71934.36387554831 9.292978590002319 0.22400392373536052
0.5353450109312731 13.105846100856851 61272.22266001472 9.755225555699543 0.22720995270866828
0.5546538154765709 13.07981120282966 52303.33894018903 10.23725269403272 0.23045437594534052
0.5743365507570914 13.057831347032595 44726.65965918346 10.739530625054627 0.2337338827765803
0.594393330821036 13.039519872358342 38321.3673800819 11.263305207494723 0.2370546755390984
0.6148314761127749 13.024499028494548 32897.733212307874 11.80951362174173 0.24041836292242394
0.6356372523243649 13.012425345268293 28290.209350503155 12.379134981249017 0.24382657807111877
0.6568079082637023 13.003021760605982 24369.128540707705 12.972857694273698 0.24727726445088682
0.678340377963849 12.99597247161954 21026.00961698279 13.59200982661074 0.2507752213954425
0.700229448336841 12.991048087554406 18170.59323136713 14.237788615508492 0.2543230795829073
0.7224631969015932 12.988004008026875 15728.155205364015 14.911383890020899 0.25792282390381627
0.7450522581043223 12.986647378079217 13633.034373378963 15.613823466048569 0.2615743318059405
0.767973518952118 12.986761865302393 11834.884366931814 16.34637737160534 0.26527953627674306
0.7912198739057664 12.988144861964535 10219.215980050214 17.11066001086349 0.26904310997397546
0.8147951987058092 12.99067274310911 8955.541701874909 17.908126615120015 0.272867485841647
0.8386775359857028 12.99413449458126 7806.590288994817 18.740137225453704 0.2767536970795635
0.862858481484021 12.998414731952906 6813.469108670777 19.608047028275795 0.28070231985972866
0.8873402532885611 13.003364552618365 5954.69598875597 20.513936954976895 0.2847196684863238
0.9120955926717238 13.008856767563323 5210.578474811386 21.45960137268104 0.2888087567826709
0.9371174881108396 13.014737323452557 4564.621826346963 22.446517562071033 0.29296945061046076
0.9624018220633245 13.020949392780384 4004.0952327337445 23.476724879601786 0.29720566066637116
0.9879232423557183 13.027334492036058 3516.202560674139 24.552639298327374 0.30152343342691673
1.01366628051601 13.033795499314923 3091.730394210679 25.6761947556928 0.30592433748108927
1.039630336073157 13.040248039627897 2721.114589511148 26.849369576384415 0.31040975836518286
1.0657820567770038 13.046577035709666 2397.9091502752613 28.07525275002783 0.31498837045306977
1.0921142069557295 13.052705118319226 2115.51968995649 29.355888432610495 0.3196605438135853
1.1186104747839067 13.058555740587792 1868.3206602243392 30.694054465998903 0.32443111403184877
1.1452445843609202 13.064000618631427 1651.9068914422833 32.093128581673064 0.3293079884750091
1.172008849424271 13.069010436019365 1461.9011367289272 33.555074528800176 0.334289011223765
1.1988665030729544 13.073463502012302 1295.2723961854936 35.084424370957784 0.3393876784600209
1.225811692313348 13.077339133693188 1148.9377389970487 36.68318822363331 0.3446006705002274
1.252808171152292 13.080499635140669 1020.0239763088049 38.35643193954586 0.34994250766055973
1.279851639246233 13.082933663163065 906.5960140748869 40.10640906535154 0.3554098473516963
1.3068947720567832 13.084526811867972 806.6513278167574 41.938566058240184 0.3610171033633098
1.3339295779978844 13.085241209011095 718.4748194187408 43.85641052217326 0.36676633862054664
1.3609405690774516 13.085034738004651 640.5280780351559 45.86461023728449 0.37266519069674675
1.3878729091304098 13.083770357784388 571.7201904244257 47.96850936383324 0.37872367618258407
1.4147295704016802 13.081480436639016 510.7380822545817 50.172876496530314 0.3849475056036347
1.4414536479304059 13.07802679537396 456.81846324348317 52.482909764682134 0.3913435361902961
1.4680478258896432 13.073427848881165 408.9476728767628 54.90503678541608 0.39792351688758304
1.4944576396996438 13.06756179900726 366.4782306221736 57.445447903581794 0.40469650951866615
1.5206701253646207 13.06041294902307 328.7946303367294 60.11077161583843 0.4116722860598026
1.5466534789476187 13.05192642508384 295.2464200556734 62.90811401414406 0.4188613871136029
1.5723695955528143 13.042045273186805 265.42899423390617 65.8451020057816 0.42627518515642626
1.5977948727295956 13.030715222575857 238.88853168768642 68.92993069331257 0.43392595311870125
1.6228812120907121 13.01789192375763 215.20345184059502 72.17141534552213 0.44182693892542724
1.647633257766249 13.003550687069087 194.07453394916794 75.57904844444904 0.44999244669989946
1.6719824168731763 12.987619171182837 175.19747783335234 79.16273990830538 0.4584365789160043
1.6959192705763106 12.970063654995375 158.34457968569862 82.9327394512574 0.4671728479175605
1.7193994699918544 12.950850752228934 143.25642548611515 86.90175813818945 0.4762226879785772
1.7423826648190917 12.929913758061444 129.7594552784953 91.08135023819555 0.4856003439761391
1.764864710217486 12.907259412279089 117.66275009848415 95.48565612032489 0.495327935268453
1.7867910752864988 12.882824166415233 106.81094043833016 100.12829627104406 0.5054227920389597
1.8081291615855253 12.856562994295933 97.0690452825748 105.0258228025108 0.5159107157419357
1.82883851391362 12.828426002148712 88.31791560245746 110.19477905476536 0.526814247015765
1.8489178002769302 12.79845869630427 80.45268740606129 115.65283363130354 0.5381568918543224
1.868293967495902 12.766517720276687 73.37682238878229 121.4201309898988 0.5499677383155923
1.8869730279542163 12.732696039735313 66.99896709132176 127.51810951679862 0.5622766389727214
1.904895395827279 12.696878567749284 61.24927600964068 133.96923427629153 0.5751129730111835
1.9220360059500452 12.659059336028543 56.0654507575354 140.7992015956163 0.5885130749411362
1.938350685513141 12.619170382816428 51.3849505181039 148.03568486442472 0.6025151868303852
1.9538456258847683 12.577324213753132 47.15737487803469 155.70716043330762 0.6171549870367385
1.9684607565932883 12.533392557023546 43.33165795965421 163.8473040292141 0.6324801657655138
1.9821757727890001 12.487389601753932 39.87355973147941 172.4899318813474 0.6485324174575561
1.994964783172671 12.439312740327034 36.740293891565216 181.6742688484919 0.6653646787306252
2.0068008563519015 12.389149182538809 33.89730161992971 191.442360153177 0.683031496864779
2.0176460020027442 12.33687349023919 31.32303053019678 201.84024726147948 0.7015921148683706
2.027482509887902 12.282486812269607 28.989387765951534 212.91784309532963 0.7211090725456054
2.036291678406797 12.226019404010273 26.86610424129419 224.7307295143521 0.7416529944697563
2.0440354461828805 12.167421524881352 24.938578824557162 237.33999082233996 0.7633007332290891
2.0506940590142593 12.106713267131346 23.184728576801763 250.812548510064 0.7861350421161831
2.0562663415699416 12.043965338572898 21.590736660777722 265.2215880503028 0.8102443327363448
2.0607126335969452 11.979113885922732 20.13948925689526 280.6486659322953 0.8357276668990582
2.0640177756158797 11.91221604980927 18.8192956949161 297.18371969624343 0.8626926545777864
2.066177184866813 11.843313222857574 17.61654137095462 314.9270992456499 0.8912596512762518
2.0671686470442454 11.772417512790504 16.521256617422033 333.9881606947396 0.921554304169539
