M[M_sun], R[km], Lambda[1], P_c[MeV/fm^3], rho_c[fm^-3]
0.24162668629717493 15.618656898711224 2160425.4255784233 3.5677272577965504 0.1711233750220791
0.25364129101023636 15.277384987960993 1723194.3940816429 3.7847877045566363 0.17388777541698577
0.26604085683745793 14.981151341578467 1383007.812244181 4.011334423405519 0.17666585072858224
0.27880887447031294 14.723642412416336 1116596.0610741787 4.247624498053646 0.17945631126281913
0.29196293434376763 14.498479879198166 905976.6094605644 4.494282605516354 0.18226571403554784
0.3054950997601852 14.301342059926101 738754.935581705 4.7514616473748585 0.18508971238101862
0.31940876987874356 14.128272689146753 605239.4154318235 5.019848322962135 0.18793502214054417
0.33370468193799324 13.976111077753739 497781.82227810216 5.299660595968056 0.1907981473135031
0.3483831670094509 13.842167413749635 411092.5512609055 5.5916340778350255 0.19368552635900116
0.3634431588887762 13.724124136613925 340734.3859983153 5.89592719230781 0.19659205889292455
0.3788940288264189 13.62013063031844 283378.49021599145 6.213407612903685 0.19952550151383677
0.39472274649483224 13.52859624908174 236484.55024202875 6.544339128711491 0.20248214628323793
0.4109442701298187 13.448030661938907 197932.1644223773 6.889411335571598 0.20546548848085888
0.42754913311157994 13.377200649302955 166142.24814356843 7.249334814940014 0.20847870379499114
0.44454161479177573 13.315056756049875 139859.23286226057 7.6243777061545455 0.2115174862270121
0.461918651974101 13.260682969976452 118026.36995524775 8.015470596206812 0.21458771406793284
0.47967949558449474 13.213270298656285 99847.86004760778 8.423326596427621 0.21769116984939055
0.4978327188688127 13.172114073659325 84679.64651443211 8.848399036587894 0.22082550301666798
0.5163671358455151 13.136495824999821 71968.78857629494 9.291536167040507 0.22399376898778478
0.5352819592971209 13.105923395801813 61304.753677622255 9.753634022905576 0.22719905623271341
0.55458399968524 13.079886661089569 52323.50514671239 10.235501678189019 0.23044271486289494
0.5742619141961991 13.057911324054379 44350.78579902184 10.737627734446797 0.2337216656294363
0.5943160013288658 13.039580549669935 38346.5651773625 11.261221827303446 0.23704165854196182
0.6147475034776295 13.024549795447527 32919.62872929998 11.807237445594406 0.2404045199737322
0.6355457001552105 13.01246268026726 28310.0244871868 12.376652935062674 0.24381188169147422
0.6567116127295509 13.003073531630527 24190.554814812454 12.97018117591528 0.2472619665695081
0.678240011645014 12.996000645149776 21040.076685161857 13.589100831652003 0.25075902489087865
0.7001226775766011 12.991076728149675 18182.784805610885 14.23463154800416 0.25430595233761555
0.72235320375565 12.988011606350346 15739.722991964796 14.907962152024135 0.2579047318851935
0.7449352959793802 12.986644128740158 13642.503078020673 15.61015277673776 0.26155556967704807
0.7678512066184932 12.98674946218949 11842.96626977981 16.34240802607332 0.2652597500848122
0.7910904076141643 12.988120566228037 10295.535294882986 17.10637208989466 0.26902225926631584
0.8146605329113717 12.990650028581511 8962.52438475101 17.90349887896713 0.2728455275645006
0.8385373895343972 12.994113717163874 7812.422148973797 18.735190199107443 0.2767309680531626
0.8627127449969326 12.998382044002776 6819.49347293411 19.602716393896493 0.2806784046651239
0.8871816071851581 13.003333292740228 5959.792215207084 20.508197059164818 0.28469451537289037
0.9119379804688611 13.008809129537475 5214.885239599405 21.453424805471215 0.2887823105105319
0.9369522939135154 13.014700964039472 4568.5949843561175 22.439930051347538 0.29294208984127523
0.9622263669711776 13.020905131904964 4007.463178065354 23.469643764576492 0.2971769021542492
0.9877445570145689 13.0272965908025 3519.1915539642637 24.545031252692933 0.30149321027331993
1.0134821082273953 13.033755923705494 3094.3501853090565 25.668089227229093 0.30589305668571115
1.039440717586782 13.040202156348998 2723.671227492062 26.840667483365817 0.3103768834247405
1.06558979092842 13.046543653203655 2400.197990607687 28.065913363160814 0.314953819999972
1.0919128349617362 13.052669373881699 2117.438804455455 29.34594484983656 0.31962475302099
1.118406918320852 13.05849798056084 1870.1518410569042 30.68338798388489 0.32439348732502077
1.1450325774169998 13.063959252356257 1653.3483833812159 32.0817740105376 0.3292689752869679
1.1717903935058487 13.068971722192623 1456.5658941148813 33.54289869603636 0.33424797741197
1.1986408327069422 13.073439351904756 1296.520943668864 35.071369816848964 0.3393445105886806
1.2255836515159533 13.0773059233873 1150.0558024339239 36.669292828018705 0.3445558461049357
1.252573918480722 13.08047048220284 1021.1061734504582 38.34155861446947 0.3498954536578679
1.2796111460231943 13.082922989394765 907.5053433310987 40.090551105283375 0.35536078812104754
1.306650342370458 13.08451243961144 807.5088640104576 41.921680687375336 0.36096605632906287
1.3336837588002222 13.085228665833062 719.207640847346 43.83830845203222 0.36671252990638614
1.36068765522702 13.08503758508228 641.2295339866403 45.84532939363683 0.37260912462252405
1.3876149420900905 13.083791945015282 572.3406443933706 47.94796740321195 0.3786652071315667
1.4144675293636326 13.081508303005062 511.30472739640516 50.150848200721775 0.38488577989121087
1.4411952676558473 13.078086894703914 457.30918183600113 52.45943009888531 0.3912790698250886
1.4677806392378159 13.073480168319355 409.40764533754896 54.88000179841754 0.3978561272050272
1.4941875418972235 13.067625022802563 366.9010071902501 57.41874522467899 0.40462599973448027
1.520396753364781 13.060495767060736 329.15363460180805 60.082279701088396 0.41159844411057717
1.5463784291574518 13.05202346753032 295.5866793520181 62.87770131740939 0.41878398438249653
1.5720935627393882 13.04215736435533 265.72201518176865 65.81262606619826 0.42619397507163864
1.5975164494658682 13.03084739590963 239.1575083102461 68.89523712978927 0.4338406696109535
1.6226031625421318 13.01804823045272 215.45486993073456 72.1343367477191 0.44173729472902107
1.6473540285525112 13.003724323222569 194.29367155283796 75.53940314838769 0.4498981314800962
1.6717044047562934 12.98781120702652 175.41420952000973 79.12053762057823 0.4583381214615624
1.6956428063879554 12.970283672201143 158.52605059202838 82.88756848927655 0.4670690451784877
1.7191078988733939 12.951055555809818 143.42808089979079 86.85338601212493 0.4761131489125799
1.7421105564110604 12.930176344203817 129.91508217528022 91.02975681207378 0.4854855675938757
1.7645969286348004 12.907556651918801 117.79716306245204 95.43034446167853 0.49520656913888966
1.7865230625612936 12.883137027370793 106.9309526040527 100.06921822108033 0.5052953041701667
1.8078638252867958 12.85690419841238 97.1845807121281 104.96267206080671 0.515776615009558
1.8285886627546688 12.82882118368505 88.42729788653844 110.12709003333633 0.5266725127776085
1.8486631088346328 12.798858718872653 80.54597526438195 115.58022864089914 0.538006914998203
1.868054041139069 12.766980039363604 73.45843804415026 121.34234645583842 0.5498093975090971
1.8867300325886887 12.733161095974891 67.07658435847131 127.4347293554676 0.5621093278294339
1.9046598943936415 12.697371623211552 61.321523749182106 133.8800461058805 0.574936887870111
1.9218083908094459 12.65958978620791 56.13204134869793 140.70340742429767 0.5883264314667253
1.9381365105096922 12.619760843135376 51.446992267398926 147.9327111386552 0.6023171117456052
1.9536313972462278 12.577909717915507 47.211874004064164 155.5967162919026 0.6169456843331617
1.9682602139978884 12.534030576539985 43.38353220431597 163.72857608388117 0.6322581622100153
1.9819878258104526 12.488066902299702 39.921318584317696 172.36211694395814 0.648296421150663
1.99478737497287 12.440024826583448 36.7824348914348 181.53675943060662 0.6651142034192712
2.0066301972327105 12.389884995636288 33.94198610658735 191.29426346351377 0.6827652616696188
2.017493403044795 12.337667534423534 31.35986187907789 201.68057845836114 0.7013087184928641
2.0273424581505846 12.283323640606309 29.021100469243997 212.74591714916176 0.7208082983887872
2.0361661164499636 12.226893346765666 26.89645515507664 224.54495545163442 0.7413318795796956
2.0439235752809957 12.168342865820279 24.96710479894782 237.1394637606654 0.7629588161682043
2.0505985893376653 12.107675786280181 23.21034678307069 250.59552172386026 0.7857693991430265
2.056181392691626 12.044947778183213 21.61437565323793 264.98660515450723 0.8098533075455224
2.0606503208731115 11.980165744080216 20.16117948246176 280.394453467479 0.8353105658260338
2.0639783470101944 11.913321619250764 18.83954529442628 296.9080095248645 0.8622459546980967
2.0661514420815617 11.844450314450167 17.63546583964016 314.62759577832753 0.8907802051328669
2.067161792152319 11.773601447372497 16.538888361586576 333.6628889691294 0.9210405634614599
