M[M_sun], R[km], Lambda[1], P_c[MeV/fm^3], rho_c[fm^-3]
0.24162668629717493 15.618656898711224 2160425.4255784233 3.5677272577965504 0.1711233750220791
0.2536444834650748 15.277273209660773 1723185.64223326 3.784828725172122 0.1738882867191688
0.2660402239610588 14.981280009373972 1382905.6249454606 4.011420656653454 0.17666689280649214
0.2788170089499125 14.72349428849515 1116379.881715371 4.24775886105829 0.17945786967119226
0.2919712721265774 14.498379574522328 905858.3535139719 4.494468623774496 0.18226778539202484
0.3055073183836356 14.301204198231275 738672.0976169426 4.751705636727625 0.1850923479316892
0.3194239113125576 14.128127404954638 605062.4188891517 5.020152080385369 0.18793817374104982
0.3337235988030617 13.975922965867893 497674.61053173227 5.300032118149229 0.19080188792540073
0.3484048184586535 13.841995437297973 410986.8698399522 5.592074292051638 0.19368978555264563
0.3634681801270296 13.723943311279045 340663.8845269717 5.896445988079737 0.1965969315326034
0.3789226043161202 13.61999206755581 283293.4238960949 6.2140112679004185 0.19953100612055905
0.3947551276158965 13.528425056116864 236392.6492657168 6.545027015864842 0.2024881781242828
0.4109806811864916 13.447846345035003 197852.79827091226 6.890196733810788 0.20547217726184341
0.42758998641651574 13.377014299926806 166064.5368456595 7.250225093729229 0.2084860688432554
0.4445852728140484 13.314902315229384 139793.55742717788 7.625370404561855 0.21152538874463728
0.461967495946115 13.260548145220364 117975.7929707738 8.016583028328157 0.21459631962975417
0.47973353585305334 13.213122361506446 99804.59125424056 8.42456743608594 0.21770049922895907
0.4978913910000928 13.171959837513544 84636.57959513688 8.849763708375031 0.22083538382348625
0.5164300230093628 13.136380013207226 71932.29437340441 9.293046754350152 0.22400440361661883
0.5353488207062882 13.10583109605294 61269.95101533448 9.755300766996319 0.22721046764501768
0.5546571655325636 13.079789894583625 52300.0133409494 10.237335442580646 0.23045492701838938
0.574340472510338 13.057824405607475 44725.5522051415 10.739620551318405 0.23373446013104943
0.5943979572483119 13.03952039796378 38321.57915737129 11.263403663917678 0.23705529069661072
0.6148356619764247 13.024490811540446 32897.896157901756 11.80962119001139 0.2404190171169772
0.6356409442098284 13.01242393893099 28288.52785974679 12.379252279345181 0.24382727260185003
0.6568123722234059 13.00300787878777 24367.92312149709 12.972984183541424 0.24727798741167178
0.6783448908762285 12.995972751718723 21025.30382729239 13.592147303342095 0.25077598682905045
0.7002340363132663 12.991047276984965 18170.17300014081 14.237937816901136 0.25432388900774416
0.7224693787326296 12.987992624901688 15727.957067359443 14.91154560064189 0.2579236789288267
0.7450583528334233 12.986638410609391 13632.108384622696 15.613996942976446 0.261575218504924
0.7679792502541423 12.986753973716059 11834.576679572336 16.3465649642411 0.2652804713789825
0.7912250404015637 12.988142706157173 10287.53222562509 17.110862660787078 0.2690440953919308
0.8147996097201184 12.990675402624845 8955.006667390173 17.90834532634069 0.27286852361075054
0.8386846187751632 12.994135785298683 7806.603129500537 18.74037102786624 0.27675477128067644
0.8628653702388973 12.998415584444723 6813.153797998898 19.608298962099212 0.280703450127908
0.8873466940059288 13.00337080856309 5954.572113825311 20.514208232881998 0.28472085726816626
0.9121040203349823 13.008858091258007 5210.373652761976 21.459893290384542 0.2888100066897417
0.9371250919666441 13.014748953654324 4564.528940369911 22.446828903495373 0.29297074374548654
0.962409878664213 13.02095171502299 4003.9431725160935 23.47705955215709 0.2972070198710592
0.9879314198473207 13.027336899754706 3515.9652031519063 24.552998877442544 0.3015248618640411
1.013674115187947 13.033794373937324 3091.578140709382 25.676577849413295 0.30592581591353635
1.0396401027161672 13.040256173271835 2721.0086094067456 26.849780868477488 0.31041131215264933
1.0657912911379266 13.046585221960989 2397.8038435041235 28.075694165929104 0.3149900034424309
1.092125154559403 13.052710089344952 2115.335258693578 29.35635840777323 0.31966223543560485
1.1186232790797777 13.058542453828979 1868.290110062998 30.694558611906277 0.32443289243920487
1.1452544847932153 13.063999710646007 1651.811274512272 32.09366525279625 0.32930983242412837
1.1720195377905915 13.06901010575036 1461.827989382372 33.555650020749205 0.33429095069096887
1.198876076465877 13.073474774311302 1295.143136444021 35.08504140019714 0.3393897188084384
1.2258224783167624 13.077337972847873 1148.8584296100598 36.683844999472385 0.34460278915741754
1.2528187518500433 13.080495444305056 1019.9923205802772 38.35713112757186 0.34994470933662486
1.2798632779326395 13.082938839943003 906.54091228942 40.10715861326208 0.35541216620252375
1.3069065110718752 13.084521017936725 806.6034791275109 41.939364173013544 0.3610195161851835
1.3339443831812559 13.085239499179231 718.4691172028124 43.857266152796825 0.36676888199725943
1.3609540238767228 13.085030091285436 640.5167651494922 45.86552159079211 0.37266784078894893
1.3878843317008096 13.083772623769754 571.6894971514128 47.969480333225505 0.3787264398749102
1.4147422207611147 13.081478996758243 510.7142163486998 50.17391772978745 0.3849504232539675
1.4414660712211733 13.078025969234403 456.7864246593117 52.48401960874174 0.3913465834062611
1.46806118340826 13.073428297035665 408.9277746131632 54.906220154994045 0.39792670230566257
1.4944704787502459 13.067559282378854 366.4640982937747 57.446710111514435 0.40469984244302376
1.5206824130070635 13.060409771084881 328.77448888318133 60.11211840872971 0.41167577651711895
1.5466665966243467 13.05192217722881 295.2330685521744 62.90955161156997 0.41886504591334583
1.5723826413134192 13.042040832458694 265.4105473152756 65.84663714344705 0.4262790239571375
1.597807103423337 13.030707983013972 238.87854728095397 68.9315706706073 0.4339299845009554
1.6228943181866613 13.017884151310628 215.18791552977456 72.17316807797162 0.4418311764721863
1.647646529533621 13.003542001895632 194.05863281935018 75.5809225216246 0.44999690508508766
1.6719950931366923 12.987608048299425 175.1884010819641 79.16473487096313 0.458441233141061
1.6959318225687479 12.97005367916009 158.33552739272528 82.93487476537537 0.4671777548631845
1.719412258552425 12.950841171074222 143.24921621526371 86.90404479691985 0.4762278661355441
1.7423917775136644 12.92988683374801 129.76403297793408 91.08378919330092 0.48560576975350145
1.7648767090194877 12.907246233402615 117.65446800883555 95.48827086964772 0.4953336726123124
1.786803349587914 12.882807147809826 106.80633699665046 100.13108909139845 0.5054288188241214
1.808141552856389 12.856547766326969 97.06487128037514 105.02880817751662 0.5159170551920181
1.828850904505224 12.828409570500689 88.31258928236691 110.19797278262965 0.5268209242511728
1.848930402985645 12.798438882016082 80.44821289961348 115.65626600833444 0.538163981960846
1.868305571943429 12.76649814175392 73.37354338390769 121.423808261563 0.5499752238931309
1.8869838658908664 12.732674391681709 66.99407134058302 127.52203834877344 0.5622845022188586
1.9049075157367172 12.696854828884893 61.2448723628708 133.97345073138234 0.5751212976027305
1.9220471368749765 12.659035178347503 56.062939260025715 140.80373040103066 0.5885218987763011
1.9383606893160388 12.61914307313343 51.381855430093026 148.0405531438249 0.6025245512080234
1.9538565864677653 12.577295807196021 47.15587354886636 155.7123819406789 0.6171648823158874
1.968471405679164 12.533360184460074 43.33158343902712 163.85291041009424 0.6324906385315903
1.982184305919132 12.487357421213098 39.87172854196967 172.49597476294124 0.6485435749777041
1.9949728914856464 12.439276462161452 36.73803153816268 181.68077013880406 0.6653765209210744
2.006808532483208 12.3891139618262 33.898499445943415 191.4493620754927 0.6830440843045015
2.0176540089149615 12.336836122289078 31.322160995352576 201.847796393311 0.7016055138327111
2.0274895423606307 12.282447346406853 28.985563255029685 212.9259718332543 0.7211232932862777
2.0362978166043395 12.225978042805538 26.864907216712265 224.7395131065881 0.7416681771180439
2.044040811425138 12.167378143247388 24.936828524177205 237.34947206481345 0.7633168996184682
2.0506989393011588 12.106667688264661 23.183106995814825 250.82279591054058 0.7861522845880479
2.056270694300836 12.043916844532985 21.589781123029262 265.23269871178746 0.8102628215225711
2.0607147088895696 11.979064334582462 20.137857426189825 280.66068209009603 0.8357473761945877
2.0640198859120233 11.912165752078463 18.818344935618377 297.1967564062458 0.8627137763839225
2.066178232664715 11.843259599807627 17.615343882907627 314.94126120666454 0.8912823217903929
2.0671692222062843 11.772362531444772 16.520846818718283 334.00354132333104 0.9215785966438033
