M[M_sun], R[km], Lambda[1], P_c[MeV/fm^3], rho_c[fm^-3]
0.24162668629717493 15.618656898711224 2160425.4255784233 3.5677272577965504 0.1711233750220791
0.2536408833034587 15.277391521963688 1723239.1688828196 3.784779813280508 0.17388767705603572
0.26603494613708184 14.981372989191676 1383030.0873176241 4.011317834572721 0.17666565026232792
0.27880716196204314 14.723674411843454 1116511.789280022 4.247598650648692 0.17945601147187287
0.2919599113684885 14.498553674157916 906042.377022359 4.494246821501517 0.1822653155722376
0.3054938281408899 14.301333025846874 738783.3422316101 4.7514147119702415 0.1850892053890712
0.31940513228070594 14.128326855745627 605230.0188613972 5.019789890659943 0.18793441588285614
0.3336998703389871 13.976155407827859 497814.89410079754 5.299589128706698 0.19079742775676686
0.34837750791161765 13.842231157466605 411115.767642979 5.591549397415361 0.19368470705264612
0.36343856432724087 13.724148303586325 340740.80283540575 5.895827396627013 0.1965911215907715
0.3788881595406725 13.620170460461726 283398.54637191934 6.2132914946426245 0.19952444265511138
0.39471654515571786 13.528648457192656 233366.85240797518 6.544206808666405 0.20248098601519815
0.4109372306452182 13.44806337372775 197947.56095562104 6.8892602597928745 0.2054642018561308
0.42754034793232093 13.377252967452861 166159.0550844415 7.249163566177174 0.20847728709786348
0.44453230433671626 13.315077135478539 139860.9002279124 7.6241867579383165 0.21151596615643165
0.461909178051893 13.260715213028458 118040.00113639479 8.015256618584786 0.214586058778033
0.47966890116489674 13.21330564872144 99859.37994319915 8.423087921349678 0.21768937534646604
0.49782166867629724 13.17211076993872 83809.32717274707 8.84813654426392 0.22082360246008806
0.5163548228377994 13.136517139603704 71976.67203926828 9.291245610374538 0.22399172345074225
0.5352689098453697 13.10594520852937 61312.88245843124 9.753313432468826 0.227196861300885
0.5545711471233603 13.079913733410276 52334.10505460978 10.235148964909595 0.23044036593004788
0.574248261730117 13.057915139527603 44758.01939101042 10.737244430951652 0.2337192047022649
0.594299154106796 13.039593926874556 38354.67034367784 11.260802170488262 0.23703903651858632
0.6147308781739356 13.024578845244429 32924.77414560163 11.806778957128671 0.2404017315988894
0.635526919962009 13.012475791904405 28313.57178831605 12.376152982033236 0.24380892143248892
0.6566936550325038 13.003071627225358 24387.270051918345 12.969642054132647 0.24725888517047587
0.6782207054716458 12.996002839374313 21043.273523321586 13.588514887215485 0.25075576250924003
0.7001018671234294 12.991078807476107 18185.611495980054 14.23399564021404 0.2543025025068187
0.7223306862757966 12.98801517472946 15741.490345517679 14.907272938428068 0.25790108775311005
0.7449122392115235 12.986663032955281 13644.634794298167 15.609413423347865 0.2615517905929514
0.767826447964045 12.986750659596188 11845.149066483345 16.341608522971207 0.26525576476237045
0.7910642629503564 12.988124246739822 10297.047048864286 17.10550842589808 0.2690180595607617
0.814633182605253 12.990647352925532 8964.074148330747 17.902566777013774 0.2728411048073804
0.838507594027779 12.994117267783224 7813.500335423468 18.734193792902033 0.2767263900822031
0.86268382317572 12.998374176523095 6820.451087156059 19.60164273119957 0.2806735878177264
0.8871519306458044 13.003322881885882 5960.757730986072 20.507040974264783 0.2846894492296046
0.9119063483655204 13.008802405947035 5215.722931930409 21.452180778996762 0.2887769839494222
0.9369198574073073 13.01469332193684 4569.472034859291 22.438603264567444 0.2929365791243485
0.9621931540899885 13.020887398745714 4008.26021957627 23.468217572078153 0.2971711099627503
0.987708809755585 13.02729009674111 3519.896884324655 24.543498943946627 0.301487123138092
1.013446169234459 13.03373913582352 3078.214648371752 25.66645673240359 0.3058867565737788
1.0394027081904635 13.040192288678881 2724.188329266882 26.838914851010315 0.3103702622952972
1.065551440075452 13.046528406701404 2400.5976671311223 28.064032392320435 0.3149468614709246
1.0918736241512097 13.052653470126685 2117.9883225886288 29.343942205480946 0.31961754473093973
1.1183647945557131 13.058491463586291 1870.5173200159372 30.68123976426433 0.32438590934110806
1.1449903838174782 13.063949829082244 1653.782154959178 32.07948722526081 0.3292611181179962
1.1717465079768914 13.068968449865903 1463.701539605317 33.540446530490996 0.3342397133612533
1.1985960693197846 13.073426999803035 1296.8317159241565 35.068740701927226 0.3393358168183891
1.2255366389701763 13.077298010320384 1150.2332660901832 36.66649439112426 0.344546818780703
1.2525258641710437 13.08046571294873 1021.2888067453545 38.338558669681 0.34988595049043125
1.2795636917747533 13.082909755169263 907.7529759284736 40.08735747059148 0.35535090808223524
1.3066013978209299 13.08451380830159 807.7051149395746 41.918280166384854 0.360955776038932
1.3336329736073582 13.085232646583815 719.3620685329159 43.83466293376859 0.36670169354078347
1.3606373212719742 13.085037866283868 641.3609031645018 45.841446514242485 0.3725978337366946
1.3875636730118537 13.083791155198918 572.4734853897558 47.943830584058716 0.37865343240886234
1.4144156535647339 13.081515059188892 511.42316363688684 50.14641209849129 0.38487334944389245
1.4411428881167387 13.078093374949178 457.41140443981396 52.454701753336025 0.3912660875597682
1.4677270312681845 13.073493331812546 409.50275602990337 54.8749602812722 0.39784255634756904
1.4941328232316913 13.067638679773248 366.96745648407574 57.4133679128506 0.404611800668615
1.5203423315563755 13.06051117332719 329.23388728161746 60.076542124980975 0.4115835741445774
1.54632329290807 13.052045193236772 295.65312225124615 62.87157699408475 0.41876839749273
1.5720377360019673 13.042180133347028 265.791623390793 65.80608631572541 0.42617762162052364
1.5974596258368066 13.030874929442511 239.2119821138457 68.88825087288654 0.4338234960365442
1.6225472195308746 13.01807778537662 215.50371334921343 72.12687028256813 0.4417192432031244
1.6472991984618675 13.003756825518773 194.3385919110308 75.5314199042313 0.4498791395314376
1.6716474101805316 12.98785134965778 175.454505722761 79.11203955003384 0.4583182955602066
1.6955870453419013 12.97032553451789 158.56322982616774 82.878472718991 0.4670481431248627
1.7190511143385971 12.951101603954408 143.46700608154143 86.84364574152636 0.47609109199197847
1.7420558977073717 12.930230735433993 129.95121162701162 91.01936798601817 0.4854624562798913
1.764542372380679 12.907615529706277 117.823124586801 95.41920705013497 0.49518213117109994
1.786469413016433 12.883198761160063 106.95930051768761 100.05732252790814 0.505269633780381
1.8078105982591774 12.856973522285985 97.20857295815533 104.9499564290731 0.5157496133389186
1.828535764071783 12.828894237546377 88.4436692654823 110.11343344012674 0.5266438727380127
1.8486114383261725 12.798939387904365 80.5666542732211 115.56560967376427 0.53797671725672
1.8680037010229846 12.767065114516775 73.4746244376987 121.3266847542641 0.5497775160240651
1.886681044743841 12.733254239013364 67.09462890910734 127.41793703234839 0.562075625770922
1.9046111962637586 12.697471874530505 61.336151120400636 133.86208868187447 0.5749014343393924
1.9217467090941096 12.659646187910285 56.149645108450166 140.68412014926716 0.5882888525203859
1.9380919385399589 12.619875571629425 51.45693106019288 147.91197857247082 0.60227723162304
1.9535882344549491 12.578031536053425 47.222465945613166 155.57447988753242 0.6169035441209847
1.968219934182503 12.534156776799632 43.39409540437086 163.70463131147702 0.6322133272033311
1.9819500992175907 12.488206421373011 39.92966758987629 172.33638379906583 0.6482489077122232
1.9947482933720404 12.440167861264156 36.79140502841321 181.5090748231633 0.6650637755229444
2.0065949514100403 12.390040681362724 33.947483715733824 191.2644477130102 0.6827116615373524
2.017462926806044 12.337826658457077 31.36836481690259 201.648433362582 0.7012516641187084
2.027320660110422 12.283516131120345 29.02746579990811 213.87651829204793 0.7227621240864822
2.0347512846397646 12.229219981495753 27.076316743254054 224.9524259453243 1.0382944243100312
2.037791314885105 12.174046526106386 25.605522140073717 238.9499657729211 1.3680142875951566
