M[M_sun], R[km], Lambda[1], P_c[MeV/fm^3], rho_c[fm^-3]
0.24162668629717493 15.618656898711224 2160425.4255784233 3.5677272577965504 0.1711233750220791
0.2536417584226582 15.277375034039599 1723212.9202843052 3.7847986065220254 0.17388791130472506
0.26603772119535674 14.981280976328572 1383120.5465081495 4.0113573413107195 0.17666612767794135
0.2788112964546591 14.723560925955008 1116476.984521692 4.247660207039274 0.17945672543324012
0.2919643635184205 14.498523338118481 905993.4742875111 4.494332042398351 0.18226626452670258
0.30549835366771794 14.301304560659219 738698.4934337297 4.751526490514247 0.18509041281067903
0.31941289714387927 14.12823904151849 605191.8202831062 5.019929049782176 0.1879358597124598
0.3337087198599524 13.976117274447404 497770.1128582876 5.299759331486617 0.19079914141634316
0.3483887180641278 13.842129617272763 411070.419084431 5.591751068335863 0.19368665827427972
0.36344975854959216 13.724079068817222 340704.74246764835 5.896065065786974 0.19659335382981802
0.37890161107201226 13.62008977862198 283352.7042338048 6.213568037477351 0.19952696439278483
0.39472982265079415 13.528587088792449 236457.74979019802 6.54452193758468 0.2024837492700931
0.4109539924694481 13.44798653168686 197912.57663173316 6.8896200573789015 0.20546726604335658
0.4275601337822573 13.3771596172279 166119.12397131036 7.249571407875833 0.2084806610677156
0.44455352839345275 13.315000186059866 139845.35209851043 7.624641516086002 0.21151958632369575
0.4619322416751951 13.260641627544794 118014.66126267407 8.015766223968756 0.21459000098767625
0.4796936476532797 13.213232597036889 99848.63180882146 8.4236563467654 0.21769364911094813
0.49784822711880383 13.172073780921039 84668.06208859695 8.848761693485084 0.220828128807555
0.5163833985689034 13.136469999127598 71961.17958351599 9.291937598567078 0.22399659509075817
0.5352999485186174 13.105895211491436 61295.42561964809 9.754076950249777 0.2272020887477669
0.5546034959638423 13.07987891179139 52316.8682974436 10.235988987862259 0.2304459601552186
0.5742842256842151 13.05790069483394 44745.25659520695 10.738157309002196 0.23372506566212362
0.5943380603289197 13.03955590900312 38342.00936071306 11.261801629547476 0.2370452811568748
0.6147712731586498 13.024531446793022 32914.1418815435 11.80787089991856 0.24040837243291824
0.6355705485210892 13.012464993811852 28304.895577750965 12.37734367946327 0.24381597164032545
0.6567395974545222 13.003052077856822 24186.308398068257 12.970926038437705 0.24726622389824104
0.6782669976512341 12.995997136790177 21036.526238814502 13.589910387755504 0.25076353228236986
0.7001529667655645 12.991067470503255 18179.58797967374 14.235510137355341 0.25431071872772526
0.722384105743274 12.988006266010593 15735.373875725329 14.908914393077914 0.2579097667425948
0.7449683347656311 12.986648414985693 13640.18930108106 15.611174295125743 0.2615607910014475
0.7678814184390809 12.986777154425491 11840.528257727272 16.343512652804804 0.2652652563720187
0.791126703210987 12.988132237809303 10293.557196763035 17.107565367501014 0.2690280617712379
0.814697655841969 12.990656508993748 8960.410695631319 17.904786717385992 0.27285163826571324
0.8385768554282861 12.994119642482874 7810.664929085428 18.73656688680547 0.2767372932208177
0.8627541431310166 12.998387073795401 6817.855491219715 19.604199827671554 0.2806850598969199
0.8872246430249331 13.00334223093813 5958.76438927048 20.509794376940196 0.2847015150670501
0.9119825516047946 13.008827157073075 5213.772246941828 21.4551436338821 0.28878967003603695
0.9369978784935897 13.014717863232706 4567.548549699149 22.441763231281985 0.29294970382706853
0.9622734050039515 13.020913058200305 4006.68835915494 23.47161429627512 0.2971849050689793
0.9877948266749986 13.027306032694474 3518.324423978416 24.547148408824707 0.30150162072957026
1.0135348849594568 13.033761260074513 3093.818584136824 25.67034481377276 0.3059017614285846
1.0394940986575991 13.04021418832136 2722.9824799707553 26.84308906912522 0.3103860317396857
1.0656443153797597 13.046557480363568 2399.5212951472868 28.068512280413437 0.31496343452498526
1.0919697438310074 13.052674927869266 2116.8606534379214 29.34871188910214 0.31963471266337534
1.1184644380136535 13.058512151252959 1869.6501594034194 30.68635617290879 0.32440395780413644
1.1450910688235771 13.0639649715111 1652.9055576562807 32.08493366352472 0.3292798315434184
1.1718516354691575 13.068988773673631 1462.9576662703676 33.54628686609694 0.3342593958944091
1.1987036692150417 13.073444501204552 1296.1994211899075 35.075002490766394 0.3393565228565054
1.2256464751914036 13.077310004422685 1149.7034745924204 36.67315946616942 0.34456831928106724
1.2526393207316107 13.080483701749904 1020.7721737247356 38.345703692799894 0.34990858435732713
1.2796778317807949 13.082922514944439 907.2886245192805 40.094963820700904 0.3553744395883564
1.3067194150745676 13.084515416928944 807.274310305093 41.92637927537349 0.36098026087241425
1.3337536620180548 13.085231635540001 718.9896401327467 43.8433455768093 0.36672750284623273
1.3607583236081204 13.085036340003487 641.0328294078729 45.85069450321287 0.3726247256323761
1.387688093443959 13.083787187638189 572.1723812549718 47.953683407137845 0.378681476723906
1.414541452724429 13.081502633063575 511.15838181450914 50.15697775824086 0.38490295558687054
1.4412626849354544 13.078055183765619 457.1554570445734 52.46596348196873 0.39129700804718853
1.4678564958360047 13.073465997938913 409.28269301986194 54.886967927690215 0.39787487877219824
1.494263126230577 13.067606528760445 366.77872938598745 57.42617536295761 0.40464561939318205
1.5204732161384553 13.060474520557477 329.05199725324167 60.090207663042975 0.4116189908575841
1.5464551339645243 13.051996529870312 295.4865367628102 62.88616370014097 0.41880552181933767
1.5721701361286513 13.042127136157376 265.63819258840334 65.82166250306119 0.42621657179441963
1.5975934940032164 13.030811700796797 239.0820168883627 68.9048905700702 0.43386439963939055
1.6226748264387223 13.017973427008679 215.3870175422241 72.14465376510776 0.4417622379789796
1.6474319938007098 13.003678084971359 194.23322898580201 75.55043428153232 0.44992437428442805
1.671781759151959 12.987756565501751 175.34773347809423 79.13228017029428 0.45836551669570647
1.6957190796548185 12.970221361377186 158.47018355642965 82.90013698303318 0.46709792754053503
1.7191821855780016 12.950983909701767 143.39174885364153 86.86684512664274 0.4761436271849524
1.742187115763495 12.930103306857882 129.87236801295967 91.04411215045599 0.48551750293776597
1.7646686902672888 12.90746721090918 117.75999934394873 95.44573426366054 0.49524033780081395
1.786598270974055 12.883049603281993 106.8970934399047 100.08565588544478 0.5053307759367373
1.8079380891512427 12.856808829527228 97.15530415497375 104.98024279624336 0.5158139265030873
1.8286514743993008 12.828694347648716 88.39136745256536 110.14596109447969 0.5267120883825976
1.8487333113626923 12.798745169995016 80.52329419373375 115.60042961855717 0.538048643247223
1.8681236322075028 12.766860656093662 73.43633925217686 121.36398840889343 0.549853452594626
1.8867986383599158 12.733029758445182 67.05620810625 127.45793374543135 0.5621558988549401
1.9047248929178222 12.697234635276095 61.30011480234925 133.90486058136844 0.5749858793495505
1.9218720900711905 12.659442955072842 56.11354860422728 140.73005967745198 0.5883783601912095
1.9381902977812022 12.61957399737256 51.42808267498177 147.96136071305565 0.6023722206273696
1.953694967833344 12.577763743518034 47.19970013882049 155.62744409954598 0.6170039166045428
1.968316758765382 12.533852475729539 43.370188023647934 163.7616648003502 0.6323201186487327
1.9820407154820057 12.48788189568401 39.90726911076237 172.39767713783488 0.6483620791605852
1.9948358887822557 12.439827582593663 36.771064772769286 181.57501650465244 0.66518388921011
2.0066744332508484 12.389682674448707 33.927685116965144 191.3354657517355 0.6828393315173023
2.0175356102381925 12.337447202507592 31.348400188035598 201.7249998956185 0.7013875621621826
2.0273806721876477 12.283090833387213 29.0115049718629 212.79374828331214 0.7208919760963375
2.0362007915438514 12.226649495297126 26.888724068449704 224.596638797366 0.7414212154731986
2.0439551751842733 12.16808362170606 24.95904963984545 237.19525101190953 0.7630539385562797
2.050625857690553 12.107407650347374 23.20343877954887 250.65593680572343 0.7858712453148889
2.056203180921921 12.044668995849374 21.60815708773253 265.05197694276194 0.8099620899991992
2.0606690159822474 11.979869589937012 20.15610688548126 280.46523356026177 0.8354267951154126
2.0639915399766675 11.913017301206624 18.833935877110395 296.9847101561314 0.8623702234640538
2.066158325797285 11.844133624751915 17.629707024981887 314.71091470095394 0.8909135823404211
2.067164212446563 11.773273421554427 16.53370507463223 333.75337547305696 0.9211834796664025
