M[M_sun], R[km], Lambda[1], P_c[MeV/fm^3], rho_c[fm^-3]
0.24162668629717493 15.618656898711224 2160425.4255784233 3.5677272577965504 0.1711233750220791
0.253643827490288 15.277275854008902 1723197.8659932879 3.784816775275906 0.17388813776947729
0.26603952011159815 14.981264398862425 1383012.4400291217 4.011395535529193 0.17666658923253092
0.27881443029387426 14.7235346400456 1116440.1133321642 4.247719718760135 0.17945741567951984
0.29196792835336943 14.498443244455006 905883.3050432911 4.494414433117706 0.1822671819664845
0.3055047389046843 14.30121784436462 738690.5643725962 4.751634557618629 0.18509158014165553
0.3194203086668657 14.12814312760239 605118.9834891927 5.0200635891748355 0.18793725561058608
0.3337172623026325 13.975977002574902 497695.1472888871 5.299923885027223 0.19080079819745335
0.3483983892062616 13.842048700621351 411018.79470084375 5.5919460467228514 0.19368854474381056
0.3634594883235537 13.724036721720296 340648.3957985508 5.896294849244402 0.19659551200467754
0.37891406270511024 13.62001566400798 279400.6114315533 6.213835406479076 0.19952940247614734
0.3947455218861134 13.528466510973656 236404.2323128724 6.5448266143829725 0.20248642087401594
0.41096999271593276 13.4478888327438 197870.36091342842 6.889967923417857 0.20547022861652064
0.42757759426044645 13.37707627961245 166094.82518425275 7.249965727199407 0.20848392317042413
0.44457230856479835 13.314942109419444 139808.19865912353 7.625081198698462 0.21152308648000592
0.4619532481918819 13.26060334363549 117987.3019746399 8.016258938548004 0.21459381253328935
0.47971877006322067 13.213175533249338 99818.4962207038 8.424205935072758 0.2176977812467091
0.4978741964880703 13.171998167674808 84649.73429688383 8.849366128990482 0.22083250517886951
0.5164119221233492 13.136413710585398 71945.75044558347 9.292606662337505 0.22400130534141324
0.5353303802289017 13.105850316277177 61281.807648183116 9.754815178283858 0.2272071430476551
0.5546356135131899 13.07983050674161 52303.155832642675 10.236801191765856 0.2304513691163748
0.5743174383977075 13.057864572598001 44733.821174903744 10.739039959695333 0.23373073255298452
0.594373820478228 13.039534770634711 38331.002276148865 11.262767999970206 0.23705131905676374
0.6148102102543418 13.024510572348115 32904.23999200816 11.80892669837105 0.24041479344907019
0.6356141274956765 13.012438894854679 28294.081168833978 12.378494970348404 0.24382278851908554
0.6567825818385832 13.003030591866505 24372.409631508883 12.972167534882082 0.24727331978281752
0.6783139994242372 12.995981521447534 21029.502170958356 13.591259718066507 0.25077104499203434
0.7002022512954712 12.991064630198112 18174.158113498095 14.236974535702599 0.25431866316022916
0.7224358022330937 12.988003676455202 15731.137257357623 14.910501558410127 0.2579181586839927
0.7450214922594026 12.986645129691713 13634.519361273808 15.612876936130975 0.2615694937728598
0.7679420234439845 12.986754179194445 11837.589408997123 16.345353825058883 0.2652744341539233
0.791185679744527 12.988142106194383 10289.799591268102 17.10955431052516 0.2690377333276517
0.8147584161680029 12.99067206977559 8957.192195770522 17.906933283231066 0.27286182356716127
0.8386426325083639 12.994125450355329 7808.282909874212 18.738861554982606 0.2767478360337984
0.8628215794048043 12.998401962379445 6815.446846583431 19.606672431972786 0.2806961529130296
0.8872948397780612 13.003341934920197 5955.871168391721 20.512456816693028 0.28471318229086484
0.912055367963225 13.00883949791719 5211.698540724943 21.458008623198637 0.28880193709062674
0.9370748855873793 13.014729144379238 4565.73227116442 22.44481883630708 0.29296239507074506
0.9623522411591202 13.020934298433168 4005.0977763550177 23.474898859194084 0.29719824465493194
0.9878777562700218 13.027331533402016 3516.905147391947 24.550677388052083 0.30151563968875555
1.013618781762625 13.033783208244518 3075.640620980846 25.67410454997376 0.3059162709746686
1.0395820963130329 13.040240121661181 2721.7814712329787 26.84712552135821 0.31040128072937984
1.0657319748838938 13.046568643483566 2398.6255468707604 28.072844340978463 0.3149794607007396
1.0920633894486094 13.052696749806255 2115.8813188423683 29.35332420552882 0.31965131417053466
1.1185600094308468 13.058534875628332 1868.834098124345 30.69130380581561 0.32442141089981386
1.145189965743003 13.063994343352212 1652.3188879799227 32.090200466148445 0.3292979277584743
1.1719529634397876 13.069002878189918 1462.318624071533 33.55193461060989 0.3342784293757246
1.1988081898162946 13.073458630829013 1295.6107782552444 35.08105782990435 0.3393765462214285
1.2257533788441337 13.077329157551048 1149.2431466795433 36.6796048293606 0.34458911102500117
1.2527481438946482 13.080494123796482 1020.3346133524026 38.352613228625636 0.3499304722521022
1.2797888871041039 13.082937116515541 906.8151906539402 40.10231951906742 0.3553971956617224
1.30683206676169 13.084521251460387 806.861444440959 41.93421153811211 0.3610039389892557
1.333868390695231 13.085233814086783 718.6903258170017 43.851742205569884 0.3667524619693258
1.3608754426866514 13.085035345253692 640.6557845406292 45.85963790609866 0.37265073183309855
1.3878063390072122 13.083776608619484 571.8871743249001 47.963211779257655 0.37870859754678443
1.4146627209537368 13.081486098365012 510.88520275876215 50.16719556735282 0.3849315870140281
1.4413859129581967 13.078037477701582 456.94592490118214 52.47685450942787 0.39132691072807596
1.467979691989427 13.07344135768338 409.07997977630185 54.89858039141145 0.3979061374360797
1.494388349442196 13.067578820473885 366.5929384517763 57.43856138625831 0.4046783253187947
1.5205994859988385 13.060436152327721 328.88716848386525 60.10342362427338 0.41165324241093537
1.5465823993143126 13.051952516806756 295.3340624030493 62.900270617197506 0.41884142504479616
1.5722984837003227 13.042073382345718 265.50855250273463 65.83672645666901 0.42625424106482174
1.5977226866802012 13.030750000709594 238.9642073742495 68.92098317018916 0.4339039583715458
1.6228093699534445 13.017931226478886 215.26982010460608 72.16185266535638 0.44180381942173125
1.6475617488965655 13.003595203574587 194.12973690414347 75.56882374712725 0.449968122387279
1.671910703472694 12.987664028779657 175.25661933650147 79.15185569875662 0.4584111861796505
1.6958481060258381 12.970121845105071 158.3889406087688 82.92108953428813 0.46714607644229517
1.7193282677423147 12.950913589592659 143.30232876222317 86.8892825416596 0.47619443689054736
1.7423144850255818 12.929975568988553 129.79724451417297 91.06804376928665 0.4855707419807519
1.7647941976413635 12.907334622185331 117.69676591064274 95.47139058975857 0.4952966335090523
1.7867215954292748 12.882902118268857 106.83570440649142 100.11305925731534 0.5053899112243723
1.8080607260335988 12.85665219090938 97.09948521084053 105.00953529214972 0.515876129179544
1.8287720273676893 12.828521437420257 88.34612311523824 110.17735486308793 0.5267778176659377
1.8488523700683825 12.798561635106372 80.47796707554318 115.63410748354522 0.5381182100949505
1.8682392559609324 12.766659255238288 73.39300734271455 121.4000688144432 0.5499268990783318
1.8869098621787503 12.732815393675223 67.01955711260293 127.49661922664126 0.5622335403070515
1.904833903477125 12.697006461076965 61.266093422917976 133.9462305852525 0.5750675565824898
1.9219774798176947 12.659196582862407 56.0828702425324 140.77449388876812 0.58846493493233
1.9382925491293213 12.619316097991263 51.39928868640234 148.0091251766664 0.6024640979495551
1.9537912268052902 12.577477365990887 47.1688390809424 155.67867373226076 0.6171010018866958
1.9684104095473172 12.533556991412354 43.3473528625515 163.81671768261074 0.6324230302158685
1.9821268021180019 12.48756483174694 39.88592904010128 172.45696425732717 0.6484715463444082
1.9949176225570624 12.439496962825954 36.750768972191025 181.63880043435395 0.6653000725224756
2.0067571740488463 12.389343405514703 33.90786890752095 191.4041606165878 0.6829628250997182
2.01760672278509 12.337078865123129 31.33181105032133 201.79906251867882 0.7015190160124393
2.0274463043806352 12.282700572085002 28.99687376617764 212.8734964182243 0.721031490687187
2.0362590519801387 12.226246747338958 26.874205443051636 224.68281042481885 0.7415701651827064
2.044007091105779 12.167657877334863 24.945971622523917 237.28826586551307 0.7632125374261637
2.050670117418337 12.106961719240063 23.19147908066639 250.75664397756933 0.7860409760814993
2.0562450508169023 12.044225323257587 21.596240865443328 265.16097425512044 0.810143467859574
2.0586516390060368 11.985728219690554 20.39406018570711 281.8644822153359 1.5636188961944852
