M[M_sun], R[km], Lambda[1], P_c[MeV/fm^3], rho_c[fm^-3]
0.24162668629717493 15.618656898711224 2160425.4255784233 3.5677272577965504 0.1711233750220791
0.25364334735663313 15.277312435407854 1723259.6218364064 3.784807955690677 0.17388802783760213
0.26603796546798514 14.981309802995456 1383194.7201389817 4.011376995030626 0.1766663651815476
0.27881241475465257 14.723591085787845 1116467.2100025686 4.247690830124963 0.1794570806148861
0.2919663019798624 14.498471654768839 905973.9232649398 4.494374438317947 0.18226673661510687
0.30550083306272086 14.30129175788384 738668.8691994091 4.751582098683151 0.18509101348503298
0.31941664038923073 14.128189911667286 605126.6654352748 5.019998279712527 0.18793657799970748
0.33371360923785875 13.975993919658588 497722.8830441439 5.299844005665717 0.19079999394482683
0.34839355080277024 13.842086814001327 411040.2904184993 5.591851398059066 0.19368762899195147
0.3634553434724438 13.724038170993525 340713.90567670116 5.896183304923014 0.19659446435680578
0.37890784503529173 13.620072059240462 283319.2313765226 6.213705616713679 0.19952821894976397
0.3947378913936626 13.528530593176242 236416.43533057216 6.5446787139643074 0.20248512398714794
0.4109621709556981 13.447932193935296 197893.50097162413 6.889799057219781 0.20546879048111588
0.42756908668183635 13.377105651957345 166100.94603267952 7.24977431067645 0.20848233963058557
0.44456346731700674 13.314964734586974 139822.0681474323 7.6248677609387645 0.2115213873781987
0.4619435194323886 13.260605061378277 117995.41511871798 8.01601975680098 0.21459196226910598
0.4797060768657267 13.213207591830201 99827.481128241 8.423939144327388 0.21769577535327053
0.49786138819677944 13.172030271600333 84655.94059476121 8.849072712972218 0.22083038072153025
0.5163949883673555 13.136473810785265 71947.51348540555 9.292281872813993 0.22399901880291945
0.5353163537038695 13.105885533523972 61286.225161519644 9.754456813210266 0.2272046894906676
0.5546196683141993 13.079839050517325 52308.78963973816 10.236406915296923 0.23044874338889945
0.5743008888592311 13.057879609161763 44738.89656935382 10.738611484974518 0.23372798161255204
0.5943556512678444 13.039549936234119 38002.58915975844 11.262298883582803 0.23704838800908598
0.6147906168966965 13.024551550224436 32909.684447635846 11.808414169148374 0.2404116764162602
0.6355910848941002 13.012443554191497 28300.197248912773 12.37793608424185 0.24381947931297762
0.6567622444504044 13.003027744339397 24376.56732613297 12.971564858375514 0.2472698751310451
0.6782930331341038 12.995978816762245 21033.139836217888 13.59060469334453 0.25076739798987396
0.7001784850724545 12.991071807919514 18040.78370722081 14.236263650820122 0.25431480657504696
0.7224091140729886 12.988012409949164 15733.941336236716 14.90973107578092 0.2579140848518965
0.744995825707883 12.986642750945542 13637.693140020827 15.612050395330705 0.261565269044555
0.7679140014610635 12.986754301260248 11838.668720622698 16.34446003346863 0.2652699788270166
0.7911567951276425 12.988127947173764 10291.47331681445 17.108588782639465 0.2690330382924987
0.8147294855947702 12.990661368509095 8958.74309378036 17.905891236171495 0.27285687912837353
0.8386099671510863 12.994128447236228 7809.6858358936815 18.737747610536715 0.27674271803543987
0.862787762125105 12.998393685892351 6816.422316526513 19.605472106833265 0.280690767811134
0.8872616700787148 13.003333646929603 5956.834843127689 20.51116433406022 0.2847075184315653
0.9120206147870789 13.008827533702199 5212.691185210389 21.45661781070555 0.2887959820342925
0.9370378377456785 13.014726339407352 4566.5698195653285 22.443335487391572 0.29295623408384086
0.9623146621449108 13.020925293030608 4005.686169634816 23.47330435985212 0.2971917689193323
0.9878372385489349 13.027314155491696 3517.669925692386 24.548964233590496 0.30150883413935226
1.0135774545132383 13.03377817965035 3093.2159214957637 25.672279371539002 0.30590922725957936
1.0395390149239778 13.040224981063787 2722.336532333175 26.845166007034347 0.31039387803711316
1.0656879888411614 13.046550602412088 2399.1130346452014 28.070741318951946 0.31497168070779946
1.0920164128862615 13.052686263027551 2116.5277777787496 29.351085128965288 0.31964325486970596
1.1185134886829944 13.058519153127085 1869.2248057418442 30.688901944053473 0.32441293817681116
1.1451425164711466 13.063979728327325 1652.638596722587 32.08764365799964 0.3292891428175105
1.1719037730723045 13.068992804792007 1462.6937008016373 33.54919286697378 0.3342691894169853
1.1987571746773957 13.073448505530088 1295.8841150740186 35.07811821131394 0.3393668256996824
1.2257012391944464 13.077319467408712 1149.4550972878978 36.67647586591522 0.3445790174732795
1.2526943890403661 13.08048364216953 1020.5444521988787 38.34925892248436 0.34991984654558367
1.2797345137815366 13.082928687392904 907.0546060526597 40.09874861375295 0.3553861484736418
1.3067771737291356 13.08452330347308 807.0416641511166 41.9304092740163 0.36099244416885357
1.333811709104814 13.085235408594807 718.8318392215801 43.84766595622439 0.3667403452481901
1.360818419356474 13.085036076585078 640.8679665268287 45.85529621206866 0.37263810677663384
1.387748425833875 13.083778848239984 572.0188010146182 47.958586097299275 0.37869543136272826
1.4146045338742965 13.081496801279686 511.02552637961617 50.162235179463124 0.3849176874605151
1.4413257342231869 13.078045368231667 457.05995222835725 52.47156728954609 0.3913123940032307
1.4679189044553826 13.073455697494888 409.17551024510124 54.89294293018164 0.39789096240432437
1.4943277092250626 13.067592508868113 366.6777280706496 57.43254837822777 0.404662447664718
1.520538121695347 13.060453702060753 328.96951253869645 60.09700769813897 0.4116366143781756
1.546520509293387 13.051973705056309 295.40665360327006 62.893422149115 0.41882399514904883
1.5722364404542422 13.04209888979334 265.5939720636959 65.82941336473785 0.4262359537781902
1.597659687873237 13.030778720689462 239.0184779178992 68.91317068799978 0.4338847537751404
1.6227472488553725 13.017964898345266 215.31571336703706 72.15350309222191 0.4417836328230376
1.6475006099023468 13.003633167163358 194.18437741183612 75.55989617233146 0.4499468838984083
1.671847628492483 12.987708023007993 175.30301042726262 79.1423523085649 0.45838901487905903
1.6957853864296735 12.970168092892104 158.43024716039375 82.91091761722295 0.4671227014065048
1.7192504424079866 12.950931770845138 143.3453816551041 86.87838974056021 0.47616977005541733
1.742252973609223 12.930037231419035 129.83275977681248 91.05642554991232 0.4855448957191569
1.7647335401880249 12.90739873980089 117.7281002692404 95.45893504116688 0.4952693032542533
1.7866613648216176 12.88297450927932 106.86774162972294 100.09975553446262 0.5053612023676217
1.8080009325649633 12.856728290459614 97.12756032316854 104.99531441514569 0.5158459311174178
1.8287133743004738 12.828605861419943 88.37132612865612 110.16214159194841 0.5267460107628332
1.8487944373390877 12.798651010027399 80.50000096798225 115.61775753482367 0.5380844367428254
1.8681829507690935 12.766758544125986 73.41396060694615 121.38255244271484 0.549891242164527
1.8868559270258327 12.73291987707595 67.03662461089017 127.47783809854113 0.5621958467328118
1.9047809365739505 12.69711768385517 61.2825374500249 133.92614612922483 0.5750279036301229
1.9219265228232514 12.659316769701107 56.09916598115682 140.75292176119348 0.5884229042243491
1.9382425260546035 12.61944115061897 51.41339442655767 147.98593620804928 0.602419492814697
1.9537542562172845 12.57764863927833 47.18260746158587 155.65380241918493 0.6170538682587636
1.968364332222691 12.533700229847632 43.35747741961601 163.7900133226236 0.6323731462494838
1.9820841454196296 12.487716694947396 39.8963024199272 172.42818100048308 0.6484184012077417
1.99488027708439 12.439656793556574 36.76252688036389 181.60783394921876 0.6652436666404272
2.006713344402797 12.389498994645416 33.91890807220784 191.3708098352387 0.6829028700001044
2.0175729031972915 12.337256869812062 31.342123092723206 201.76310564129327 0.7014551961019334
2.027414424510583 12.282888846424251 29.003805779787985 212.83477916852905 0.7209637571752247
2.0362324262906664 12.226438878957179 26.881388016956794 224.64097448903408 0.7414978507717299
2.0439817506484035 12.16786497344721 24.952114710751207 237.24310745169126 0.763135538182275
2.0506483742269297 12.107179415225225 23.197483693844674 250.70776351697518 0.7859586134352066
2.0562213398994666 12.044429026626212 21.601734331043225 265.10805609209694 0.8100554089618225
2.060682949966937 11.979620447039906 20.150362900617964 280.52588213322963 0.8355262728909116
2.064002389769008 11.912757153832615 18.829453562366883 297.05050861070623 0.8624768287503054
2.066164814980164 11.843861771711447 17.62577388066492 314.7823912411283 0.8910280022228868
2.0671661214494432 11.772989933410265 16.52964648910867 333.8310013933531 0.9213060836067954
