M[M_sun], R[km], Lambda[1], P_c[MeV/fm^3], rho_c[fm^-3]
0.24162668629717493 15.618656898711224 2160425.4255784233 3.5677272577965504 0.1711233750220791
0.2536450290853904 15.27724579269057 1723140.08956964 3.7848403290584054 0.17388843135601342
0.2660419237930611 14.981232125642034 1383035.378327357 4.011445050501792 0.17666718759175304
0.2788181584106587 14.723467323010306 1116394.584806812 4.247796870318789 0.17945831052133532
0.2919739317033331 14.498340364388303 905843.6762849874 4.494521246013059 0.18226837135286422
0.30551078603031373 14.301151797593253 738606.6481875865 4.751774658913667 0.18509309350302927
0.31942888094779087 14.128062811218221 605029.8606441409 5.020238011135175 0.1879390653057453
0.3337279822206864 13.975867625528897 497636.3481392676 5.30013722001737 0.1908029461268174
0.3484109693967968 13.841893098981668 410944.2655270321 5.592198827637587 0.19369099046869825
0.36347522281943795 13.723892384687387 340625.6577619553 5.896592755522734 0.19659831000348732
0.37892915339164823 13.61994951029731 283258.71598694765 6.2141820435579564 0.1995325633889285
0.39476465273501143 13.528373211594966 236371.65010062826 6.545221622613314 0.20248988456256606
0.4109911069369802 13.447787817396085 197833.1420694098 6.890418928877043 0.20547406956826816
0.427600067821208 13.376998248320772 166045.5589353012 7.250476962476666 0.20848815248885455
0.44459797811662277 13.314856925623097 139775.12342492843 7.625651251022177 0.21152762446304513
0.4619797599863875 13.2604917608195 117952.25689445331 8.016897751598815 0.21459875426869557
0.4797483735875747 13.213096061636197 99790.70693052914 8.424918490703272 0.21770313866891605
0.49790686846753823 13.171957772872004 84623.99108894986 8.850149800086843 0.22083817929244406
0.516447302856733 13.136356505929864 71923.18406066118 9.293474131931932 0.22400741238143843
0.535368551718775 13.105796909175647 61260.24411727558 9.755772328623937 0.22721369620553247
0.5546765322932388 13.07978568291949 52290.91378959299 10.237852741391626 0.23045836259779692
0.5743620962804233 13.057816951716285 44717.555003757676 10.74018437543847 0.2337380800565511
0.5944217160913831 13.039503742526124 38317.924321670034 11.26402097215343 0.2370591476496387
0.6148609857850542 13.024474065296884 32892.10516972078 11.810295629695498 0.24042311883553433
0.6356674906932539 13.012412596868117 28283.414972390612 12.379987725382502 0.24383162723240928
0.6568401845227485 13.003018201342533 24363.178932686606 12.97377725860973 0.24728252030354647
0.6783742721185266 12.995979227022449 21021.411334589644 13.593009270517364 0.2507807860313475
0.7002656590588524 12.991065048657488 18166.21397563201 14.238873298649631 0.25432896404188593
0.7225025655588446 12.988002514034918 15723.519800820723 14.91255951646288 0.25792903988397076
0.7450930271452938 12.986653614043805 13629.735494561952 15.615084634722999 0.26158077806363794
0.7680162506101462 12.986765226601722 11832.230022290441 16.34774116325029 0.2652863344360424
0.7912640098370598 12.988134553397275 10217.752279922297 17.112133271123714 0.26905027393973313
0.8148405736325517 12.990682718653845 8953.181933261509 17.90971664354206 0.27287503041281713
0.8387257934081034 12.994148874029232 7804.75264464421 18.741836969228306 0.27676150652273673
0.8629090308392576 12.998421814996732 6811.53923621699 19.609878590786984 0.2807105369256103
0.8873929415056114 13.00336672636272 5953.272735860385 20.51590915287806 0.28472831096332085
0.9121518988102015 13.008864011617844 5209.020400754472 21.461723626427553 0.2888178436586364
0.9371739695550956 13.014759274128455 4563.329460004967 22.448781030476542 0.29297885176959376
0.9624615572803283 13.020962884214946 4002.9975467832496 23.479157971108698 0.29721554217392265
0.9879831642770387 13.027351327959959 3515.0454008365136 24.555253467102578 0.30153381827845643
1.0137284268282976 13.03380801054653 3090.52336011086 25.6789798817794 0.30593508581904244
1.0396951332650064 13.040265052586674 2720.2449271013197 26.852359712926322 0.31042105456260566
1.0658494704588708 13.04659173893028 2397.189387729222 28.078461896013934 0.31500024247951597
1.0921831734488139 13.052730911999458 2114.5506150881806 29.359305213170924 0.31967284212568886
1.1186847741551873 13.05855577387317 1867.5501187997656 30.69771967953556 0.3244440433100992
1.1453183004724947 13.064022029623949 1651.3256792238756 32.09703026446693 0.32932139427278856
1.172084520701379 13.069022756481004 1461.4087687918711 33.55925845346571 0.3343031114812685
1.1989428612552357 13.07347670253286 1294.830366505429 35.08891028794186 0.33940251217135237
1.225890287558775 13.077345950753385 1148.5301400763112 36.687963113699205 0.3446160735564429
1.2528882744122 13.080503588187925 1015.2281146833834 38.36151518315563 0.3499585143073739
1.2799332664315346 13.082940076546363 906.2501839357666 40.11185844738558 0.3554267059191887
1.3069863061713436 13.08454428422058 806.3849059601763 41.94436854238605 0.3610346451519552
1.3340185220374896 13.085242703070765 718.1769193686065 43.86263117372232 0.3667848296140345
1.3610278749727203 13.085029240645795 640.3060452247837 45.8712360202418 0.37268445757354207
1.38796026051289 13.083767075592387 571.5045225570533 47.97556858309344 0.3787437689993642
1.4148119805796708 13.081457532074511 510.5823031978706 50.180446570937725 0.38496871778636377
1.4415445919683691 13.078016657139306 456.64593361947277 52.490978675308966 0.39136569039571784
1.4681384881628792 13.07341418206659 408.7888560814182 54.913640266071084 0.39794667591020405
1.4945510839619287 13.067537394524676 366.3434816763688 57.4546245828334 0.4047207410077961
1.5207632529218782 13.06038678689907 328.674217388265 60.12056327621753 0.4116976629182865
1.5467476105432272 13.051894568133232 295.1317617788948 62.918565877214526 0.4188879879360771
1.5724647487141852 13.042005086379678 265.32417105741655 65.85626304595624 0.4263030947113315
1.5978783842271533 13.030663244660984 238.78413082740062 68.9418539836495 0.4339552628787997
1.622976592676489 13.017841645273894 215.11698293921611 72.18415843912706 0.4418577476521221
1.6477293536506763 13.003490492181788 193.98159985207565 75.59267379556456 0.45002486108730544
1.6720761088627782 12.987551488724273 175.1412296544476 79.17724417720378 0.4584704172094046
1.696014515239964 12.969988752497471 158.27343548313013 82.9482641748853 0.4672085236872421
1.7194931756909562 12.95077047915371 143.19975367463138 86.91838324789363 0.47626033567234755
1.7424758875471693 12.929818075208061 129.71160406485663 91.09908265352142 0.4856397920731717
1.7649573787729238 12.90716052210596 117.60584868845802 95.50466669575052 0.49536964871579203
1.7868833689764343 12.882718614126107 106.76420660438312 100.14860156060143 0.5054666099729045
1.8082196838148648 12.856445896089669 97.03382596421508 105.04752811754673 0.5159568070239107
1.8289330027745951 12.82831030554399 88.28308381004283 110.21799926552868 0.5268627942997147
1.8490060716445142 12.798317908389919 80.4208872972731 115.67778902778589 0.5382084410920096
1.868379510395695 12.766368944015122 73.34556447377396 121.44686698290805 0.5500221629997107
1.8870541155032106 12.732539145077176 66.96927209463458 127.54667457171877 0.5623338096685415
1.9049758841030122 12.696708889291612 61.22329781945878 133.99989061458 0.5751734981416735
1.9221153201377166 12.658876681883086 56.04348149975589 140.83212901487397 0.5885772300755149
1.9384253860632639 12.618974881384153 51.36401195332502 148.07108058834598 0.6025832722663947
1.9539179054246707 12.577116027220006 47.13854848237176 155.74512446888977 0.6172269326844203
1.9685308665681 12.533177953240314 43.318329605141926 163.88806648072048 0.6325563103636873
1.98224067077733 12.487159958777632 39.85720781220899 172.53386815108465 0.6486135409757335
1.9950251774572405 12.439065069626523 36.72572501945333 181.72153823555433 0.6654507805745866
2.0068578840468523 12.38888979409436 33.88465023773843 191.49326968036326 0.6831230175323698
2.0176996251972996 12.336600814795341 31.311357271675842 201.89513561467737 0.7016895362810073
2.027531620892203 12.282205044687942 28.975816067566097 212.97694584143588 0.7212124692639132
2.0363354118496 12.225717603916618 26.855447925896627 224.79459382509148 0.7417633854512629
2.044074040603132 12.167108805270408 24.928933321077842 237.4089278860922 0.7634182772554531
2.050727266477366 12.106383353525075 23.17582793165975 250.8870564858227 0.786260410660006
2.0562945271236233 12.043618687594602 21.583432059056143 265.3023140720733 0.810378571522699
2.0607355710691113 11.978751758980293 20.132842358724545 280.73603504503984 0.8358709725789422
2.064032355340406 11.911839375902296 18.811729112469244 297.27850958842276 0.8628462311876756
2.0661856942298016 11.842922129755403 17.609893125597328 315.030071260002 0.8914244892181931
2.06717224463293 11.772014128646228 16.51572280296257 334.0999941292534 0.9217309361461619
