M[M_sun], R[km], Lambda[1], P_c[MeV/fm^3], rho_c[fm^-3]
0.24162668629717493 15.618656898711224 2160425.4255784233 3.5677272577965504 0.1711233750220791
0.2536440688331919 15.277282805148316 1723262.418118557 3.784821060598012 0.17388819118395005
0.26604012386385706 14.981262535596075 1383038.5658955465 4.011404544139184 0.17666669809626614
0.27881528357127605 14.723512423535247 1116405.915532594 4.247733755441175 0.1794575784838671
0.2919696842357405 14.498418419473918 905854.0795367279 4.494433866211119 0.18226739835848985
0.30550477683632316 14.301241740714143 738667.1029492068 4.751660046976981 0.18509185547537288
0.3194218525459348 14.128113028160067 605089.4472092789 5.020095322567157 0.1879375848567794
0.33371945479910925 13.97600495646894 497681.37975712266 5.299962697916217 0.1908011889788433
0.3484006942494344 13.842029176046697 411007.0232387001 5.591992036022735 0.19368898970293816
0.3634634536408958 13.723987864714461 340650.2360390658 5.896349048178662 0.19659602105253782
0.3789163159436486 13.620003635648224 283312.68672230537 6.213898470940513 0.1995299775481011
0.39474888077279957 13.528452747759625 236406.9536216899 6.544898478902564 0.20248705102876854
0.4109740274470652 13.44786995205028 197867.06747808395 6.890049975346356 0.2054709274051755
0.4275819413472778 13.377061709517971 166085.5466964731 7.250058736510714 0.20848469261262034
0.44457692579923785 13.314926951174147 139796.8591242555 7.625184908331941 0.2115239120753735
0.46195816599177486 13.26057027165251 117983.68927461587 8.016375157459166 0.21459471158052615
0.47972347872545723 13.213147753413672 99812.08319535932 8.4243355695282 0.21769875591658838
0.4978804898166424 13.17198056085115 84641.96114775978 8.849508701014067 0.2208335374612366
0.5164181628781006 13.136405413811042 71935.70608659007 9.292764479202882 0.22400241638198423
0.5353370253156359 13.105842095958597 61276.411218519 9.754989310040395 0.22720833524583367
0.5546443028512602 13.079796350383742 52299.80513635868 10.236992773484113 0.2304526449758821
0.5743261470152025 13.057838939751631 44328.77368821764 10.739248158956409 0.2337320692567327
0.5943832274875106 13.03951710917907 38328.64287226251 11.262995947807761 0.2370527432789778
0.6148196344195347 13.024503524434916 32902.14240927654 11.809175741404015 0.24041630804622974
0.6356231829557724 13.012436484254925 28292.473779794862 12.378766539208415 0.24382439649845686
0.6567935418326124 13.003017295182891 24370.26672629099 12.972460382481152 0.247274993579606
0.678325909694663 12.995972039472187 21028.286657623543 13.591578002929092 0.25077281711687555
0.7002120738852591 12.991058544108604 18172.774789295952 14.237319964435642 0.25432053712796454
0.7224474333330081 12.987997971548317 15729.910923486577 14.91087594727392 0.2579201382190425
0.7450355820365937 12.986642627394696 13634.36804044481 15.613278565166684 0.26157154663407933
0.7679538727016285 12.986772161795505 11836.208796979123 16.345788133189338 0.2652765990710254
0.7911995683576627 12.988133960669598 10288.866175253517 17.11002347747291 0.2690400147276453
0.8147746612925157 12.990656100430037 8956.441159549828 17.907439633232514 0.2728642261617124
0.8386550206062753 12.99413807780178 7758.056918417125 18.739402842170186 0.27675032296835583
0.8628370396255668 12.998397352964956 6814.6634497506775 19.607255694421625 0.28069876964379314
0.8873171538616125 13.003362122424674 5955.5205769966 20.513084861654463 0.28471593448126575
0.9120723702657777 13.008852409959818 5211.119961246383 21.45868445015896 0.28880483078596014
0.9370936632286097 13.01473855430694 4565.392148670293 22.44553963001403 0.29296538883744605
0.9623710566916313 13.02094100701978 4004.500993112777 23.475673665116474 0.2972013913720001
0.9878964762326558 13.027332133463897 3516.577663449693 24.551509853152364 0.3015189466774092
1.013638877675014 13.033794354017722 3091.9195275407014 25.674991451888776 0.3059196936999663
1.0396023320165906 13.04024318219513 2721.506856611723 26.848077702653814 0.3104048778988558
1.0657532702716301 13.046570596795693 2398.3764156061593 28.07386625880124 0.31498324121913
1.0920844743670646 13.052697349145172 2115.7729032123707 29.354412238020526 0.3196552304194495
1.1185824466275198 13.058534978773936 1868.6298900153067 30.692470942970367 0.32442552805175584
1.1452132111106699 13.063994769595082 1652.137766834766 32.091442898675695 0.32930219663426324
1.1719777981933412 13.069000078755446 1462.051578502368 33.55326691206137 0.3342829193689821
1.1988315901708695 13.073467727179699 1295.4789568141052 35.08248628844586 0.3393812697465693
1.225777910164896 13.07732723504903 1149.0796460176368 36.681125299723156 0.34459401582702703
1.2527733317895828 13.080491084492365 1020.1820327765382 38.35423580198189 0.3499355922339069
1.27981580237306 13.082936831068386 906.7529912939253 40.10405475153807 0.3554025638912829
1.3068589859041269 13.084518529072103 803.3902624255627 41.93605919983665 0.3610095247505685
1.3338962993284498 13.08523809520408 718.6041634822825 43.85372301178404 0.36675834994979184
1.3609033646784554 13.085032243948888 640.641953633094 45.8617477063705 0.3726568668456943
1.3878345782989856 13.08377454289064 571.8241869294127 47.96545958510666 0.3787149955278382
1.4146909790598376 13.081483489433259 510.833461342761 50.16960602652151 0.3849383413862568
1.4414143683183664 13.078034392263215 456.8733518149736 52.47942379539877 0.3913339650247238
1.46800846925133 13.073435049708 409.0154846809104 54.90131988061734 0.3979135116483356
1.4944174342706154 13.06757076822998 366.5394104371025 57.44148337663395 0.40468604098326155
1.5206294213186256 13.06042563301715 328.8411879424583 60.10654141775988 0.4116613227365416
1.5466128471874685 13.05194009338935 295.2964126604503 62.90359861047925 0.4188498950522854
1.5723286507559815 13.042061101874891 265.4654678968236 65.84028024105838 0.426263127740166
1.5977532777798833 13.030734578261665 238.92653808189016 68.92477964169103 0.4339132908348001
1.62283939886264 13.01791483080622 215.24277332345866 72.16591014606219 0.44181362911300487
1.6475919462790416 13.003575717344878 194.10002845873137 75.57316211924133 0.4499784432717263
1.6719409024999028 12.987642282912702 175.23823083838798 79.1564738995614 0.4584219603892924
1.695877911110293 12.970098306380702 158.36736961075758 82.92603262101312 0.4671574356411926
1.719358359082496 12.950886259753831 143.28100335966553 86.89457595966047 0.4762064238779081
1.7423440570095186 12.929946714321193 129.78038304029442 91.07368972192148 0.485583302147164
1.7648240278500478 12.907302788807916 117.68271803262061 95.47744346575888 0.4953099148705385
1.7867503380681875 12.882866424576955 106.82242902553986 100.11952432706919 0.5054038625644219
1.8080904882243614 12.856612961837182 97.08455849269623 105.01644607986445 0.5158908042517418
1.828799934698586 12.828481216332618 88.33262915599882 110.18474793553646 0.526793274613813
1.8488796129185665 12.798519539679305 80.46526442101327 115.64205296371772 0.5381346227152125
1.8682565320878206 12.766582971710678 73.39058474929574 121.40858115846792 0.54994422709134
1.8869370736127677 12.732764206052511 67.00950551868435 127.50574622539254 0.5622518581207198
1.9048595233112864 12.696952977506193 61.257506064758275 133.95599098417597 0.5750868266405417
1.9220028112753333 12.659138072810466 56.07643665575305 140.78497728172903 0.5884853605684507
1.938317893766395 12.619253221269704 51.394204354513676 148.0203943420756 0.6024857747498957
1.9538152244955949 12.577410920704772 47.16342313876861 155.6907605050714 0.617123907531075
1.9684316461621543 12.533488110997338 43.34226075047138 163.8296953068623 0.632447272525822
1.9821480573213972 12.487490294995252 39.88078870728941 172.47095222232002 0.648497373592355
1.9949381179709973 12.439418053989682 36.74532909014961 181.65384944677373 0.6653274845072645
2.0067747696708045 12.38926186766005 33.90204508833338 191.42036840060692 0.6829919620274325
2.0176240042009677 12.336991003363007 31.328313824804585 201.81653687532435 0.701550031271782
2.0274611797253685 12.282609958147612 28.99229899675191 212.89231232904882 0.7210644079974543
2.036272936376658 12.226148863753796 26.87024668493366 224.7031420435159 0.7416053088696514
2.044019463455553 12.16755819691556 24.942994255845537 237.31021224080078 0.7632499580120576
2.0506803214034433 12.10685594183883 23.18811293990052 250.7803636626906 0.7860808872769559
2.0562535716928947 12.044115554642815 21.59365303723569 265.18669197877074 0.8101862636458964
2.0607034772129245 11.979269228185931 20.142278259967952 280.6109259907078 0.8356657646109603
2.0640093100920227 11.91237824091132 18.82151955420092 297.1427745460722 0.8626263160979114
2.06617262817931 11.84348245178652 17.619227088763104 314.88262007549616 0.8911884488732151
2.0671685234075787 11.772595391767403 16.524593863234916 333.93985412471017 0.9214780078008791
