M[M_sun], R[km], Lambda[1], P_c[MeV/fm^3], rho_c[fm^-3]
0.24162668629717493 15.618656898711224 2160425.4255784233 3.5677272577965504 0.1711233750220791
0.2536418090389255 15.277350648036698 1723217.7908324474 3.7847995200650177 0.17388792269159775
0.266038017879303 14.981270697381884 1383044.0336177873 4.011359261747743 0.17666615088528942
0.27881139523131604 14.723576423398216 1116429.5074624268 4.247663199328679 0.17945676013928794
0.2919646260645797 14.498523857093328 905997.3845689963 4.4943361850466 0.1822663106560523
0.30549938157168854 14.301289711888755 738715.2788793708 4.751531924167707 0.18509047150450667
0.31941329700215637 14.128234757005005 605158.5561463131 5.019935814452211 0.18793592989852234
0.3337100927892286 13.976030109950214 497735.28696901025 5.299767605249666 0.1907992247194084
0.3483891944551926 13.84212574803148 411067.71898763767 5.591760871834718 0.193686753125828
0.36345030829164454 13.724079175624231 340697.31379696715 5.896076619248204 0.19659346234237085
0.37890220801370517 13.620089835890425 283350.98121288244 6.213581480692157 0.19952708697871718
0.3947317439940328 13.528555114251027 236445.107620301 6.544537256580911 0.20248388359699512
0.41095471698447505 13.447958371052628 197905.7682362725 6.889637547858373 0.20546741499961937
0.42756094494211827 13.377135335300288 166113.22790947816 7.24959123394002 0.20848082508366364
0.44455395127716085 13.31500293280993 139836.2266926214 7.624663622924225 0.21151976230834266
0.4619324961988991 13.260646445203562 118011.4745308163 8.015790997136266 0.21459019262815518
0.47969541263804644 13.213224533636895 99846.79427782788 8.42368397940683 0.21769385686978196
0.49784953224703593 13.172054105287007 84665.42667347907 8.848792083703538 0.22082834884572136
0.5163852055656627 13.136468485149074 71959.348597029 9.291971238116803 0.2239968319152854
0.5353014997836743 13.105899033542872 61295.98400930247 9.754114067176037 0.22720234286989122
0.554605098551136 13.079870656426774 52314.771546854885 10.236029824065506 0.23044623210840198
0.5742858258924066 13.057878554368292 44745.479231741185 10.738201687043713 0.23372535058289676
0.5943392206415105 13.03958604706731 38341.19520147254 11.261850216730307 0.23704558473047238
0.614772595505426 13.024555139196584 32913.53101269434 11.807923983221304 0.24040869526796646
0.6355721115762711 13.012476519361902 28305.656412564647 12.377401563766199 0.24381631437757828
0.6567408073960233 13.003054162029652 24380.14580187335 12.970988457930332 0.24726658066246457
0.6782702558451889 12.996003637149615 21036.324222044863 13.589978228696307 0.2507639100025526
0.7001554799495631 12.991076638891794 18179.852796344952 14.235583763429934 0.2543111181527733
0.7223865260653841 12.988005532301912 15735.116359252475 14.908994191336557 0.2579101886660684
0.7449704266688154 12.986658365140535 13639.9644440948 15.611259898989118 0.2615612285516138
0.7678874759005392 12.98676255460249 11840.459501582818 16.343605221368886 0.26526571780309366
0.7911287783320362 12.988133633394366 10293.315550066103 17.107665365261347 0.2690285480264843
0.8147010008206205 12.990647957607434 8960.407645704983 17.90489463962997 0.2728521503490441
0.8385779830336637 12.994117211337635 7810.331434273577 18.73668225488975 0.2767378232774719
0.862757605101628 12.998385342542381 6817.693611088263 19.604324141437704 0.280685617614388
0.8872290923654312 13.003331756271708 5958.600324032043 20.509928234591726 0.2847021016520341
0.9119862826209987 13.00883188225188 5213.73468410011 21.455287674581214 0.28879028677659824
0.9370030380323525 13.014713701965821 4567.654380917545 22.441916855065653 0.2929503418928058
0.96227704300499 13.020923940960033 4006.5672203998274 23.47177943069943 0.29718557572894266
0.9877989800020601 13.027310092568362 3518.3329469600058 24.547325831005598 0.3015023255436687
1.0135386174412337 13.033759722600317 3093.66009700477 25.670533837010456 0.30590249090566274
1.0394975975282226 13.04022462251873 2722.898382478293 26.84329200386731 0.31038679839059896
1.0656483615887433 13.046557310003717 2399.455319050159 28.06873007639233 0.31496424024701614
1.0919736831692821 13.052678496468515 2116.8329298569256 29.348943774509898 0.3196355473084649
1.118469266114255 13.05851313084087 1869.6033483711199 30.686604915711417 0.3244048352604908
1.1450962776783056 13.06397518338301 1652.9720002567053 32.085198451991005 0.3292807413305079
1.1718564902098205 13.068985139736657 1462.9540085222884 33.54657080556543 0.3342603527996933
1.198707754463068 13.073447242844189 1296.1376331777008 35.07530692106939 0.3393575295249862
1.2256517463581271 13.077313306677645 1149.680085031557 36.673483504010875 0.3445693645769838
1.252643889953872 13.080484813587594 1020.7748332250192 38.346051065642385 0.34990968475834044
1.2796833150325178 13.082925359814094 907.2676169617645 40.09533362316183 0.3553755836336275
1.3067237207805371 13.08451915487158 807.245846753573 41.926773035748816 0.3609814512696833
1.3337589449423883 13.085227551933347 718.9728690579058 43.84376770884646 0.3667287576409578
1.3607643401047025 13.085035568579597 641.0041477890127 45.85114412256528 0.37262603306437675
1.3876936673683937 13.083787725013488 572.1594549201478 47.954162433845134 0.37868284018854814
1.4145475526464404 13.081501074374133 511.14156741142415 50.1574914437767 0.38490439499035123
1.4412690743017718 13.078055882804978 457.14253553524134 52.46651101103228 0.3912985113568556
1.467862450793608 13.07346290731911 409.28089898594396 54.88755172412843 0.3978764502472164
1.4942689430941762 13.067606323649583 366.772621858264 57.426798046924944 0.40464726362192455
1.5204792285423625 13.060472665959852 329.0500672495713 60.090872068574974 0.4116207127846637
1.5464617197707418 13.051994506043798 295.48015024512597 62.88687289448064 0.41880732677531557
1.5721772613702327 13.04212401096595 265.64176374470503 65.82241980793366 0.4262184655284791
1.597599500489997 13.030808344412621 239.07532774324181 68.90569958512545 0.43386638835529995
1.6226802650672154 13.017974273842714 215.37558160765823 72.1455183937759 0.4417643283746995
1.6474386690950469 13.003672341297097 194.22877345977227 75.55135875956881 0.44992657359576826
1.6717869294009962 12.987752995795015 175.3441737534057 79.1332642714332 0.4583678125924047
1.6957259644881864 12.970216178427556 158.46877556435436 82.90119030614485 0.4671003480739779
1.719188501641322 12.950978933347882 143.38761741015122 86.8679730924812 0.47614618147260673
1.7421938560792225 12.930097550226284 129.87415923570836 91.04531522858433 0.48552017934376435
1.7646757207657884 12.907460086087175 117.75801666421378 95.44702404047005 0.4952431678591272
1.7866035258692134 12.883041206181678 106.89338851407723 100.08703348387907 0.505333748734393
1.8079438188798957 12.856801204087619 97.1490400341029 104.98171535795791 0.5158170534909748
1.82865718098206 12.828685895289519 88.3922810027212 110.14754263787694 0.526715405129668
1.8487392269625051 12.798736444241746 80.5183028434132 115.60212262371105 0.5380521404116597
1.8681296703054067 12.7668504411151 73.43410170757724 121.3658021841751 0.549857144776425
1.8868035076239755 12.733020458176478 67.05424560220085 127.4598784711492 0.5621598019039385
1.9047303864880019 12.6972265733916 61.300023567116206 133.90694025106725 0.5749899852632676
1.921877170712843 12.659430346006753 56.11233755861358 140.732293375412 0.5883827122842681
1.9381954595782342 12.619561518814866 51.42667316535862 147.96376181161125 0.6023768392599034
1.9536993476783804 12.57775058260632 47.19804591506831 155.63001938028975 0.6170087970193414
1.9683214437725431 12.533837886653552 43.369135182610584 163.76443795638386 0.63232531120046
1.9820451947424516 12.487864686731307 39.904467052648386 172.40065743652846 0.6483675819562638
1.9948402258617406 12.439810166241532 36.76896513227681 181.57822283865843 0.6651897295919602
2.006678189890147 12.389661143402353 33.92645373485447 191.33891893584618 0.6828455393477927
2.017542467806496 12.337426842800825 31.350007502867722 201.72872289055036 0.7013941701109434
2.027386251292749 12.283070200664069 29.011348405907476 212.79775706022352 0.7208989892117065
2.036203758270198 12.22662937439924 26.888211099022197 224.60097044760082 0.7414287028337514
2.04395782378078 12.168062739720302 24.958388811483857 237.199926631996 0.7630619109180369
2.0506276664388716 12.107385231964109 23.201941940763952 250.66100031125455 0.7858797812406653
2.0562050522208253 12.044645174244888 21.60658357229052 265.0574558998797 0.8099712073021638
2.060670772342414 11.979845075458226 20.155544262722515 280.4711589366997 0.8354365141118901
2.0639913958265725 11.912991998868042 18.833039315218826 296.9911386584012 0.862380638789597
2.066159012740778 11.84410670135469 17.62934024393545 314.71789793069405 0.8909247611177393
2.0671643537397597 11.77324618284756 16.532487739711357 333.7609594724252 0.921195457987599
