M[M_sun], R[km], Lambda[1], P_c[MeV/fm^3], rho_c[fm^-3]
0.24162668629717493 15.618656898711224 2160425.4255784233 3.5677272577965504 0.1711233750220791
0.25364373681369096 15.27731467988198 1723191.8610645775 3.784814723534453 0.17388811219550987
0.26603947627848545 14.981274263897646 1383040.6146558814 4.011391222360617 0.17666653711043415
0.27881407976492456 14.723545178565475 1116388.7092544385 4.247712998244744 0.17945733773166891
0.2919675047370528 14.498466110858121 905893.8071922886 4.494405128905627 0.1822670783619236
0.3055039562157778 14.301211664161467 738636.1105395672 4.751622353790751 0.18509144831702307
0.3194194212074801 14.128156527738277 605117.3736566348 5.020048395836628 0.1879370979738381
0.3337171698785167 13.976010102863516 497713.7405197675 5.299905302182625 0.19080061109904278
0.348397285885175 13.8420580156831 411024.4933066415 5.591924027977176 0.193688331706389
0.3634590053114131 13.72402151709021 340671.06802452146 5.896268899920042 0.19659526828313167
0.3789124841246703 13.62003020043658 283328.4822820742 6.213805212556725 0.19952912714393134
0.3947442015485558 13.528468573597426 236412.08404743025 6.544792207213718 0.2024861191696234
0.41096799924789745 13.447902758672683 197880.98778946124 6.889928638780021 0.20546989405205968
0.42757554871053904 13.377087888589674 166096.5973189377 7.249921196456994 0.2084835547790044
0.44457004637174863 13.314965867847995 139813.54852329832 7.62503154493167 0.21152269120409498
0.46195115494629996 13.260586691272641 117992.37413168697 8.016203295686417 0.21459338209076967
0.4797154597072366 13.21316640408183 99820.99714550794 8.424143869229864 0.217697314598337
0.497871514586492 13.171996248962486 84652.43371407532 8.849297869014123 0.22083201094747543
0.5164101381148425 13.136406226500032 71943.98902600238 9.292531103582332 0.2240007734030663
0.5353265520098908 13.105858705959598 61283.36252186927 9.754731808452016 0.2272065722536561
0.5546322777517846 13.079836758870929 52305.71525164532 10.236709467430643 0.23045075826808406
0.5743136273677256 13.057853516287155 44734.03536378223 10.738940279399456 0.23373009257460792
0.5943670932372479 13.039579487590608 38331.965471818934 11.262658864687097 0.23705063717753994
0.6148057590515619 13.024513733456002 32905.272682808805 11.808807463395143 0.24041406830147752
0.6356070743564483 13.012436429237397 28064.570994350524 12.378364950753138 0.2438220186634141
0.6567774857649213 13.003039395294815 24373.70010117047 12.97202732773718 0.2472725184162719
0.6783090052450857 12.995981795874776 21030.46710367259 13.591107332430079 0.2507701965496372
0.7001959833579178 12.991061489748928 18174.7668600415 14.236809154525371 0.25431776595927125
0.7224295247629366 12.987992997922705 15732.065166465722 14.910322312146564 0.2579172109414299
0.745016264996224 12.986641264687082 13636.019855420465 15.612684648240092 0.26156851092471123
0.7679349635337429 12.986762613973426 11837.967063780648 16.345145891607192 0.26527339765781816
0.7911788718987972 12.988134927764401 10290.267403653674 17.109329687960802 0.2690366410641848
0.8147526982528017 12.990661361539894 8957.63756288145 17.90669085881704 0.2728606732806509
0.8386338416102925 12.99412545901736 7808.487549072698 18.738602403956726 0.27674664536892285
0.862814302161571 12.998394927367913 6815.52663151999 19.60639318481165 0.2806949001071295
0.8872881157805227 13.003338428073931 5956.069015622246 20.512156129418877 0.2847118646326072
0.9120471867594141 13.00884162056588 5211.978224692128 21.45768505980257 0.28880055168586455
0.9370669189071067 13.014728508803827 4566.074787089577 22.44447374461689 0.29296096175632946
0.9623426666392032 13.020942017902241 4005.1240308816296 23.47452790865862 0.2971967381145873
0.9878679857611616 13.027324804426325 3517.059081667317 24.55027883268852 0.30151405641749923
1.0136089760621765 13.033781634250305 3092.3457666233226 25.673679932509426 0.30591463229409704
1.0395714503673463 13.040233616046253 2721.8601312486066 26.84666965089791 0.3103995585328692
1.0657212873765787 13.046566710843642 2398.720483527028 28.07235508367165 0.31497765072521633
1.0920523500087342 13.052691278752569 2116.1798030484874 29.352803295354576 0.3196494392137479
1.1185492128623447 13.058529240220114 1868.9284921885032 30.69074502382207 0.32441943976012344
1.1451788737405912 13.06399209854344 1652.3425719488255 32.08960563604214 0.32929588398081744
1.171941771061425 13.068995630675749 1462.366549687732 33.55129675533266 0.33427627973767465
1.1987963865179487 13.07345444286358 1295.6346070246616 35.080373939028576 0.33937428477970555
1.2257400874306366 13.077325737619269 1149.2773580849541 36.678876887432786 0.34458676279702505
1.2527360715031675 13.08049366603434 1020.343575010593 38.351832860592964 0.3499280002172484
1.2797767511136409 13.082935480655072 906.8647768577075 40.10148875913763 0.3553946255680386
1.3068192980967133 13.084524574702947 806.8905178276673 41.93332695239027 0.3610012647526044
1.3338550068308124 13.085239608178222 718.7277238609463 43.85079387677381 0.36674964304570434
1.3608620772987523 13.085037791622709 640.7394837636228 45.858627821228765 0.3726477946435065
1.3877922133971183 13.083777695473348 571.9173908638061 47.96213562411712 0.37870553446186406
1.4146490814360497 13.081491599543126 510.91571622413596 50.166041542056725 0.3849283533079722
1.4413719617148522 13.078039513528077 456.9654419067598 52.47562444589389 0.3913235334344766
1.467965852425932 13.073443932249923 409.0927635376486 54.897268843284685 0.3979026069843993
1.494373797916044 13.067583832721873 366.60641172502625 57.43716246603313 0.404674631398663
1.5205854625272368 13.0604411948254 328.90257903837465 60.101930963797386 0.4116493739113962
1.546567909306716 13.051956353256278 295.3453220348301 62.89867732423452 0.41883736998753296
1.5722841071649147 13.04208075724944 265.51822434203774 65.83502506708123 0.4262499865307127
1.5977078773143232 13.030755455691688 238.97181404222096 68.9191655952489 0.4338994904198349
1.6227949078653658 13.017940735094436 215.28540374050766 72.15991013363248 0.4417991230010007
1.6475475519776124 13.003604558903241 194.14136121478305 75.56674674032544 0.4499631812373191
1.671895712042943 12.987674603237052 175.27242028421094 79.14964472558657 0.45840602800453994
1.6958331602308403 12.97013228247396 158.39823324828384 82.91872302439046 0.46714063820944274
1.7192983816157716 12.950893437055074 143.31681531935774 86.88674831353573 0.4761886981107108
1.7422993467934673 12.929992221875816 129.80626273551275 91.06534076805823 0.4855647287979577
1.764780249369039 12.907349656900339 117.70545367833353 95.46849277792926 0.49529027506284884
1.7867082092844382 12.882918565476796 106.84921674300165 100.10996411172421 0.5053832320344657
1.8080468728529329 12.856669725129045 97.10654752997418 105.00622676375919 0.5158691035125718
1.8287587403811887 12.828541584381181 88.34914755521659 110.17381544633184 0.526770417687013
1.8488382703588797 12.7985837582131 80.48191795848261 115.63030360875389 0.5381103526022479
1.8682271696727528 12.766683524472775 73.39838394329665 121.39599356100496 0.5499186033557454
1.8868975966033186 12.732838872078453 67.02140077661875 127.49224971584547 0.5622247707337493
1.9048215588771298 12.697032111175659 61.26933622588772 133.94155784302183 0.5750583311384528
1.9219655027034497 12.6592244822497 56.086789468471146 140.76947502452484 0.5884551562762064
1.9382815563334013 12.619343616293477 51.403294113614834 148.00373013699442 0.6024537203223261
1.9537805616608972 12.577509068562646 47.17283542938635 155.67288727689095 0.6170900359745377
1.9683986763364552 12.53359127538127 43.34836163698886 163.81050474806185 0.6324114244024981
1.9821166169711801 12.487600864047858 39.88796982484525 172.45026764196797 0.6484591817763402
1.9949097314881292 12.439533004987043 36.75367960944096 181.63159586376213 0.6652869492972455
2.006748278398233 12.38938323570627 33.909838940248314 191.39640130849781 0.6829488760985059
2.0175990698346573 12.337119649280504 31.334734623765918 201.7906968670025 0.7015041678059173
2.0274384675408665 12.282744613698727 28.998255141245245 212.86448852782863 0.7210157319218647
2.0362534740242406 12.226289067528166 26.875904808970432 224.67307692621915 0.741553340598655
2.0440015803599265 12.167705687989692 24.94779379722018 237.27775934250008 0.763194622839281
2.0506646079137507 12.107012714337863 23.192304127773273 250.74528852885396 0.7860218691864936
2.0562409759327296 12.044278353990068 21.59722433153073 265.14866230129024 0.8101229800530911
2.0606927352381246 11.979439340251918 20.145908483154052 280.56979722206086 0.8355983038577423
2.0640026856230644 11.912554816286478 18.825028451970038 297.0981529449998 0.862554021108826
2.0661695223892287 11.843665973070099 17.62240588314231 314.83414734512223 0.8911108535657388
2.0671660475930462 11.772786699025522 16.52671329892115 333.88721057534826 0.921394861519799
