M[M_sun], R[km], Lambda[1], P_c[MeV/fm^3], rho_c[fm^-3]
0.24162668629717493 15.618656898711224 2160425.4255784233 3.5677272577965504 0.1711233750220791
0.25363936084973554 15.277448309368395 1723268.630148436 3.784754949436982 0.17388736714022088
0.2660322447690302 14.98142196816698 1383146.3110254551 4.011265566776713 0.17666501863685952
0.27880325853304194 14.723738192128724 1116730.8284648815 4.247517211593046 0.1794550669015534
0.29195362745916564 14.498654714386307 906122.7954097068 4.494134075191469 0.18226406011590818
0.3054844306808822 14.30149501633936 738851.7420613973 4.751266831339916 0.18508760799602927
0.31939582228569074 14.128440521498952 605270.182527436 5.019605787468129 0.18793250574118375
0.3336904997772212 13.976194282167299 497878.93520065845 5.299363957435641 0.19079516065569402
0.348365704664168 13.842266640834605 411175.07198423997 5.591282596984023 0.19368212568507864
0.36342159697974363 13.724294826177779 335889.8342827007 5.895512974684443 0.1965881684733481
0.37886951509476274 13.620307387358373 283459.62263549067 6.212925647878425 0.19952110657313005
0.39469743665112317 13.528715641338435 236552.00709505548 6.543789918033416 0.2024773304475385
0.4109151740324216 13.448139739659977 197987.79328339727 6.888784279491896 0.20546014820815026
0.42751666992358683 13.377313110753725 166210.35880404306 7.248624031658558 0.2084728236670618
0.4445086953874418 13.315129104212248 139905.8770769051 7.623585161441324 0.2115111770614903
0.46187935103941286 13.260814780083217 118072.92921392016 8.014582469819535 0.2145808436923079
0.4796372622450061 13.213371683942508 99886.8105710737 8.422335965808895 0.21768372169201394
0.49778722883050314 13.172178433777658 84715.08743977711 8.847309555362331 0.2208176147070954
0.516317718140445 13.136579395605914 72001.39861209168 9.290330208807617 0.2239852789666425
0.5352278017026276 13.10600689828331 61331.25732469625 9.752303414470571 0.22718994618303529
0.5545252902634739 13.079980812983987 52353.47205595171 10.234037749875748 0.23043296567140886
0.5741983144161462 13.057963278976585 44772.859197693186 10.736036847526542 0.23371145164261317
0.5942505433241112 13.039657776752989 38030.97290231404 11.259480064073024 0.23703077597377867
0.6146782464769498 13.02459227107345 32936.95366552066 11.805334521083491 0.24039294701774638
0.6354705912193627 13.012507553763674 28323.900942594206 12.374577922840853 0.24379959539013676
0.6566342339034731 13.003089355381125 24398.4192834238 12.967943604467465 0.24724917752867173
0.6781558595093846 12.996047018176384 21051.564210897195 13.586668936851908 0.25074548475217534
0.7000353547736067 12.991083099295114 18194.150518497216 14.231992296305346 0.2542916342683408
0.7222598649656795 12.98800723164293 15748.86164650117 14.905101672695237 0.2578896074527158
0.7448370101205455 12.986656201631014 13651.169059207978 15.607084209455143 0.26153988519656046
0.7677484625563197 12.986755258818578 11850.570062487403 16.339089829979343 0.26524320970951604
0.7909836545550802 12.988117585496079 10302.551835820603 17.10278761933384 0.2690048291997822
0.814547475870464 12.990638184382375 8968.8275428247 17.899630385017197 0.2728271718373187
0.8384189010529337 12.994099683147901 7817.496301989676 18.731054837043356 0.2767119682041719
0.8625906034822323 12.998355767111212 6823.9850395806225 19.59826041348378 0.2806584134912518
0.8870545931921909 13.003302007710989 5963.9022919433855 20.50339902405756 0.28467348963910327
0.9118052205962297 13.008788090630913 5218.424863593122 21.448261811842034 0.2887602040669475
0.9368148927227217 13.014672096599421 4571.91407563412 22.434423601325115 0.29291921918277924
0.9620829966071714 13.02087964924282 4010.5663654070686 23.463724783247272 0.2971528634123705
0.9875974510365689 13.027254784367697 3521.8516536326742 24.538671893650918 0.3014679475587755
1.0133341400736822 13.033725699482796 3096.910387021388 25.66131409999195 0.3058669101648872
1.0392811235279753 13.040177060172423 2725.728779582318 26.833393795087495 0.3103494047401948
1.065426435572092 13.046499986081766 2402.0138238034738 28.058107083177983 0.3149249411758848
1.0917449882160075 13.052627280700047 2119.1213160904463 29.33763363642411 0.31959483775581626
1.1182333131889266 13.058467747775273 1871.63190855867 30.674472653329637 0.3243620379187881
1.1448547832907563 13.063919275344881 1654.799408110582 32.07224579104069 0.32923612243467226
1.1716083252664111 13.068942405877301 1464.5499039143267 33.53272203757482 0.33421368102369725
1.1984545945683718 13.07340030524934 1297.6385878274555 35.06045885366357 0.3393084309913953
1.2253906609897476 13.077285025338876 1151.01597135392 36.65767921119035 0.3445183823747967
1.252377963040749 13.080455416441863 1021.9476546790952 38.32910878800826 0.3498560153369121
1.2794106458293264 13.082901110329944 908.337928202335 40.07729751068793 0.3553197859271091
1.3064462341863818 13.084505744520497 808.2169429674489 41.90756856648784 0.360923393249643
1.3334750333479832 13.085227258399785 719.9014840058773 43.82317966573354 0.36666755932947437
1.360475432747652 13.085042422626458 641.8044127121309 45.829215628153584 0.3725622679813883
1.3874008247074259 13.083804533354687 572.8692977198347 47.930799867094514 0.37861634278197526
1.4142491261942922 13.081529870798214 511.7808738231116 50.13243874836893 0.3848341945769546
1.4409744457180669 13.07811796666948 457.7326492830191 52.43980794119007 0.3912251947318446
1.4675570166670353 13.073527476542825 409.7942097986913 54.85908009711026 0.39779980974779394
1.493961822031722 13.067681171371682 367.2369141246824 57.39643010976105 0.40456707553654964
1.5201690186350885 13.060566738627244 329.46865392856745 60.05846964149067 0.4115367360355918
1.5461490310902013 13.05210576206864 295.8688533096606 62.85228642887625 0.41871930147060643
1.571862782843983 13.042254185222458 266.0072453556221 65.78548734940972 0.42612611136947326
1.5972787419493386 13.030952364904543 239.38762002587828 68.86624563088306 0.43376940288391563
1.6223706908009026 13.018172002792225 215.65989451233625 72.10335263241298 0.44166238504304184
1.6471220909394817 13.003865725889352 194.48537235803389 75.5062746798059 0.449819319638429
1.6714758708258994 12.987972039271904 175.58527256371914 79.0852154988898 0.45825560952427924
1.6954111760932082 12.97046355107512 158.69287620785244 82.84982366414745 0.46698230768027177
1.7188757316197845 12.951248975384072 143.57371309171148 86.81296690767927 0.4760216195275882
1.741596616753224 12.930456893533265 130.18448793042603 91.01697087233926 0.5593753465478368
1.7603879865195424 12.906627147309585 119.49871746189473 95.66995704894367 0.7210723540997128
1.775167176587136 12.877276928575956 110.84828459408962 100.82599032754119 0.8758470335156576
1.786535828426173 12.841906485134988 103.6276100815 106.49696899786686 1.024638806814399
1.79508771810386 12.800501532612913 97.40100608504257 112.69935437380974 1.1679772168948097
1.8011460382668687 12.75298315814439 91.93305844939573 119.45052302091985 1.306503122439952
1.8051448754128974 12.69973878225742 87.02570238707405 126.76989062468014 1.4409364902656148
1.8074186141352324 12.641092761599944 82.53522362841059 134.67984071512905 1.572028581808708
1.8082430725875112 12.577362557376743 78.35470725692537 143.20595736749723 1.7004773099967803
