M[M_sun], R[km], Lambda[1], P_c[MeV/fm^3], rho_c[fm^-3]
0.24162668629717493 15.618656898711224 2160425.4255784233 3.5677272577965504 0.1711233750220791
0.2536446103093513 15.277279988691534 1723311.3197099557 3.7848307029892925 0.1738883113717057
0.2660404456766018 14.981255747576304 1382975.4167118063 4.011424814440227 0.17666694305089153
0.278817026866824 14.723462447300221 1116507.4816578194 4.2477653395000265 0.1794579448113536
0.2919716660758983 14.498402130203285 905924.5973612143 4.494477592892114 0.18226788526523116
0.30550746039388965 14.3011985935168 738617.7958459863 4.751717401089142 0.1850924750092462
0.31942515228223395 14.128086141832577 605095.6158929182 5.020166726672561 0.1879383257019324
0.3337220029505929 13.975992976080459 497668.87222900445 5.300050031987575 0.19080206828802845
0.34840588181349824 13.841986464166679 410981.28317249473 5.592095518190645 0.19368999092137965
0.36346946282280873 13.723949236861992 340649.1912023864 5.89647100342784 0.1965971664820466
0.3789237040877788 13.619968022026697 283279.04546758835 6.214040375211126 0.1995312715441852
0.394756348228908 13.528422090364913 236394.42084581888 6.5450601849402865 0.20248846897226522
0.41098259187623354 13.447829900767765 197843.84728097043 6.890234605021354 0.20547249978896462
0.4275915618416348 13.377021784803778 166070.68574850098 7.2502680224917455 0.208486423981906
0.4445881396123428 13.314884610408525 139785.43791219438 7.625418272246861 0.21152576980218876
0.46196979249203396 13.260539881103748 117970.03340376023 8.01663666991885 0.21459673459082554
0.4797355397588989 13.21312273694236 99804.87601766767 8.424627269916444 0.2177009490957183
0.4978941354036677 13.171951577390471 84631.5391494085 8.849829513846219 0.22083586028321417
0.5164329810111881 13.13637628972037 71930.65938265907 9.293119596473288 0.22400491642970688
0.5353527752698612 13.105826521938072 61269.021869354416 9.755381139713835 0.22721101791918555
0.5546603912243361 13.07978382834461 52298.76128621227 10.237423869851318 0.23045551590951646
0.5743442504864253 13.05782300155867 44321.68344876735 10.739716648934706 0.2337350771075134
0.5944015532814237 13.03951029772375 38322.33794990363 11.263508877153955 0.23705594807081495
0.6148404838125974 13.024483945168441 32896.84952413104 11.809736140486157 0.2404197162076544
0.6356465454251745 13.012418282496164 28288.07520627906 12.379377627461107 0.24382801479734562
0.6568171989042754 13.003005730953891 24367.29413101736 12.973119353675532 0.2472787599887292
0.6783499821992272 12.995985951098065 21024.351276030164 13.59229421508912 0.25077680479429787
0.7002390805400568 12.99106138904455 18169.336359882247 14.238097258067176 0.25432475398385146
0.7224752265125113 12.988003545637692 15726.45433700317 14.911718409654872 0.2579245926352192
0.7450637788869926 12.986639264798804 13631.86010381602 15.614182325923712 0.26157616605958106
0.7679852849424122 12.986765202983225 11834.45421050836 16.34676543180145 0.2652814706594918
0.7912322950390445 12.988131958756284 10218.4461192089 17.11107921918233 0.2690451484420741
0.8148061331440996 12.990667959294914 8954.631092998761 17.90857904850884 0.27286963260572644
0.838691098635532 12.994138417092946 7806.2403830748635 18.740620877112693 0.2767559192086884
0.862871173192947 12.99841752215278 6812.729398556114 19.608568187353878 0.28070465797183414
0.8873555336749087 13.003365855518307 5954.256918160371 20.514498130072308 0.28472212764260346
0.912112258778787 13.008859493249053 5210.191487423158 21.460205244186277 0.288811342385583
0.93713354114589 13.01474260773732 4564.440616431605 22.447161614352066 0.2929721256369684
0.9624184565030501 13.020958368425068 4003.797810553259 23.477417195736624 0.29720847236790193
0.9879400801879716 13.027339415971644 3515.920210745833 24.553383137340695 0.3015263883461997
1.0136838994919222 13.033796116605242 3091.503516448897 25.676987238118347 0.30592739582339296
1.039648628985013 13.040255646183766 2720.888020432385 26.85022039132749 0.31041297259083195
1.0658013508909028 13.046582079063576 2397.650842571257 28.076165880562172 0.31499174851997586
1.0921344556639105 13.052710198113738 2115.2366317492547 29.356860642231595 0.31966404317128144
1.1186339981386044 13.05854385435677 1868.025216282295 30.69509736295374 0.32443479291843497
1.1452656449215919 13.06400943654932 1651.7187077772064 32.09423876192944 0.32931180294502166
1.1720295506620275 13.06901680257297 1461.7160718150617 33.55626501584306 0.3342930232878438
1.198885341414201 13.07347307280775 1295.0926657501382 35.085700784243166 0.3393918992127192
1.2258345468742333 13.07733462855484 1148.8084513604892 36.68454685883293 0.3446050532470692
1.2528303427258083 13.080497409537355 1019.930360744128 38.357878310864386 0.3499470621451832
1.2798749634645132 13.082941959331091 906.4958294717379 40.10795961391532 0.3554146442309478
1.3069199183876818 13.084522962015804 806.6017834391007 41.940217074892814 0.3610220946367786
1.333956857774984 13.08523755400399 718.4408257140616 43.85818051939373 0.366771599967661
1.3609660035701165 13.085034904344994 640.4570810323722 45.86649550602694 0.37267067280215543
1.3878976531372664 13.083770885494813 571.6728349959716 47.97051795742638 0.37872939328833827
1.4147482931219149 13.081460547962912 510.7183359838041 50.175030442138684 0.3849535411965991
1.4414786109516742 13.07802727686402 456.77077338579454 52.485205642668056 0.39134983981105426
1.4680757162734848 13.073420475622182 408.915250731266 54.90748476271389 0.39793010640220966
1.4944840816275724 13.067556108022178 366.43116002465723 57.44805897071191 0.40470340417446116
1.5206967896697723 13.060408004860966 328.7623323800852 60.11355766065095 0.4116795065987306
1.546680436406381 13.051917099941237 295.21254577690263 62.911087902920315 0.41886895589697304
1.5723965954187544 13.042032842101898 265.39580381862964 65.84827767251385 0.42628312630202175
1.5978107301858662 13.030695496784459 238.8577251537816 68.93332323808227 0.43393429265170874
1.622908194757307 13.017876531583276 215.176079185773 72.17504114300655 0.4418357049446696
1.6476604322069373 13.003534874489567 194.04668627135854 75.5829252637189 0.4500016695610684
1.672009184396125 12.987597093850969 175.18502426718445 79.1668667993037 0.4584462069054887
1.6959454877975255 12.970042615594808 158.32413772871527 82.93715668290558 0.46718299870302293
1.7194266485244427 12.950827302740548 143.24244631303443 86.9064884518371 0.47623339981163054
1.742405895775645 12.929871023966617 129.75468875783355 91.08639560270227 0.48561156805503464
1.764890447425801 12.907230831296655 117.64912168622354 95.49106514534958 0.4953398038771337
1.7868165282486421 12.882790333496512 106.79873945926721 100.1340736665598 0.5054352594078375
1.808154719342434 12.856529384096666 97.05647100255469 105.03199853057546 0.5159238299134259
1.828864020717169 12.828390062181727 88.30771713062808 110.2013857969275 0.5268280599561813
1.8489426349298657 12.798418655647893 80.44319410694914 115.65993406127716 0.5381715588924779
1.8683183922944167 12.76647644955822 73.36677753116948 121.42773802757343 0.5499832234566295
1.8869983257828513 12.732650122241623 66.99253438222269 127.5262369513082 0.5622929053894128
1.9049183937512346 12.69683052044693 61.23922354898009 133.97795671056133 0.5751301938047239
1.9220586634861787 12.659007781133178 56.060103972089394 140.80857018268506 0.5885313285114397
1.93837225202015 12.619114553466483 51.37970582342486 148.04575571490702 0.6025345586123438
1.9538661018669243 12.577266825423049 47.15032086083578 155.71796199991942 0.6171754570867201
1.968480563742076 12.533328665590844 43.32729644563417 163.8589017769928 0.6325018304547485
1.9821950736062097 12.48732122337845 39.86918178117311 172.5024326116071 0.648555498689179
1.994982032306374 12.439241417830369 36.7353404633663 181.68771788223128 0.665389176332063
2.0068166136238514 12.389076386938816 33.89532332474603 191.45684483781028 0.683057536156062
2.0176618922368985 12.336795354028036 31.319446145851146 201.85586395210555 0.7016198329537723
2.0274960370060304 12.28240606300554 28.983993836645677 212.93465881073624 0.721138490633657
2.0363041286470196 12.225933861032352 26.86332485907235 224.74889992125253 0.7416844024506597
2.0440467613974316 12.16733206577245 24.93628362430506 237.35960445285465 0.7633341762708554
2.0507038730311784 12.106619497503937 23.182149430709504 250.83374708690815 0.7861707112466756
2.0562748080993543 12.043866356162704 21.588949640381838 265.24457245194475 0.8102825801160426
2.0607186556448003 11.979011202296325 20.136828701175567 280.6735235310252 0.8357684391465307
2.0640216952605868 11.912110091017169 18.81731762280743 297.21068851026513 0.8627363488888038
2.066180130065603 11.843201539335901 17.614672623791943 314.9563958673395 0.8913065494053749
2.0671696290591868 11.772302407352567 16.520296354390243 334.0199783765272 0.9216045576563441
