M[M_sun], R[km], Lambda[1], P_c[MeV/fm^3], rho_c[fm^-3]
0.24162668629717493 15.618656898711224 2160425.4255784233 3.5677272577965504 0.1711233750220791
0.25363890133948774 15.27744641699382 1723365.5937188917 3.7847427847567596 0.17388721551335035
0.26603056817184145 14.981466672325597 1383260.290792589 4.011239994840867 0.17666470961510633
0.27880145700898107 14.72378734527199 1116633.3573796817 4.247477367932038 0.17945460477512884
0.2919511238678517 14.49869175169364 906143.8820783977 4.494078914969236 0.1822634458940316
0.30548045117600936 14.301569731259754 738952.3080382345 4.751194482414366 0.18508682648955332
0.3193915419166287 14.128476960609119 605294.9061724313 5.019515717628354 0.18793157123183232
0.3336831680811429 13.97630930110776 497904.7256077579 5.299253796339999 0.19079405151625123
0.3483592591977653 13.842371221353469 411218.53254340676 5.5911520703377535 0.19368086280386934
0.36341459856134073 13.724345753194502 340859.7148581976 5.895359151159973 0.19658672373025377
0.3788603610893797 13.620381398167128 283484.8246379455 6.212746667093191 0.1995194744838756
0.3946861615385908 13.528787032281068 236562.609306055 6.543585966561712 0.2024755420686566
0.41090430423967955 13.448189711332432 198013.82053354653 6.888551421569317 0.20545816509236656
0.427504941893529 13.377353521562096 166227.1893934915 7.248360083507739 0.2084706400916542
0.44449124052955746 13.315247521566471 139922.13812362697 7.623290853274582 0.2115088341792435
0.46186529679563654 13.260834539016226 118087.14654795558 8.014252670199587 0.21457829242561607
0.4796210965680642 13.213411148211094 99911.68690110801 8.421968104615168 0.21768095589009762
0.49776903793999794 13.172220832349957 84725.13593683824 8.846904989519661 0.22081468547753677
0.5162990055859925 13.136610812787952 72017.28277981748 9.289882393822667 0.22398212632123046
0.5352082831002476 13.106030701996099 61344.59526287672 9.751809315976121 0.2271865633232007
0.554504365564392 13.07998720433302 52361.6506461445 10.233494149209795 0.2304293455030329
0.5741760015900503 13.057984012471124 44781.76101971556 10.735446106913495 0.23370765890488887
0.5942277956166875 13.039662793384608 38374.665372824435 11.258833303442911 0.23702673500165775
0.6146517972504763 13.02461288324281 32946.167492536784 11.804627922177945 0.2403886497174664
0.6354432369485984 13.012522346133977 28331.648960336897 12.373807429296285 0.24379503324068647
0.6566047865061474 13.00308777546405 24209.72059833984 12.967112754347262 0.24724442873009078
0.6781257697008125 12.99603041429962 21056.898864403294 13.585765937333864 0.2507404570927869
0.7000032817386989 12.991101220547348 18061.89798461565 14.231012308885708 0.25428631778876093
0.7222251095597592 12.988018323540132 15751.752486112884 14.904039548122132 0.25788399159972686
0.7448022373845558 12.986659468553212 13654.652587060524 15.605944826360219 0.26153406142596186
0.7677099365242126 12.986750461323556 11853.098972800204 16.337857766397043 0.2652370681815705
0.7909428272691104 12.98811890309539 10304.55020031835 17.101456696017983 0.26899835737038563
0.8145061882393607 12.990632731130187 8971.126275351366 17.898194013220987 0.2728203563558512
0.8383746462004578 12.99409178834778 7819.539927264611 18.729519385983135 0.2767049136010139
0.8625450968809766 12.998347293145105 6825.712266356796 19.596605929268406 0.280650990864006
0.8870073803438464 13.00329167318279 5965.474895886064 20.501617549288873 0.28466568294044486
0.9117554715207093 13.00877001460207 5219.944175841459 21.446344844453684 0.2887519961677194
0.9367634079499974 13.014664285855545 4573.5008033569065 22.43237912395556 0.292910727587735
0.9620290449820015 13.020861701739989 4011.800200315375 23.461527154006472 0.2971439381870443
0.9875423517358378 13.027241258296266 3522.8720862436935 24.536310776013423 0.3014585679592769
1.0132771098332636 13.033704935555614 3097.8215571661126 25.65879862985792 0.30585720248118775
1.0392237072426591 13.040157030207288 2726.5481537708715 26.830693239168465 0.31033920252622055
1.0653659538925058 13.046492610062026 2402.6888002248256 28.05520880970028 0.3149142192020249
1.0916823910428086 13.052607169369475 2119.724903332889 29.33454791270087 0.3195837310450566
1.118169050449281 13.058452141445613 1872.2450792284933 30.671162662840462 0.3243503617128555
1.1447881981671564 13.063907842922628 1655.2204553769539 32.06869601602019 0.32922384593175485
1.1715401137358317 13.068927934063145 1464.9911312691338 33.52894380726168 0.3342009479979901
1.198388730271692 13.073402380311212 1298.0499966061498 35.05640803409928 0.33929503602927585
1.2253201713392836 13.077267568124212 1151.3989468080351 36.65336755116046 0.3445044736269709
1.2523049387657543 13.080445916679768 1022.2866831812416 38.3244867148999 0.34984137362256396
1.2793368531286422 13.082900062080101 908.6004534254838 40.072377066383694 0.3553045637162461
1.3063711513105183 13.084500855885187 808.4893300735833 41.90232942647164 0.3609075545356478
1.3333978538216942 13.085227823363898 720.1095014875167 43.817563134749264 0.3666508640947332
1.3603974821357194 13.085049200492449 642.0722701792555 45.82323346728292 0.37254487267019154
1.3873214228856336 13.083810231279678 573.0635086722376 47.92442654391473 0.3785982022468521
1.4141610584782143 13.081523757959564 511.95582583775155 50.125604432820715 0.38481504407163136
1.4408927125843431 13.078132784562703 457.8835976875025 52.43252347515141 0.391205194317356
1.4674750566025727 13.07354167567322 409.9242107311703 54.85131325105506 0.3977789027950501
1.493877289786022 13.067701184803282 367.360582540321 57.388146044772434 0.40454520104086117
1.520084373476218 13.060589547068401 329.5899544165409 60.04963067575888 0.41151382825756083
1.5460639117313886 13.052134288115472 295.97946411569467 62.842851780910074 0.41869528954144475
1.571777310874431 13.04228877668028 266.0825647550217 65.77541285536972 0.4261009188569339
1.597192674807894 13.030990542787992 239.4688523157637 68.85548343312833 0.43374294731457114
1.6222846391632457 13.018219853573092 215.74140525062268 72.09185083599829 0.4416345773761419
1.647035853538405 13.003917810279086 194.55882754808857 75.49397697325983 0.4497900636859909
1.6713900134377953 12.98803124863561 175.64989240748446 79.07206073514617 0.45822480131141485
1.6953245189446164 12.970531227094394 158.74901033334132 82.83581254168342 0.46695011016165644
1.718790613566566 12.951323632055846 143.63686436716026 86.79796321715865 0.4759876435505152
1.741805321526327 12.930495452193735 130.09584578711153 90.97064409326208 0.48535406355312927
1.7642870243301463 12.907889454452246 117.96749002040049 95.36697278861715 0.495067517537986
1.7862154411481093 12.883499149645552 107.08407653348245 100.0015324273056 0.5051492411636658
1.8075599335283257 12.857294818331678 97.31334209831334 104.89032140412512 0.5156229782384416
1.8282898391226543 12.829244529556616 88.54982287717004 110.04938608848238 0.5265095552944933
1.8483699350457976 12.799316006823481 80.65707352967723 115.49704959445182 0.5378350957911251
1.8677690177787372 12.767474530394903 73.56232902998951 121.25323518609707 0.5496279996195409
1.8864508987733561 12.733692707003309 67.1696118150006 127.33918593321486 0.561917572943327
1.9043878818185107 12.69793980052524 61.40725511351459 133.7778743821228 0.5747351691633746
1.921529593867574 12.66013257327923 56.20845158673779 140.59367028610114 0.5881126217905939
1.9378846068996682 12.62040689089153 51.51861820997502 147.81475195344203 0.6020902113840122
1.953392778256634 12.578616936062094 47.27570262162292 155.47020201761828 0.6167059271191355
1.9680298716106344 12.534757874426818 43.44524893144855 163.59234338647764 0.632003075471432
1.9817691294167183 12.488840542461338 39.974548671132176 172.21571074151598 0.6480260981055765
1.9945795584890076 12.44084006505362 36.83323358402152 181.37925209268914 0.6648273016192916
2.0064365402620625 12.39075219697236 33.98420574481937 191.12463301203178 0.6824603149725784
2.017322846434816 12.338594525844588 31.40512093737545 201.49769758661216 0.7009841229852202
2.0271807582618404 12.284276192480862 29.060734398820493 212.5489322286264 0.7204635789937757
2.036008352634285 12.227861601711268 26.932234817754463 224.3321844225507 0.7409640997905645
2.0437970358245177 12.169395537514788 25.000132510526278 236.9098014146358 0.7625672207710813
2.0504895803556256 12.108782819247152 23.242056436390342 250.34681225276867 0.7853501311927816
2.055668808075402 12.047197747855437 21.691890670059525 264.92384357735216 0.9853266633870787
2.057981928873408 11.985258816795424 20.431589645105415 281.19082497618854 1.2405378525158477
