M[M_sun], R[km], Lambda[1], P_c[MeV/fm^3], rho_c[fm^-3]
0.24162668629717493 15.618656898711224 2160425.4255784233 3.5677272577965504 0.1711233750220791
0.25364586143850604 15.277232934209524 1723079.8324787838 3.784862603265126 0.17388870899325476
0.26604395703190586 14.981190651553389 1382986.9387095417 4.011491875940938 0.17666775344955063
0.278822799759611 14.723382636191056 1116282.951768297 4.247869831796936 0.17945915676453122
0.29197961592978366 14.498243105955932 905683.7846169603 4.494622258745467 0.18226949615308344
0.30551760059733496 14.301060281932523 738523.2424609507 4.75190715350264 0.1850945246974599
0.3194371143219497 14.127962745751907 605002.4401390352 5.020402964250761 0.18794077675798554
0.3337386839472226 13.975783019740977 497563.8396911383 5.300338975303933 0.19080497746778052
0.34842304120626527 13.841841578145877 410891.39420751244 5.5924378895278535 0.19369330345825023
0.36348939162241095 13.723787244531646 340556.10384979344 5.8968744959159345 0.19660095616888287
0.3789448930444511 13.619854048800851 283208.9312161536 6.214509872916437 0.1995355527979456
0.3947825582968606 13.528272508266816 236320.8565353673 6.545595201262618 0.20249316034264042
0.4110110724227193 13.447699467343384 197783.86025459826 6.890845470093186 0.20547770217225592
0.42762309999451387 13.37689999685944 166014.72301651063 7.250960470070811 0.20849215242326852
0.444622356150727 13.314777194323185 139746.38069755517 7.62619038927114 0.21153191635017163
0.46200580297338983 13.260417031869116 117921.32460617129 8.017501926153873 0.21460342804733307
0.4797772497524099 13.213046320261387 99761.01850397192 8.425592414263756 0.21770820563196303
0.4979367702531952 13.171882563286825 84601.21163451913 8.850890988319602 0.2208435458119346
0.5164820182319289 13.13629016997901 71899.70936754905 9.294294581929078 0.22401318840056744
0.5354051269390537 13.105740637603674 61245.57561186269 9.756677604973696 0.22721989420661362
0.5547166671267474 13.0797357949804 52274.38190135427 10.238839059988086 0.23046487105438643
0.5744047338570151 13.057770431127638 44704.219556288175 10.741266782701091 0.23374502944646494
0.5944657846993335 13.03944567698899 38302.5845672372 11.26520606240801 0.23706655211499505
0.6149086368262299 13.024444613747137 32879.94075560402 11.811590406105315 0.24043099323639275
0.6357175850112482 13.012395457317373 28272.978582336465 12.381399628114785 0.2438399872132545
0.6568938171625147 13.002978797663442 24354.3288106288 12.975299803837814 0.24729122254772115
0.6784307549012112 12.995954017259862 21012.528728101977 13.594664083528762 0.25078999958684406
0.7003258400729178 12.991044773163022 18159.489422446815 14.240669255152719 0.2543387071935669
0.722564882015015 12.988003744007075 15717.918516379728 14.914506062566904 0.2579393320069788
0.7451589657444516 12.98665053198811 13623.79848132995 15.617172827216521 0.261591451518512
0.7680853476791801 12.98675382440818 11827.184244779659 16.3499992873517 0.26529759061833086
0.791337118034929 12.98814632586727 10281.569417896302 17.11457266364299 0.2690621358795067
0.8149158329043585 12.990693354669114 8948.804547022779 17.912349393062044 0.2728875226210389
0.8388042344803712 12.99415716806214 7801.220117110823 18.744651397011832 0.276774437362178
0.8629922001885957 12.998433824245792 6808.431672366753 19.612911300553865 0.2807241427817043
0.8874781466710485 13.003395912721063 5950.2464055312075 20.519174745931878 0.2847426212984209
0.9122422008852387 13.008888997703636 5206.64502146814 21.465237704142947 0.2888328899217825
0.9372688233774437 13.01477944603099 4561.615686234363 22.452528952119962 0.2929944185023576
0.9625577562315429 13.020995260113642 4000.8518564996393 23.483186783236626 0.2972319043770509
0.9880845844022647 13.027377682518273 3513.3373739765407 24.559582139535923 0.3015510140391168
1.0138330025004576 13.033838323284508 3089.2285932894906 25.683591655665335 0.30595288354264577
1.0398015406518037 13.040298343644555 2719.0133840066023 26.85731098427036 0.31043975957417025
1.0659605017977152 13.046624392912294 2396.1124700879163 28.083775849732945 0.31501990110500677
1.0922984568474925 13.052747614407657 2113.718812825715 29.364963011681574 0.3196932067264212
1.118802171401461 13.058580757513074 1866.5595888735288 30.703788891495943 0.3244654528485646
1.1454404652713974 13.06403768988052 1650.3366527318965 32.103491076722776 0.32934359298733523
1.17220781408006 13.06904637165252 1460.5319541442602 33.566186674061456 0.3343264602990056
1.1990690689064265 13.073495397228337 1294.160575095642 35.09633862848418 0.33942707567969815
1.226020762285586 13.077360082100176 1147.8278042550414 36.69587001234082 0.34464157998749917
1.2530221649861446 13.08051851256038 1019.1293157418327 38.3699327383305 0.3499850203816576
1.2800689671176524 13.08295426172217 905.7400427374798 40.120882365094175 0.355454622905883
1.3071249473256255 13.084556967330494 805.8865422765911 41.95397723184657 0.36106369367590446
1.3341606640721484 13.085241383138136 717.7703849524053 43.87293240106784 0.3668154501891079
1.3611727017670991 13.085023414016744 639.921984748667 45.882208194777704 0.3727163631666352
1.3881138253639995 13.083774492700282 571.1218571019376 47.98725858608974 0.3787770425215067
1.4149606863730457 13.08143932460684 510.2382865670229 50.192982633035214 0.3850038452138635
1.441692758305246 13.077994723924373 456.31355334861956 52.50434088969762 0.39140237803003997
1.4682926257449527 13.073379319996562 408.54200726113646 54.92788782010327 0.39798502776329203
1.4947046048447619 13.067499936020607 366.10198258192094 57.46982145914586 0.40476086913400366
1.5209181667353693 13.060338496805791 328.46905742197015 60.1367786821697 0.41173968807501937
1.5469037742178633 13.051840636159122 294.9593733878159 62.935874717187104 0.41893204030992115
1.5726093959288452 13.041942534217235 265.17884811676214 66.25817295936827 0.427286114450012
