M[M_sun], R[km], Lambda[1], P_c[MeV/fm^3], rho_c[fm^-3]
0.24162668629717493 15.618656898711224 2160425.4255784233 3.5677272577965504 0.1711233750220791
0.25364478186359146 15.277312188149356 1723081.305038946 3.784851002754226 0.17388856439848266
0.2660428983944811 14.981204401588617 1382875.1537268944 4.011467488984726 0.17666745874757703
0.2788198736475361 14.723433190766949 1116349.0248971242 4.2478318329688705 0.17945871603538868
0.29197761653583043 14.498260061528235 905770.4298339911 4.4945696505366275 0.18226891034846826
0.30551463784754584 14.301102101120524 738558.5215761273 4.751838149168704 0.18509377931895665
0.3194328277048931 14.12801429789222 605003.4447508841 5.020317055078821 0.18793988541716877
0.333734307900936 13.975807715651811 497586.1851138476 5.300233899011133 0.1908039195238651
0.3484168046047196 13.84189420268049 410924.0009257897 5.59231338334408 0.19369209882667177
0.36348273136339987 13.723831632098943 340597.95341142605 5.896727762009685 0.1965995780129832
0.3789376612921842 13.619884868815689 283230.66848726646 6.21433913499465 0.19953399587368076
0.3947730121737784 13.528334735345895 236355.63110010687 6.545400636176409 0.20249145426967893
0.41100061162503987 13.447745672734111 197805.9236966995 6.89062332095384 0.205475810256964
0.4276116343353051 13.376937298529352 166036.87784378955 7.250708651534045 0.2084900691930494
0.4446100862173183 13.31481127037845 139757.96613496915 7.625909596951583 0.2115296810627591
0.46199202620545965 13.26046245456456 117939.27999067097 8.017187261281405 0.21460099386014891
0.4797620406857838 13.213084651269597 99776.73841586191 8.42524142226185 0.21770556666278654
0.49792165106949937 13.171908209532258 84612.23943646424 8.850504963033195 0.2208407508239251
0.5164642542543301 13.136326651433743 71912.49950409871 9.293867274843546 0.2240101801320458
0.5353862091901834 13.10576889887735 61251.49123814189 9.756206117795282 0.22721666615581748
0.5546967795327051 13.07975534069861 52283.68821596741 10.238325363531992 0.23046148130679708
0.5743822541333319 13.057786434984404 44710.84679708364 10.740703040204783 0.23374141004501306
0.5944420815748825 13.039482004311699 37977.90494769256 11.264588839223569 0.2370626956933692
0.6148840390639222 13.024460724842664 32886.79256103275 11.810916054634864 0.24042689205432183
0.6356912439981813 13.012402231592077 28278.39149169313 12.380664273139056 0.24383563312187767
0.6568660283535149 13.00298825601193 24358.96906416414 12.974506822311312 0.24728669019049304
0.6784007262587867 12.995962286267831 21017.073019537915 13.593802212033914 0.25078520091726997
0.7002936387668771 12.99104579633547 18162.874995063026 14.23973387074156 0.2543336326874849
0.7225320200560831 12.988003421583747 15720.56116108596 14.913492245185946 0.2579339715723244
0.7451243116693416 12.986638348988489 13626.75735532149 15.616085234807553 0.2615858924675459
0.7680485901470694 12.986754695395526 11829.341007255105 16.348823187573554 0.2652917280559128
0.7912991522061891 12.988142144703783 10284.317355877425 17.113302151628236 0.26905595780981045
0.8148756988471636 12.990688393833633 8950.912376788923 17.91097817236344 0.27288101627687095
0.8387648084532311 12.994146609706526 7803.184040214187 18.743185550413457 0.27676770255550787
0.8629488110907259 12.998427126619655 6809.992690846018 19.611331762849698 0.280717056392188
0.8874345786203367 13.003390922448135 5951.875562219343 20.517473911857834 0.2847351679797899
0.9121949178697543 13.008875345055914 5207.951844485559 21.46340744751845 0.2888250532929349
0.9372193444580035 13.014765183764075 4562.699942751065 22.45057689856017 0.2929863107832009
0.9625071392456541 13.020984152285884 4001.9761075194924 23.48108842810355 0.2972233823333734
0.9880317852738967 13.027365609025049 3514.2980542161745 24.557327602090172 0.301542057832124
1.0137790509713474 13.033819553773057 3090.0968152810283 25.681189664822902 0.30594361379738755
1.0397462587887025 13.040280226490358 2719.5480293762066 26.854732165429137 0.31043001726095487
1.065902568223329 13.046607272909178 2396.7161037370606 28.081008126576158 0.3150096620935515
1.0922380168085744 13.052740099162126 2114.251148855493 29.362016195929147 0.31968259999906656
1.118741093566451 13.058573006620529 1867.0672896383335 30.700627788855872 0.3244543018541674
1.145375747474494 13.064034780876163 1650.7875967695825 32.10012600711097 0.32933203093959507
1.1721432036303896 13.069037182354448 1461.1017845863664 33.562578151358736 0.33431429920544314
1.1990028424902124 13.073487011062602 1294.45085309471 35.092469614023166 0.33941428189776773
1.2259532884154858 13.077356828835452 1148.1646791510618 36.691751736965514 0.34462829506863374
1.252951893155368 13.080508655774358 1019.4136161088566 38.36554848282016 0.349971214781359
1.2799990138547486 13.082950940586647 905.995125968393 40.11618227855842 0.3554400824083388
1.307052887510186 13.084552974108991 806.1377557589284 41.94897256030234 0.36104856379562184
1.3340863503532154 13.085241455751959 717.9901867545209 43.86756701149224 0.366799501476514
1.3610965431116355 13.085029141992953 640.1073660648094 45.87649333321028 0.3726997451255024
1.3880386147883346 13.083775695134431 571.3175379151226 47.98116983301945 0.3787597119647764
1.4148836618500185 13.081449646190201 510.3988039249263 50.1864531953634 0.3849855490099482
1.4416165972548731 13.078004451323485 456.50057890724156 52.497381136468036 0.3913832691552657
1.4682125002613144 13.073400009707083 408.6744610217128 54.920466921564135 0.39796505203904414
1.494624731656319 13.067519578598397 366.2265463748912 57.461906087667984 0.40473996819231584
1.5208375004420251 13.06036555645331 328.5708839546154 60.128332788542274 0.41171779901442546
1.546822425517059 13.051866515424207 295.03988197251334 62.92685928458458 0.41890909531718906
1.5725408037997233 13.041974790279534 265.2408198344975 65.86511921441942 0.4263252406507875
1.5979543879233165 13.03062741152227 238.70848647557912 68.95131503221647 0.43397851997109066
1.6230625233593392 13.017810055798478 215.04091091997137 72.19427004250659 0.44188219427667225
1.6478055379372787 13.003444006216206 193.9191148769012 75.60348551840242 0.4500505819197171
1.6721531118570077 12.987496451327655 175.08282016147385 79.18875336806018 0.45849726801999896
1.696089970331092 12.96993397448616 158.22672128057073 82.9605831613379 0.46723683268223143
1.70695827328561 12.950507805497978 149.8586690569391 88.13785857498021 1.6688127898009233
