M[M_sun], R[km], Lambda[1], P_c[MeV/fm^3], rho_c[fm^-3]
0.24162668629717493 15.618656898711224 2160425.4255784233 3.5677272577965504 0.1711233750220791
0.25364338455905666 15.277282976289754 1723084.4828437474 3.784808398118782 0.17388803335225503
0.26603800695005253 14.981323513352866 1383132.7066599494 4.011377925099845 0.17666637642088523
0.2788124261467751 14.723583958410618 1116466.196442737 4.247692279297957 0.17945709742310897
0.29196641596968065 14.498491324476536 905989.9796166241 4.4943764446189585 0.18226675895573427
0.30550097257909264 14.301289892669548 738667.6719811592 4.751584730231706 0.18509104191077974
0.31941749572218797 14.128175595803098 605134.2622689969 5.020001555889908 0.1879366119913123
0.3337137599967613 13.976030219655536 497720.95762846747 5.2998480127202106 0.19080003428921669
0.34839368997942477 13.842086066257473 411026.3348565347 5.591856145991821 0.193687674929507
0.36345496683686734 13.724062787471324 340663.9757417612 5.89618890039749 0.1965945169106862
0.3789080390732586 13.620049360095171 283331.67924117955 6.213712127437669 0.19952827831972733
0.39473854679242 13.528512210505417 236420.4592653592 6.54468613317456 0.202485189043599
0.41096229774654874 13.44793120228955 197890.5931970318 6.889807528136198 0.20546886262299477
0.427568706258855 13.377140879448804 166100.29703957256 7.249783912782417 0.20848241906634743
0.4445629177137813 13.315008749785349 139823.63095840422 7.62487846769187 0.21152147261083784
0.4619432502685757 13.260613091343885 117993.62488438652 8.016031754942428 0.2145920550844302
0.47970680063156224 13.213192618083436 99823.59091234293 8.423952527408732 0.21769587597533305
0.49786277206340807 13.172048763143634 84659.04599107536 8.849087431645334 0.22083048729101243
0.5163988026713818 13.136444213639441 71950.20037847852 9.29229816525939 0.22399913350275077
0.5353149222130951 13.105891995194535 61287.1753576954 9.75447478988501 0.2272048125684985
0.5546214778438182 13.079849797064284 52310.53460841263 10.236426693369511 0.23044887510314743
0.5743016526945104 13.05786596061029 44738.18319111129 10.738632978507983 0.23372811960769474
0.5943565172604179 13.039548297621367 38336.85519696302 11.262322415789077 0.23704853503873663
0.6147915494335072 13.024524622651313 32908.6308070503 11.80843987903166 0.24041183277524658
0.6355941816916055 13.012433649915977 28300.49537844907 12.377964119477868 0.24381964531169037
0.6567632017311064 13.003049056524167 24376.246941340658 12.971595090222818 0.24727004792388715
0.6782933421952704 12.995987590953895 21032.48003171731 13.590637551073844 0.2507675809329077
0.7001796129616848 12.991061445530041 18040.491469961962 14.236299310592578 0.2543150000310529
0.7224113584962977 12.988001894631266 15733.778976790338 14.909769725075538 0.2579142892052861
0.7449978241247157 12.98664088370298 13637.85009117344 15.61209185659549 0.2615654809670383
0.7679154803516978 12.9867538726424 11838.331331314008 16.344504868135264 0.2652702023165848
0.7911588703634636 12.98812882320162 10291.808160394383 17.108637215702053 0.2690332738060813
0.8147315900852944 12.99065425745249 8958.896461166882 17.905943507539998 0.2728571271522795
0.8386114245636189 12.994123979931265 7809.8005135062 18.737803488375796 0.2767429747651985
0.8627894024212036 12.998400821580114 6816.383897828811 19.60553231763321 0.28069103793902034
0.8872627235585144 13.003333879842943 5956.744025450411 20.511229167584943 0.2847078025421232
0.9120217961862148 13.008830666134084 5212.764051467592 21.456687576560103 0.28879628075147845
0.9370397496529288 13.014724832021507 4566.578008671324 22.443409894971843 0.29295654313056807
0.9623155249024706 13.020926371564459 4005.5717044315534 23.473384342839253 0.29719209375400835
0.9878395395959598 13.027313499867716 3517.672553805553 24.549050168417036 0.3015091755176229
1.0135795398904976 13.033773324819157 3093.1898231649334 25.6723709255831 0.3059095805842678
1.0395409512786573 13.040229445225739 2722.303572128653 26.84526429945844 0.3103942493681919
1.065690449682822 13.046555672055115 2399.018426247129 28.070846809808327 0.31497207096434815
1.0920191193326536 13.052687829586365 2116.3553944036435 29.351197444401887 0.3196436591363157
1.1185158018492036 13.058519693307682 1869.1996519768504 30.689022424868355 0.3244133631806926
1.1451447695866441 13.06398403359607 1652.5162776920276 32.08777191099842 0.32928958348218185
1.171905828379099 13.068999031478768 1462.6531207727917 33.549330396390246 0.33426965290529864
1.1987592236414393 13.073449542132076 1295.8533308221688 35.07826566617815 0.33936731329294323
1.225703915374972 13.077324534414949 1149.4584108981387 36.67663281836078 0.34457952377757317
1.2526977218251956 13.080489835036753 1020.5012369521924 38.34942717812838 0.34992037954257865
1.2797358241061163 13.082928968829496 903.1106707234737 40.09892773402582 0.35538670261192584
1.306779961405109 13.084522009586022 807.0587970616314 41.93059999924367 0.3609930207601107
1.333814837559768 13.0852384446232 718.8137248835069 43.84787042449533 0.3667409530336345
1.360821958905109 13.085034450672202 640.8600389719057 45.855513994997004 0.3726387400598059
1.3877510687253989 13.083781020942371 571.9835985065532 47.95881812498804 0.37869609178843067
1.4146063352651321 13.081495929738429 511.01198399529227 50.162483995845704 0.38491838467143924
1.441328784626066 13.078044878449758 457.0559317217783 52.47183249967627 0.39131312217088254
1.4679220962063935 13.07345313606859 409.16998894191323 54.89322570823241 0.3978917235919805
1.494330283078532 13.06759245940784 366.6756795127776 57.432849993474214 0.404663244095144
1.520541144051046 13.060453941631348 328.96525394247055 60.097329523472375 0.41163744844672234
1.5465236121757355 13.051972604127664 295.4028887921518 62.893765670406424 0.41882486943804664
1.572239689446169 13.042098228813934 265.57365981262893 65.82978019114591 0.4262368710727807
1.597663137400557 13.030778518280886 239.01467201432675 68.9135625633283 0.4338857170806998
1.6227462633459413 13.017970241413728 215.30901752616933 72.15392190744643 0.44178464538436596
1.6475011432404614 13.003633428961608 194.17718428332697 75.56034397943021 0.449947949220884
1.6718511725004634 12.987706937746593 175.30764129437657 79.14282899789453 0.4583901269898114
1.6957885047272516 12.970166584815791 158.4264313278436 82.91142783893277 0.467123873894508
1.7192537553958325 12.950927243502493 143.3388548833942 86.87893612073373 0.4761710073376862
1.742256263423278 12.930034169111424 129.82917825363052 91.05700831599124 0.485546192159174
1.7647362698973166 12.907395508301814 117.72738281231571 95.45955980624757 0.4952706741283436
1.7866643621863758 12.882970756550817 106.86419594565658 100.10042284251823 0.5053626423894554
1.8080039463302895 12.856725536204928 97.1252024010005 104.99602772598897 0.5158474458344886
1.8287159964590285 12.828601708568625 88.36683902822543 110.1629046793689 0.5267476061756423
1.8487974075140317 12.798647656024995 80.49744474582971 115.61857763553942 0.5380861307879091
1.86818518850662 12.76675343391344 73.4108727142247 121.38343104867096 0.5498930306842805
1.8868586619258592 12.732914596103408 67.03569568503616 127.47878014177002 0.5621977374060555
1.904783579420303 12.697111460599533 61.28179421357758 133.92715354437533 0.5750298925804296
1.9219289967743762 12.659310197011854 56.09716146382192 140.7540037941663 0.5884250124360564
1.938245470950981 12.619433863275777 51.41349157962935 147.98709933744144 0.6024217301519521
1.953756679941654 12.57764249549698 47.18162074541254 155.65504993042055 0.6170562324174327
1.9683664810520896 12.533693992556156 43.35661939698007 163.79135277428406 0.6323756483563172
1.9820867190079288 12.487709143989997 39.89615098928113 172.42962472320917 0.6484210668839021
1.9948810985174323 12.43964938670652 36.76081105309707 181.6093871758377 0.6652464958642503
2.0067150731529484 12.389491753168437 33.916895459815684 191.37248265033801 0.6829058772398708
2.0175739296998 12.337247805944338 31.340656199989905 201.76490916923052 0.7014583971861187
2.0274161204020125 12.282879222603336 29.003333129815655 212.83672114709503 0.720967154550541
2.036231697984519 12.22643047189243 26.879675354640117 224.64307288923834 0.7415014779064388
2.0439829647775483 12.167854662367265 24.9516492105997 237.2453724947061 0.7631394002886857
2.0506495207165276 12.107168492862952 23.197148298869124 250.7102164805581 0.7859627485773422
2.056222936280026 12.044417922485943 21.601166169895816 265.1107103321962 0.8100598257715558
2.0606830332024817 11.979608618375842 20.14932927510724 280.52875265391395 0.8355309812129418
2.063996077338961 11.912730484791702 18.828384264700063 297.0536228877162 0.8624818744370811
2.0661648690611236 11.843849210402105 17.624958837710338 314.7857742768084 0.8910334177976187
2.067165414890352 11.772976516059833 16.528929929208164 333.8346754961688 0.9213118865587077
