M[M_sun], R[km], Lambda[1], P_c[MeV/fm^3], rho_c[fm^-3]
0.24162668629717493 15.618656898711224 2160425.4255784233 3.5677272577965504 0.1711233750220791
0.2536442420782752 15.277265248954077 1723219.859634012 3.7848234402693 0.17388822084540465
0.2660406375283968 14.981247451607915 1382937.0088973814 4.011409546693676 0.17666675854918487
0.2788161920513863 14.72347470643789 1116456.2960173027 4.247741550133886 0.1794576688905562
0.2919703954441574 14.49840281382979 905837.3776981367 4.494444657591872 0.18226751852301906
0.30550565578821065 14.301239029595946 738653.2896076612 4.751674201475877 0.18509200837097523
0.3194218215877168 14.1281446549142 605096.6357594518 5.020112944461235 0.18793776769073187
0.33371972226063545 13.975953121280897 497686.73855349736 5.299984251156004 0.19080140598420467
0.34840197724339833 13.842019410031497 411001.80425883736 5.5920175744329965 0.1936892367940828
0.36346505808839225 13.723979948932529 340651.7423824774 5.896379145531595 0.19659630373324585
0.37891843659511343 13.61999001656867 283301.0632970336 6.213933491472209 0.1995302968931827
0.39474995265808077 13.528495550007493 236402.1703237135 6.544938386264319 0.20248740096241893
0.4109757487814689 13.447869251305015 197857.38978929073 6.890095539967569 0.20547131545261021
0.4275844959404235 13.377057551522038 166077.7249952237 7.250110385981659 0.20848511989545684
0.44457956114854963 13.31492451446499 139800.89200088868 7.625242499909562 0.2115243705413626
0.46196120181719796 13.260568498728926 117980.71285919423 8.016439695703585 0.21459521083602368
0.47972576716607035 13.213155894387947 99803.1814200539 8.424407557719148 0.21769929716714664
0.4978832738718399 13.171979304812202 84641.07736889216 8.84958787372882 0.2208341107055193
0.5164218788505304 13.13639766209475 71939.14793148085 9.29285211773543 0.224003033362717
0.5353408601699833 13.105842932365109 61275.675279889176 9.755086008626623 0.22720899729554053
0.5546477071776277 13.079805339387596 52298.27621041167 10.237099162469246 0.23045335348502063
0.5743295979081685 13.057840092339388 44729.62698676143 10.739363776084977 0.2337328115545118
0.594387559032681 13.039518264054768 37994.59465610075 11.263122531840148 0.23705353417830285
0.6148245352051765 13.024499655183805 32901.026289690715 11.80931404016844 0.24041714913346385
0.6356293209021465 13.01242926940044 28291.422068203654 12.378917347189464 0.24382528944370305
0.6567993814814492 13.003013515608023 24370.18533101692 12.972623007142772 0.24727592307548443
0.678331357874168 12.995975823137593 21027.310223195585 13.591754753641784 0.2507738012174895
0.7002197856085786 12.991051754318084 18171.928589450825 14.237511788947026 0.2543215777853008
0.7224504784433827 12.988028343001682 15729.0310130925 14.911083854227776 0.2579212375014787
0.7450413614722317 12.986651526805671 13633.496103582562 15.613501599421765 0.2615726866372468
0.7679625824454795 12.986750460362067 11835.675164793029 16.34602931518228 0.2652778013027697
0.7912081812590201 12.988137488262211 10288.512319679605 17.11028401769722 0.26904128164652985
0.8147829842710756 12.990666893083834 8956.072382412172 17.907720822438005 0.2728655603843865
0.8386672733782773 12.994129151538665 7807.303918529465 18.739703433153103 0.2767517040283924
0.8628456040809507 12.998398872537596 6814.31243318493 19.607579595710217 0.28070022278460116
0.8873253854687533 13.003363280173003 5954.92997713934 20.513433632243547 0.2847174628480649
0.9120825342563365 13.00885322863343 5210.970632697939 21.459059755802283 0.28880643773604125
0.9371028998078159 13.014739441203238 4565.169703830843 22.445939907297518 0.29296705136139833
0.962386784543856 13.020948762049242 4004.415830730039 23.476103937385485 0.29720313883553084
0.9879077476089694 13.027333966787404 3516.4628979614317 24.551972145741804 0.30152078314640646
1.0136499609552359 13.033795539893216 3091.816191417644 25.675483975290504 0.30592159444262823
1.039614232982563 13.04024286816212 2721.3707051339143 26.84860647824768 0.310406875517833
1.0657644899389975 13.046577737721634 2398.2461252323815 28.07443376186654 0.31498534065973777
1.092096999030193 13.052701465282846 2115.6879460659675 29.35501645718207 0.3196574052374386
1.1185953408286797 13.058539653746797 1868.5396303536031 30.693119092208555 0.3244278144401926
1.1452263396362423 13.063993628350577 1652.0529055072598 32.09213286251809 0.32930456728206703
1.1719893529878715 13.06900876592204 1461.967966101568 33.55400678394156 0.3342854128135023
1.198845398386759 13.073462610559632 1295.378554549037 35.08327956052487 0.33938389288227805
1.2257903457433879 13.077331530430303 1148.8967525164792 36.681969669931576 0.3445967396346137
1.2527868824771025 13.08049267197427 1020.1316090174425 38.35513469708834 0.3499384227684232
1.2798295629347862 13.082933880799624 906.6635843140866 40.10501838873404 0.3554055450628368
1.306873236694827 13.084523706093568 806.7282003104608 41.937085274078065 0.36101262672844986
1.3339115109889919 13.08523717379103 718.5597693416796 43.85482302740885 0.36676161976511495
1.3609186739694048 13.085036996545295 640.5763849245765 45.8629193584203 0.3726602738506983
1.3878499292056483 13.083774152964121 571.777588796942 47.96670787819663 0.3787185485729301
1.4147068325966652 13.081482118682317 510.7976629769843 50.170944649004355 0.38494209235397303
1.441430112723435 13.078030448194701 456.86393047173857 52.48085062219061 0.39133788255650837
1.4680248054287062 13.073432862404621 408.98594923861805 54.902841229737774 0.39791760684655914
1.49443398046796 13.067568395744189 366.51821126405076 57.44310607787994 0.4046903258085808
1.5206460104855284 13.060422546808343 328.81913069268074 60.10827285852705 0.4116658100783836
1.5466295122698233 13.051933975082852 295.27908924228296 62.90544678615633 0.41885459880632003
1.57234590173706 13.042053308030182 265.45426888127247 65.8422538105028 0.4262680628935125
1.5977699003315333 13.03072724823749 238.91225475367986 68.92688798835631 0.4339184735598045
1.6228566837954737 13.017903685911016 215.22569704075372 72.16816344542075 0.44181907687053157
1.6476089506722684 13.003565960978893 194.0892289110273 75.5755714132204 0.4499841749250063
1.6719575191001301 12.987632489716228 175.22732664749998 79.15903859790215 0.4584279438011793
1.69589392757379 12.97008224846447 158.35107895633516 82.92877774713386 0.46716374393302296
1.7193751293331654 12.950872890464888 143.26968938385244 86.89751564516418 0.47621308081922126
1.742356306672565 12.929928551009443 129.77206664134692 91.07682519041427 0.485590277410436
1.7648406424871483 12.907284216073661 117.67226805858127 95.48080492328369 0.49531729065892494
1.78676665641268 12.882850261119211 106.80852514065145 100.12311470057212 0.5054116104346773
1.808105728968886 12.856593336541419 97.0802551276103 105.0202839877833 0.5158989540572521
1.8288157891079604 12.828459786227668 88.32447930737007 110.18885368611294 0.5268018586461068
1.848895620323223 12.798494757392763 80.45845105195421 115.64646550172428 0.5381437374960842
1.8682726118720643 12.766555904722441 73.382556293745 121.41330851240754 0.5499538502515792
1.8869513042213562 12.732736656114039 67.00629282914629 127.51081493727425 0.5622620309850224
1.9048756482582445 12.696921082984252 61.25413347347757 133.9614114646232 0.5750975283519888
1.9220166013840287 12.659105074725032 56.071420593607314 140.79079928957452 0.5884967040537313
1.9383300475463088 12.61921880028447 51.389873072902404 148.02665274333626 0.6024978130960954
1.9538276486062605 12.577375882792346 47.15860273648996 155.69747298010694 0.6171366283431956
1.9684434732770217 12.533448647879329 43.33636616818058 163.8369025341903 0.632460735686367
1.9821589360565093 12.48744879113006 39.87831562669764 172.4787205648437 0.648511716987452
1.994950424753162 12.439373961670833 36.74466216556262 181.66220706607692 0.6653427080267103
2.0067862188347685 12.38921557490766 33.90241883784956 191.42936957152602 0.6830081435403466
2.017633488337644 12.336943169549969 31.32706689012102 201.82624146943465 0.7015672559690485
2.0274704109962998 12.282558421610492 28.990271283390364 212.9027619900158 0.7210826890541326
2.036281106398792 12.22609777870595 26.868656706647016 224.71443349534545 0.74162482641295
2.0440263582679443 12.167501882523386 24.94099856303026 237.3224004941349 0.7632707401036244
2.0506862959875027 12.106797531146889 23.18623077753427 250.7935367772183 0.786103052611192
2.056259433539134 12.044053348088326 21.592440940033452 265.2009747687211 0.8102100310381865
2.060707013427276 11.979205875742641 20.14155127038757 280.62637274635756 0.8356911008854268
2.064012360728812 11.912310944656262 18.820237756445017 297.15953315673966 0.8626534680500193
2.066174775371319 11.843413091411243 17.618387773085374 314.9008251176899 0.8912175915651112
2.0671689482477893 11.772523970655236 16.523564438244847 333.9596256736357 0.9215092353830668
