M[M_sun], R[km], Lambda[1], P_c[MeV/fm^3], rho_c[fm^-3]
0.24162668629717493 15.618656898711224 2160425.4255784233 3.5677272577965504 0.1711233750220791
0.2536447183867647 15.277264863509512 1723106.2579344139 3.7848479645840274 0.17388852652915682
0.2660426865950517 14.98120344690275 1382811.146284542 4.011461102066002 0.17666738156543355
0.27881961578210096 14.723438184125948 1116329.8120825293 4.247821881141297 0.1794586006091859
0.29197644901446096 14.498318728247321 905804.248098705 4.494555872572998 0.18226875692764555
0.30551326892979214 14.3011271416231 738586.9144004278 4.7518200771466 0.18509358410662693
0.319431419138783 14.128031227339417 605018.9792221958 5.02029455578753 0.1879396519783377
0.3337314985782124 13.97582153877653 497602.56352328963 5.300206379992732 0.19080364245301212
0.3484151684160018 13.841907944491819 410930.19809851225 5.592280775800425 0.19369178333971687
0.3634808469121995 13.723845331603806 340605.78998466476 5.896689333233156 0.19659921708178163
0.37893514443475584 13.619902819777211 283236.2383015578 6.214294419813545 0.19953358812506966
0.39476976974313077 13.528349757029966 236346.97937976022 6.545349680926995 0.20249100746097873
0.4109979402957638 13.447760783215715 197813.55222905063 6.890565141773104 0.2054753147786469
0.4276080373109048 13.376959419932952 166036.5067552136 7.250642702321528 0.2084895236121156
0.4446064804790573 13.314822657871082 139763.05716119893 7.625836059901536 0.21152909566055655
0.4619883713170707 13.260499596311705 117943.9420565564 8.017104853501921 0.2146003563693508
0.47975802639257786 13.21307164290763 99779.58231779444 8.425149500965038 0.2177048755431381
0.4979179809559495 13.17190556438533 84613.48793149261 8.850403867079265 0.22084001884602367
0.5164600630519232 13.136322657125952 71916.45747200443 9.293755367882452 0.22400939230006311
0.5353812751828861 13.105773987637841 61256.197123208054 9.756082640847497 0.22721582076727279
0.5546913418888081 13.079749678465301 52284.364399573504 10.23819083274078 0.2304605935735457
0.5743766616053319 13.057790658197941 44713.4920585702 10.74055540331016 0.23374046217041738
0.5944363072135281 13.039496711283004 38312.5502512682 11.26442719679728 0.23706168574856462
0.6148769694676408 13.024473689698073 32889.43418731375 11.810739451486295 0.2404258180125227
0.6356841986834714 13.012406203128645 28280.03968298697 12.380471694473568 0.24383449284930941
0.6568586627133661 13.003004321172662 24359.452538854337 12.974299152499338 0.2472855032350068
0.6783936416849299 12.995965184963179 21018.862038202882 13.593576501501277 0.2507839442214957
0.7002857110552327 12.991053666426243 18163.611619048726 14.23948890889678 0.2543323037575216
0.7225238078193856 12.987994299730556 15721.723837889149 14.913226743639397 0.2579325677655662
0.7451152675579785 12.98663868233861 13627.381820714078 15.61580041337379 0.26158443664930603
0.768039576374898 12.986751370822912 11829.890196643637 16.348515188312252 0.26529019275684407
0.7912874590507585 12.988149421109977 10284.69437309085 17.11296942827338 0.2690543398888054
0.8148654645734337 12.99067786819073 8951.426405758728 17.91061907611335 0.2728793123908409
0.8387535866882605 12.994141754513908 7803.548501871593 18.742801674188176 0.2767659388428756
0.8629374664401455 12.998423452409636 6810.466844952577 19.61091811413066 0.2807152006112603
0.8874223914552409 13.003383022148967 5952.685242880152 20.517028499129385 0.2847332161121515
0.9121819154469173 13.00886768141744 5208.318318190692 21.462928142863934 0.28882300104920466
0.9372066166268795 13.014764712221004 4563.1084728129845 22.450065698891436 0.29298418755080996
0.9624930641369506 13.020979631818191 4002.081586961763 23.480538916587253 0.29722115060383
0.9880180932708506 13.027360294738944 3514.7436143521563 24.556737191383252 0.30153971241066657
1.013764549047684 13.033818619645617 3090.326983456058 25.68056064072866 0.30594118627226463
1.0397322732192336 13.040274795611186 2719.76980472792 26.85405683593349 0.3104274659877266
1.065886876307646 13.046607854016765 2396.6628587828504 28.08028332943563 0.31500698075376277
1.0922229555302747 13.052733012958566 2114.4240762090567 29.36124450046429 0.3196798223692165
1.1187243697774694 13.058565082327371 1867.1659320936508 30.69979997920815 0.32445138170199433
1.1453584147262466 13.064024085459222 1650.8758750179481 32.099244785656325 0.3293290031494737
1.1721264263969216 13.06902964810912 1461.0838875204608 33.561633178467666 0.33431111454936946
1.1989859735740458 13.073483491217905 1294.5518479185027 35.09145642810375 0.33941093156660757
1.225935801168996 13.077352814469606 1148.283374292991 36.69067327889346 0.34462481612983503
1.2529346340208671 13.08050673721701 1019.5715789889016 38.364400374629156 0.3499675994987307
1.2799795218772423 13.082947399271054 906.0860998428603 40.11495146674356 0.3554362746877713
1.307033160814899 13.084548421364818 806.212787736165 41.9476619896759 0.36104460174206754
1.3340667222031135 13.085239371436673 718.0702678302121 43.86616198367686 0.36679532500721984
1.3610775408785294 13.0850298336081 640.1707980801884 45.87499679299976 0.37269539338985985
1.3880193119268824 13.083777714475362 571.3817315841685 47.979575386218144 0.37875517365448125
1.4148628378820822 13.08145331532915 510.4441766656392 50.184743352465254 0.384980757841719
1.4415955843670667 13.078005989484843 456.5282623148361 52.49555861258935 0.39137826518753555
1.4681917358852856 13.073403720039254 408.7128472009437 54.91852364409161 0.3979598210855789
1.4946036818139117 13.067525769645478 366.2557008074035 57.45983332996415 0.40473449496998865
1.520816359915133 13.06036963510512 328.599459229726 60.12612111137549 0.4117120670531135
1.5468014909829377 13.051872750128206 295.06776574006466 62.9244984717145 0.41890308686074174
1.5725195204518212 13.041981723989764 265.26617770900435 65.862598201684 0.4263189365481003
1.597931928498004 13.030638408432997 238.72906844107226 68.94862182939406 0.4339718995562227
1.6230422294958768 13.01782185180416 215.06784561851074 72.19139164712931 0.4418752352367995
1.647782746229746 13.003457941418764 193.93385288959624 75.60040782060157 0.4500432601495851
1.6721319173604983 12.987512512903946 175.10550231738145 79.18547712272544 0.4584896245771157
1.6960686317237537 12.96994951938883 158.23985456756003 82.95707639134451 0.467228774135
1.7195479317152171 12.950722202019746 143.16581468960675 86.92782011252032 0.47628170552770127
1.7425288256348106 12.92977379205771 129.67360644376888 91.10914809380546 0.4856621839728483
1.7650102864586028 12.907104530374669 117.58269084077955 95.51545770763221 0.4953933266053763
1.7869202392119783 12.882623802616477 106.73849393214162 100.1601275411113 0.5054914825388043
1.8082713162966289 12.856379913127952 97.01085949194821 105.05984885300077 0.5159829701314725
1.8289759034865603 12.828222923280617 88.2641330486265 110.2311799693907 0.5268903516453207
1.8490547684854264 12.798241887381039 80.40458468796488 115.69195476456906 0.5382377026159837
1.8684272461620948 12.76628605533423 73.32573883690543 121.46204353238731 0.5500530568928657
1.8871029109097888 12.732446137289658 66.95536438336954 127.5628894469496 0.5623662624575235
1.9050226310715443 12.696610859015447 61.20774569274169 134.01729268797217 0.5752078552378455
1.922159291304818 12.658774849973842 56.02937808953255 140.8508203639379 0.5886136479314522
1.938467598623564 12.618865918710961 51.35100447754065 148.09117318491468 0.6026219213755637
1.9539616290859914 12.576999442365343 47.12804103777138 155.7666750888426 0.6172677732664784
1.968567583298122 12.533047645505542 43.305689296466674 163.91120576429321 0.632599534737702
1.9764323508407586 12.494045015625904 40.869841999724514 174.05468999277699 1.778243289189568
