M[M_sun], R[km], Lambda[1], P_c[MeV/fm^3], rho_c[fm^-3]
0.24162668629717493 15.618656898711224 2160425.4255784233 3.5677272577965504 0.1711233750220791
0.25364416140029616 15.277278301134446 1723246.1951533298 3.784823120065102 0.1738882168542138
0.2660406680228919 14.981254303995616 1382997.0365815738 4.011408873558868 0.17666675041474797
0.27881575156529254 14.7234910272024 1116412.457524328 4.247740501293553 0.1794576567255889
0.291970265942567 14.498388139238358 905860.4405255389 4.494443205521857 0.18226750235388245
0.30550568121005967 14.301216440667506 738621.1948507689 4.751672296869643 0.1850919877975929
0.31942195037150983 14.128138322619396 605085.1430563364 5.020110573287151 0.18793774308888556
0.33372102160951533 13.975920842302859 497672.3513478128 5.299981350985235 0.1908013767842973
0.3484018051053624 13.842020862323555 411002.7094153665 5.592014138022669 0.19368920354586755
0.36346490848689406 13.723973277787163 340638.3736246107 5.89637509567535 0.19659626569613897
0.37891783579120764 13.620003975090048 283291.8309371152 6.213928779158507 0.19953025392255572
0.3947512866480735 13.528445733117117 236417.0745894785 6.54493301638391 0.20248735387582212
0.4109759514738076 13.447878331499476 197862.61187944486 6.8900894088519005 0.20547126323745635
0.4275840581449397 13.377049570245973 166079.3069935471 7.250103436094217 0.20848506240081915
0.444579062605521 13.314939547853264 139800.92351961968 7.625234750457414 0.21152430885074064
0.4619607782269289 13.260562029659786 117979.26086551696 8.016431011513573 0.21459514365679305
0.47972465217861254 13.213159357532184 99810.09194925141 8.424397871069916 0.2176992243370861
0.49788281779819943 13.17198027506611 84640.0736918642 8.849577220335116 0.22083403357039705
0.5164210410501595 13.136405130319151 71935.00434220368 9.292840325186685 0.22400295034243867
0.5353406220457553 13.10583649322251 61275.50282243402 9.755072996962323 0.22720890821079925
0.5546471604673414 13.079802805048674 52300.10452339377 10.237084846869958 0.2304532581487139
0.5743290620109719 13.057853667305727 44729.06686075822 10.73934821875127 0.23373271167161033
0.5943873350566617 13.039513796782867 38327.613784695575 11.263105498804498 0.23705342775558788
0.6148235366966889 13.024501369026412 32901.34408805432 11.809295430802804 0.24041703595747174
0.6356285157525176 13.01244506852832 28291.767290472868 12.37889705458757 0.24382516928970147
0.6567986483718766 13.003013758489006 24370.03527757774 12.972601124491806 0.2472757980032249
0.6783304032469432 12.995977319059227 21027.3102138044 13.59173097019249 0.2507736687976158
0.7002189904639579 12.991065377980199 18172.109397821332 14.237485977169886 0.2543214377551501
0.7224533363481103 12.987998572173103 15729.529244245967 14.911055878398978 0.25792108958272625
0.7450413718685464 12.986652754132598 13633.927701458479 15.613471588064872 0.2615725332390977
0.767961661797304 12.986754251432155 11836.057990679114 16.345996861866098 0.2652776395311281
0.791206689649907 12.988138837295862 10288.541206017197 17.110248959536765 0.2690411111705672
0.8147803676720221 12.990665869228245 8956.062772870855 17.907682985748846 0.27286538085200185
0.8386624925553468 12.994139771539924 7807.035195716798 18.739662985759058 0.27675151819354477
0.8628450341516231 12.998406802147962 6814.456523635722 19.607536011677254 0.2807000272505323
0.8873253752133587 13.003357969546661 5955.238443862059 20.51338670179165 0.28471725719154795
0.9120813906408345 13.008843721208425 5210.914143383018 21.459009254785922 0.2888062215053136
0.9371020343902076 13.014739593363785 4565.152035890488 22.445886046090287 0.29296682765260745
0.962385536091693 13.02095539735556 4004.401405051912 23.476046040041513 0.297202903697214
0.9879062965914643 13.02733043526981 3516.4638187997307 24.551909939729526 0.3015205360314503
1.0136478125816708 13.033798391791118 3091.9433034637354 25.675417701407312 0.3059213386789494
1.039612039470211 13.040243078677841 2721.3574452090797 26.848535326250133 0.3104066067183986
1.0657629907740627 13.046577534847525 2398.17530632095 28.07435739867765 0.31498505815909683
1.0920951877619403 13.052702270407403 2115.7501194360534 29.354935153454118 0.3196571125939387
1.1185940417268843 13.058538651061054 1868.5518422062335 30.693031877219155 0.32442750678366605
1.1452246038502443 13.063993270962028 1652.0659769261001 32.0920400209274 0.32930424828750593
1.171989756456344 13.06900127281036 1462.0285860891531 33.55390722668581 0.33428507729528567
1.1988448793507605 13.073465257234142 1295.4731978193008 35.08317281769287 0.3393835399126706
1.2257891850255818 13.077333181165798 1149.00500571045 36.68185605129276 0.34459637311847263
1.252786425076296 13.08049676598011 1020.1561830299611 38.3550137415311 0.349938041890969
1.279827210199209 13.082940421979291 906.6667069784065 40.104888721416046 0.35540514391547395
1.3068713752329664 13.084523629003598 806.708081636873 41.93694720516934 0.36101220932522143
1.333908990602935 13.085233528746315 718.5795978257003 43.854675008864774 0.36676117977745243
1.3609179447180162 13.085032749139883 640.6008045885316 45.86276170039985 0.372659815402591
1.3878479016662955 13.08377382408616 571.7933187984441 47.96653990726914 0.37871807047344824
1.4147049765085171 13.081482987330734 510.80639912468814 50.1707645232371 0.38494158762172287
1.4414281917131593 13.078031933726601 456.85743835987404 52.48065862753895 0.39133735541112913
1.4680226449018405 13.073432011915166 409.0022970361611 54.90263651603549 0.39791705579408954
1.4944317107984137 13.067567247541593 366.5165595694824 57.44288772609449 0.4046897492395659
1.5206438899058554 13.060421548018663 328.8223427948942 60.10803987459395 0.4116652062583908
1.5466273646149327 13.051937302133284 295.28474899300716 62.90519809419718 0.41885396586551216
1.5723437122870714 13.042054412420002 265.4522284252928 65.84198824536098 0.4262673988151837
1.597767757803914 13.030728591711545 238.92185014460807 68.92660428737082 0.43391777616776006
1.622854351422124 13.017905242605133 215.2318358839545 72.16786023935386 0.4418183438151891
1.647606527909851 13.003567138180477 194.0957777729559 75.57524721624114 0.44998340366807554
1.6719558793991802 12.987632288924775 175.22831623846628 79.15869348943988 0.4584271386670851
1.6958927936231811 12.970084835359302 158.35385383360426 82.92840835996667 0.46716289508238856
1.7193730755717005 12.95087361924465 143.2750945683203 86.89712007770271 0.4762121850535439
1.7423547287699717 12.929931795723522 129.77576541476108 91.0764032780097 0.4855893388106362
1.7648377921229692 12.90728742571835 117.67181313523955 95.48035260131758 0.4953162981635327
1.786764750647397 12.882853846195195 106.81497085860786 100.12263157518903 0.5054105678710604
1.808103651629145 12.8565960145416 97.08053217768504 105.01976755362936 0.5158978574082437
1.8288136911731492 12.828462151547212 88.32869369220413 110.18830121044697 0.5268007035664521
1.8488937733728266 12.798496492955309 80.46004880309093 115.64587174400303 0.5381425109975222
1.8682705869119787 12.766558663292411 73.38602956108681 121.41267239229273 0.5499525553441375
1.886949256116838 12.732740641402165 67.00598557026228 127.5101328831812 0.5622606621078998
1.9048735227363323 12.696925495081377 61.25632725003042 133.96068207567023 0.5750960883117223
1.9220148260535919 12.659110371164225 56.072768712133865 140.79001587002637 0.5884951776545322
1.9383282991546416 12.619223427900359 51.390517324380205 148.02581060149026 0.6024961931943555
1.9538256522034658 12.577380869453059 47.160245386088775 155.69656973683573 0.6171349166067807
1.9684416004348002 12.533452529657755 43.337164227196965 163.8359327156363 0.6324589240572484
1.9821574326097637 12.487454735235477 39.8783940419707 172.47767524093717 0.6485097869111519
1.9949478087410728 12.439380723437742 36.74465505158453 181.66108244728966 0.6653406595179956
2.0067845517129417 12.38922149042707 33.90367968939476 191.42815835440808 0.6830059661208072
2.017632202836758 12.336949373884805 31.327173112210374 201.8249355974079 0.7015649381750146
2.027468698104688 12.28256570595763 28.990475491762542 212.90135585934198 0.721080229112645
2.0362796729386115 12.226102432087146 26.86849494908712 224.71291409038966 0.7416222000853121
2.044024972387572 12.167509290292047 24.941664298436365 237.32076041242678 0.7632679436136515
2.0506849732413643 12.106805759194918 23.186842548280932 250.79176416903002 0.7861000699867807
2.0562588547855283 12.044061398019336 21.59267181104349 265.19905283841825 0.8102068328345007
2.060707480533327 11.979214119450795 20.14170281798708 280.62429418841197 0.8356876915666159
2.0640126748061625 11.91232008911561 18.820610474379425 297.15727807038604 0.8626498144060575
2.066175294655124 11.843421916808333 17.61829311741492 314.898375393602 0.89121367003867
2.0671699646240453 11.772533635894199 16.523206325410946 333.95696515387186 0.9215050333046206
