M[M_sun], R[km], Lambda[1], P_c[MeV/fm^3], rho_c[fm^-3]
0.24162668629717493 15.618656898711224 2160425.4255784233 3.5677272577965504 0.1711233750220791
0.2536463675631974 15.277215090502263 1723070.0421477463 3.784870729613759 0.1738888102842702
0.26604627025855565 14.981116880891644 1382802.1337043066 4.011508959467923 0.17666795989389225
0.27882402670168616 14.723352388996663 1116276.8562740597 4.2478964507943004 0.17945946550478667
0.2919812878251353 14.498235996243782 905755.9361398317 4.494659112056961 0.1822699065232601
0.30552100983114294 14.300999926007583 738494.1990979199 4.751955492863449 0.1850950468548137
0.31944140884967515 14.127902786542347 604927.6387535484 5.020463146098505 0.18794140116788396
0.3337421929001051 13.975710007583926 497540.7340229421 5.30041258452483 0.19080571859049517
0.34842741357081825 13.8418046544864 410868.509921946 5.592525110273315 0.19369414734295617
0.36349453772990103 13.723780479179934 340515.67886835575 5.896977288269924 0.19660192161642473
0.37895188206327 13.619788521295561 283191.285748428 6.214629481341783 0.19953664348276684
0.39478874646366 13.528233466716044 236311.4042587685 6.545731501940801 0.2024943555154549
0.41101816203518504 13.447667188375098 197778.48173986218 6.8910010950205995 0.20547902753944325
0.42763134155425064 13.37686031043089 166004.59105976566 7.251136880247706 0.20849361181945192
0.444631577742826 13.314738696590265 139724.97866826886 7.626387097454964 0.2115334822737978
0.4620156238391247 13.260389416975832 116596.234679212 8.0177223643542 0.21460513331502923
0.47978769612947564 13.213014958702793 99754.18212409974 8.425838302185692 0.21771005436539098
0.49794922604176023 13.171847870637412 84591.13733846376 8.851161419613168 0.22084550385004642
0.5164944583383146 13.136266464263354 71894.7501613713 9.294593934264412 0.22401529585967064
0.5354193319523071 13.1057156266103 61238.276507988034 9.757007908951364 0.22722215564248482
0.554731228759636 13.079716161355766 52268.66531564384 10.239198934974066 0.23046724577461605
0.5744200815941085 13.057739493463655 44697.1718348887 10.741661719145883 0.23374756506077649
0.5944798030646687 13.039474287143996 38297.87919672383 11.265638466717311 0.23706925378494448
0.6149260476471953 13.02443227134923 32874.40010887732 11.812062833892893 0.2404338663855696
0.6357365866796247 13.012378311929739 28269.396195006797 12.381914794482753 0.2438430375515461
0.6569137197635025 13.00296809622496 24350.858427820116 12.975855342983325 0.24729439778166734
0.6784524311356745 12.995939413359626 21012.4287848073 13.595267886783404 0.25079336140159736
0.7003472873635344 12.991032014667045 18156.350345218078 14.241324561534265 0.254342262262669
0.7225886687695308 12.987981721705351 15715.22611300774 14.915216319269598 0.2579430874018993
0.7451834204590806 12.986649120222154 13525.571100981973 15.61793477091892 0.2615953460693014
0.7681088330892709 12.986777463272343 11825.102088541516 16.350823239942027 0.2653016978153392
0.7913637235818578 12.988153494633247 10279.957647466266 17.1154627623598 0.2690664641281539
0.814927966029014 12.990674214556497 8949.062697626285 17.87070271190402 0.2722329211273665
0.8229715334070093 12.981239814151856 8481.81084672835 19.103212578382884 1.1162967803115265
