M[M_sun], R[km], Lambda[1], P_c[MeV/fm^3], rho_c[fm^-3]
0.24162668629717493 15.618656898711224 2160425.4255784233 3.5677272577965504 0.1711233750220791
0.2536438244723972 15.277304521927798 1723142.1471808213 3.784817013503562 0.1738881407388701
0.2660396113283171 14.981261976941145 1382913.1852529906 4.0113960363313295 0.17666659528442918
0.278814531391885 14.723516689441158 1116472.4298722467 4.247720499079701 0.1794574247300509
0.291968162669849 14.498454221476518 905913.0057338004 4.494415513430946 0.18226719399602315
0.30550456207068577 14.301201543933823 738632.1788581194 4.751635974607194 0.18509159544783638
0.3194206532932196 14.128128083493683 605113.4563674148 5.020065353276663 0.18793727391382342
0.33371802463066685 13.975972166043661 497684.0435594305 5.299926042686231 0.19080081992149936
0.34839851731421767 13.842047619024719 411018.1330134737 5.591948603326206 0.1936885694796513
0.36345958733655637 13.724031469753523 340655.2505357287 5.896297862229633 0.19659554030327245
0.37891419424151673 13.620010486003299 279405.4223427379 6.213838912307428 0.19952943444508062
0.3947458970355409 13.528480379000746 236414.38091696825 6.544830609414525 0.20248645590504563
0.41097013049077524 13.447888151565843 197872.03853243942 6.889972484776158 0.20547026746296204
0.4275776454608928 13.377080517537266 166097.58173708402 7.249970897687392 0.20848396594454616
0.44457262345326665 13.314960421105278 139811.78444865238 7.625086964025473 0.21152313237571602
0.46195389003650694 13.26059565409889 117990.03771709539 8.016265399274605 0.2145938625122329
0.47971784123992034 13.213166234678683 99813.15131141184 8.424213141578315 0.21769783542955637
0.4978747576120657 13.171994258460666 84644.6821486015 8.8493740547035 0.22083256256441816
0.5164123140563179 13.13641654847853 71943.25061209037 9.292615435519972 0.22400136710516477
0.5353302869609288 13.105850988123523 61279.60413422825 9.754824858419664 0.22720720932298882
0.5546356646910985 13.079835141868843 52302.931481657 10.236811841953395 0.23045144004246915
0.5743178334075911 13.057850512597845 44733.230035537905 10.73905153365957 0.2337308068614201
0.5943755479231404 13.039521757585405 38331.183426590025 11.262780671765636 0.2370513982303709
0.6148102186367439 13.024512010172723 32904.868567630285 11.80894054285581 0.24041487764663655
0.6356127147516728 13.012446506183938 28294.336382739966 12.378510067050806 0.24382287790778068
0.6567831706342343 13.00302549724984 24372.621695554215 12.9721838144758 0.24727341283029944
0.6783153659322726 12.99597735357811 21029.295325420633 13.591277411723519 0.25077114350557617
0.7002025195716497 12.991052891122239 18173.714958094835 14.236993738292432 0.2543187673352162
0.7224364519480112 12.988000849522427 15731.422127511687 14.910522370897771 0.2579182687274602
0.7450225758816463 12.986654314906136 13635.380752879164 15.612899262903435 0.2615696078925107
0.7679427313369864 12.986754323161918 11837.56391946302 16.34537796846439 0.2652745545027444
0.7911864658695335 12.988139622519157 10289.920552027499 17.10958039173314 0.26903786015173425
0.8147590092821517 12.990672958434192 8957.111202167665 17.90696143144431 0.27286195712842043
0.8386407046445497 12.994131510672107 7808.266687534051 18.7388916453533 0.2767479742834826
0.8628210569303943 12.998404889045904 6815.29535599561 19.606704855744276 0.2806962983780436
0.887297181103507 13.003338634542107 5956.00738173751 20.512491729918192 0.2847133352860309
0.9120563519619871 13.008843082694996 5211.620432688616 21.458046192616454 0.28880209795199424
0.9370741768389548 13.014733701939912 4565.609765347841 22.44485890541841 0.29296256149502165
0.9623530726943075 13.020928566856107 4005.0108824757244 23.47494193083055 0.2971984195816455
0.9878785297870053 13.027332638248682 3497.6832142885846 24.55072366494477 0.3015158235248815
1.0136197229442112 13.033780038975435 3092.1897360820135 25.674153852992966 0.30591646124451494
1.0395834932568293 13.040233667847431 2721.7472519131943 26.847178453233244 0.3104014806964723
1.0657331228171594 13.046564977813109 2398.6053160424335 28.072901149477296 0.31497967086007905
1.0920647049799803 13.052702041578222 2115.899055616388 29.353384689314666 0.3196515318750265
1.118561809733712 13.05853066815182 1868.8559659390892 30.691368686989485 0.3244216397723589
1.1451914870127502 13.063986529929048 1652.314916980512 32.09026953295479 0.3292981650652181
1.1719537559238262 13.068999253069292 1462.2628286513104 33.55200867317654 0.3342786789742104
1.198808499476556 13.07345756405609 1295.5745336442105 35.08113723778213 0.3393768088017528
1.2257544356043326 13.07732399660555 1149.21310710875 36.679689352118004 0.3445893836823327
1.2527479930091399 13.080496813715222 1020.2126495374911 38.35270383871762 0.34993075928500994
1.2797893813059915 13.082931231555987 906.7586417370256 40.10241598029589 0.3553974940805376
1.3068330181684222 13.08452567037295 806.8432870858555 41.93431424919821 0.36100424950042964
1.3338702443418942 13.085234458101896 718.690624371359 43.85185231804391 0.3667527892805446
1.360878233122021 13.085035535169105 640.7061078206882 45.85975518924338 0.37265107287655164
1.387808001216598 13.083780053750285 571.8644906307261 47.96333673400988 0.3787089532083455
1.4146638210678577 13.081486486354683 510.89563794113553 50.16732956384105 0.3849319624869548
1.441386606473005 13.078037912872423 456.9349479942707 52.4769973349415 0.3913273028734243
1.4679811113628007 13.073440129556888 409.0666286705528 54.89873267834747 0.3979065473651233
1.4943897359489602 13.067577499673996 366.57605975070555 57.43872381823752 0.404678754228712
1.5206010142768185 13.060434278198953 328.87814602461356 60.103596940726874 0.41165369159186516
1.546584011639447 13.051950549986092 295.3310527624494 62.900455618410504 0.4188418958875915
1.5723001775877805 13.042072893256702 265.50124943048354 65.83692400933276 0.4262547350695766
1.597724301831693 13.030747604102794 238.95345900372405 68.9211942135192 0.43390447715698155
1.6228114129014954 13.017932116036643 215.2687004990142 72.16207821784043 0.44180436473553436
1.647562171710847 13.0035947173904 194.1147872593778 75.56906491397547 0.4499686961174957
1.6719128205249996 12.987662769415063 175.25870173957216 79.1521124208983 0.45841178510946995
1.695850058196971 12.970120375618082 158.38606497566556 82.92136431635375 0.46714670789068163
1.7193299197573721 12.950912273415792 143.3009745254374 86.88957679809815 0.47619510323660375
1.742315802218057 12.929974467618383 129.79355746592557 91.06835762258211 0.4855714401888091
1.7647957950357274 12.907331237035187 117.69616874457503 95.47172706324704 0.4952973718070169
1.786722945129802 12.882902306187429 106.83703322578937 100.11341864397012 0.5053906867651817
1.808062127447826 12.856650381854138 97.09823040477926 105.00991945549947 0.5158769449512224
1.8287744136101565 12.828519497259949 88.34531413999792 110.17776583578784 0.5267786769005313
1.8488540390304444 12.798560143908695 80.47934268868705 115.63454916353926 0.5381191224534062
1.8682414413502024 12.766656023922783 73.3909389670514 121.40054200531479 0.5499278623215412
1.8869110536913312 12.732812868274454 67.01725346159948 127.49712658495312 0.5622345585711351
1.904835595565684 12.697003245657688 61.26514566442217 133.94677315302386 0.5750686277797362
1.9219789530594864 12.659192931469933 56.08301627222083 140.77507664625332 0.5884660703655226
1.9382935586365297 12.619312371943582 51.39915256449484 148.00975161352838 0.6024653029320264
1.9537927270588142 12.577474326221497 47.169443836826424 155.67934561812146 0.6171022751776586
1.9684105301828816 12.533553835409366 43.34526450626555 163.81743908888168 0.6324243778087779
1.9821278702901421 12.487559970143748 39.885306741291814 172.45774182601883 0.6484729820399797
1.994918614432356 12.439492693516902 36.749779991500816 181.63963698409958 0.6653015963094366
2.006758464988441 12.389338217858796 33.90772351034004 191.40506157954565 0.6829644447716329
2.017607656200465 12.337074039941916 31.33158706762655 201.80003388713592 0.701520740095633
2.0274466168070484 12.282696084526949 28.99500321099424 212.8745423601652 0.7210333205000359
2.036259527131994 12.226238786821973 26.873721209793633 224.68394062079378 0.7415721187533552
2.044007793233686 12.167652846471531 24.946080072163213 237.28948582129772 0.7632146175628436
2.0506707332100054 12.106956069676626 23.191473117400346 250.75796250653855 0.7860431946635392
2.0562451299943496 12.044219384009414 21.5958281657012 265.16240384903006 0.8101458467868973
2.060696107130849 11.979378235350968 20.143954494493666 280.5846585691209 0.8356226799258689
2.0640056644889624 11.912489282847371 18.82307544772655 297.114276359458 0.8625801439292596
2.0661698470139656 11.843600098940206 17.621258354988786 314.85166228810795 0.8911388915445347
2.067167624540662 11.77271809469025 16.525759217915144 333.9062325584893 0.921424905222705
