M[M_sun], R[km], Lambda[1], P_c[MeV/fm^3], rho_c[fm^-3]
0.24162668629717493 15.618656898711224 2160425.4255784233 3.5677272577965504 0.1711233750220791
0.25364136733491205 15.2773803940068 1723279.8735039395 3.7847887363367496 0.17388778827762713
0.2660364437394502 14.98133361932492 1383000.2357067051 4.011336592390124 0.17666587693948113
0.27880903877056706 14.72364141609001 1116470.2657229032 4.247627877599077 0.17945635046045325
0.2919621899401343 14.498543799946816 906056.5550863574 4.494287284279824 0.18226576613466497
0.30549478526795326 14.301379133085666 738811.365506877 4.751467784193442 0.18508977867037163
0.3194094481482171 14.12828271399741 605185.5731749043 5.019855963015153 0.18793510140904301
0.3337055187445768 13.97609333397494 497785.2944299964 5.299669940363107 0.1907982413960561
0.34838371212952773 13.842169216475392 411093.82819625735 5.591645149875938 0.1936856334840428
0.3634429251950294 13.724141373435906 340721.4827572555 5.89594024070253 0.1965921814462091
0.3788947048538658 13.620125845547252 283375.68312495196 6.2134227955166 0.1995256399609855
0.3947234103729919 13.528595832699548 236468.9434213669 6.544356429752499 0.202482297989995
0.4109451907691623 13.448026466388713 197930.36123860744 6.889431088981662 0.20546565670918818
0.42754920710659644 13.37719596417329 166129.54809403387 7.249357206034338 0.20847888903077613
0.4445425702351826 13.31503597168282 139852.04301606794 7.6244026730219305 0.21151768497933016
0.46191987934424267 13.260678519931192 118024.62383313724 8.015498574256291 0.21458793050076483
0.47968076523141334 13.21327114031128 99850.91918247398 8.423357803769264 0.21769140448497262
0.497834163928119 13.172086691532012 84675.5669594218 8.848433358135301 0.22082575151933567
0.5163695218869957 13.136485999731537 71968.87699857337 9.291574158126892 0.2239940364474014
0.5352841670865344 13.10592052550694 61304.8949042905 9.753675941049815 0.22719934322651744
0.5545857080715126 13.079884527993757 52322.109853350514 10.235547796554737 0.2304430219932198
0.5742638263520955 13.05790668932121 44751.90770524116 10.737677852639813 0.23372198740376013
0.5943186097096143 13.039574354356924 38348.19011491671 11.26127669888945 0.23704200138062415
0.6147505057457459 13.024544049084774 32919.531563378936 11.807297394637443 0.2404048845639366
0.6355480179506892 13.01246082045366 28308.603689063322 12.376718305840324 0.2438122687566994
0.6567152634888226 13.003048464635752 24384.745413931225 12.970251668240607 0.24726236947473293
0.6782427559698406 12.99601149346391 21039.652122361298 13.589177446332817 0.2507594514608951
0.7001255841859204 12.991073686430816 18182.892729201303 14.234714695717795 0.2543064034180201
0.7223560207939791 12.988012249507568 15739.20994518365 14.908052269829717 0.25790520837200176
0.7449391418033982 12.986646007497669 13545.954413798636 15.610249450660502 0.2615560638100148
0.7678542854802567 12.986744971797101 11761.311141535738 16.342512564998678 0.26526027118513584
0.7910942832093557 12.988114522294744 10226.609228241625 17.106485018327515 0.2690228083990441
0.8146637984208972 12.990647827938277 8962.40612749817 17.90362075617974 0.27284610586315977
0.8385406887633432 12.994115431807097 7812.319202631388 18.7353204845873 0.276731566647531
0.8627171174960231 12.99838460355926 6819.381325349995 19.602856781276937 0.2806790344947622
0.8871869133816147 13.003331979201077 5959.799187481484 20.508348223921992 0.2846951778002948
0.9119413215560753 13.008814109615738 5214.914755314553 21.453587469327676 0.28878300699005993
0.9369566242147191 13.014701994978415 4568.468044870887 22.44010353680666 0.29294281040110476
0.9622306242067459 13.020899729811921 4007.5612273986817 23.469830248208034 0.29717765951968655
0.9877498330812283 13.027295154187469 3519.3720206060457 24.545231611981716 0.30149400620565925
1.013487947814709 13.033752122069721 3094.2363383028787 25.66830268674732 0.305893880467102
1.0394459889746388 13.04020252759893 2723.594324648063 26.840896651999888 0.31037774918257377
1.0655953805761682 13.046542767190715 2400.09734074366 28.06615931329276 0.3149547298764574
1.091917927338022 13.052662649469427 2117.3847591152607 29.346206709949655 0.31962569555661424
1.118412256625073 13.058501393529339 1870.1005224694345 30.68366887943317 0.3243944782022689
1.1450380068186596 13.063959182153313 1653.34973486546 32.082073024934466 0.32927000267098383
1.1717959165976761 13.068973401115057 1463.3513155983662 33.543219335644345 0.33424905800050825
1.1986466927908204 13.073435974250124 1296.5153312458792 35.07171359449416 0.3393456473681549
1.225588628914882 13.07730542526828 1150.003752383385 36.669658746323094 0.3445570265007427
1.2525788135964768 13.080473404086206 1021.0486891613315 38.34195088219295 0.3498966962760222
1.2796179585489067 13.082922774652635 907.5014059617638 40.09096870012123 0.35536208001996644
1.3066567094280788 13.084513752965893 807.4391108865603 41.922125334946564 0.3609674005660345
1.3336877206056477 13.08523707992542 719.1974035198386 43.8387851359139 0.36671394685740527
1.360694955092673 13.08504030993459 641.2071330063391 45.84583711529575 0.37261060100813936
1.3876216479387893 13.083790564929616 572.3157668313519 47.94850833055633 0.37866674678540396
1.4144747379613145 13.081507394200989 511.27733494659884 50.15142826310716 0.38488740528993887
1.4412033783469338 13.07808559937965 457.29764115929606 52.46004837575675 0.39128076738172923
1.4677873438663596 13.073480513398295 409.39011375790807 54.880661026484944 0.39785790172842506
1.494193914875885 13.06762573105005 366.8793389963522 57.41944836228259 0.40462785640514853
1.5204044108506585 13.06049317854175 329.14987566144816 60.08302994803734 0.4116003885112114
1.5463849406633408 13.052022416292079 295.5704809089077 62.87850213679916 0.4187860225315114
1.5721005405611053 13.042155787350737 265.7276545533327 65.81348120842765 0.4261961134600531
1.5975236047873707 13.030845315518604 239.1547264088047 68.89615065902353 0.4338429152429848
1.622610828786939 13.018044606902352 215.44521369674544 72.13531307107826 0.4417396551667978
1.647361901858598 13.003719129770655 194.29116993122938 75.54044704816897 0.44990061489293726
1.6717110857890696 12.987805677815329 175.4050541640067 79.12164884140624 0.45834071392704095
1.6956498816478522 12.970277759505437 158.5233017799101 82.8887578684229 0.46707177836830194
1.7191154389432448 12.951049416088456 143.43547283359746 86.85465966967078 0.4761160331202698
1.742119511764197 12.930168296243332 129.91454999019305 91.03111527826476 0.48548858968111713
1.764604248051057 12.907550095334694 117.79443722716412 95.4318008174598 0.4952097647086622
1.7865300693478683 12.88312878899963 106.93071650435832 100.07077373436813 0.5052986609003577
1.8078708770134846 12.85689568624987 97.18373844638796 104.96433479448488 0.5157801458280088
1.8285853355820239 12.828786833771538 88.41929056722326 110.12887581373246 0.5266762578420231
1.8486698376337338 12.798848325706814 80.54544134239455 115.58214026808628 0.5380108637603197
1.8680603978689108 12.766967655855025 73.45420062463234 121.34439443866881 0.5498135664516378
1.8867365450832012 12.733148850521372 67.0750383108754 127.43692518709256 0.5621137348459844
1.9046663449941297 12.697359168897576 61.31952135045056 133.88239429511438 0.5749415239247649
1.9218148356699294 12.659575041918947 56.13111488105564 140.70592951601176 0.5883313454604874
1.9381419448919825 12.619746211189375 51.44415181692437 147.93542222930643 0.6023223266633579
1.9536369265063267 12.577902892966684 47.21104134835253 155.59962403774355 0.6169511948025997
1.9682662850820933 12.53401321402199 43.38330296256229 163.73170723216782 0.6322640250786195
1.9819925542950703 12.488049191014218 39.918945660453836 172.3654819570604 0.6483026342794334
1.9947921175847545 12.440006162647324 36.78069560317114 181.54037963652314 0.6651207976745451
2.0066324207746913 12.389868391498268 33.93943086454438 191.29816235993798 0.6827722707624809
2.0174970666828576 12.337646314809342 31.35872367452224 201.68478196526138 0.7013161793029703
2.027345740337686 12.283301980525321 29.019786759680816 212.75044329655242 0.7208162166128564
2.0361695315749424 12.226870024607148 26.89638994988865 224.5498461101193 0.7413403331993167
2.0439275592242385 12.168316826654545 24.965834683433823 237.14474274575005 0.7629678173227095
2.05060108477272 12.10765044744568 23.209481742397035 250.60123860873205 0.7857790365186819
2.0561829592867777 12.0449215416144 21.613492305044115 264.9927910573366 0.8098636012472239
2.060652076374586 11.980135118420794 20.16051341849578 280.4011554042038 0.8353215781554644
2.063980272651377 11.913292436791359 18.838989649584892 296.9152673898843 0.8622577137399011
2.0661515152231456 11.844420577810608 17.63468090740439 314.6354798773959 0.8907928260247925
2.0671628610315125 11.773569437513622 16.538543558966484 333.67145127497605 0.9210540869395925
