M[M_sun], R[km], Lambda[1], P_c[MeV/fm^3], rho_c[fm^-3]
0.24162668629717493 15.618656898711224 2160425.4255784233 3.5677272577965504 0.1711233750220791
0.25364449303045716 15.277283521332976 1723152.6995173374 3.784842538294266 0.17388845889307267
0.266042221997628 14.981222359421379 1382959.3776473505 4.01144969479962 0.17666724371535142
0.27881913255559515 14.723438652190577 1116339.2501426013 4.247804106846841 0.1794583944541555
0.2919742983670769 14.498346863079703 905740.0736843131 4.494531264709254 0.18226848291337158
0.3055116915596866 14.30115394868228 738560.8732655143 4.751787800012186 0.18509323545197343
0.31942943768620524 14.12805173407823 605036.098684873 5.0202543714846986 0.1879392350506861
0.3337286797560005 13.975898508403818 497632.1187787134 5.300157230403005 0.1908031475981975
0.3484122580211023 13.841932384219655 410943.6815059501 5.592222538069587 0.19369121987365037
0.3634772262881727 13.723866989313642 340607.0618790488 5.896620698761946 0.19659857245230342
0.3789320477407753 13.61990482431912 283261.39187713497 6.214214557827506 0.19953285987991706
0.39476606255228586 13.52837147788677 236364.9425682062 6.545258674204119 0.20249020945496318
0.41099309030936754 13.447803561574036 197828.90406362552 6.890461233162976 0.2054744298493195
0.42760308844538414 13.376972247467368 166041.30316727742 7.250524916519752 0.20848854920036342
0.44460100388578017 13.314860969621582 139767.28592252985 7.625704722327581 0.21152805012901807
0.46198208632125987 13.260487324009402 117946.1312150651 8.016957672958686 0.2145992178088585
0.4797454521372431 13.213177130821316 99791.3276712669 8.424985329475385 0.21770364120304345
0.4979096386040993 13.171928778458506 84621.39805719422 8.85022330986344 0.22083871153463494
0.5164516179602524 13.136337961748085 71920.48531170623 9.2935555024942 0.22400798523526969
0.5353702236409589 13.105809441003311 61257.318434595545 9.755862111805328 0.22721431090871727
0.5546804514607567 13.079796822854599 51803.67516261243 10.23795056188349 0.23045900808945363
0.5743659299307372 13.057817330242361 44717.95460658375 10.740291725413682 0.23373876927664483
0.5944253487751957 13.03949213449177 38317.286059634745 11.264138505556266 0.23705988200046652
0.6148671223445524 13.024461908786575 32891.44775472016 11.810424041011135 0.24042389979058296
0.6356725729465665 13.01242577217222 28282.148636846756 12.380127752429784 0.24383245634294665
0.6568455470598051 13.00300132993986 24169.377782520583 12.97392825835217 0.2472833833561539
0.6783802366917512 12.995961100611774 21020.234429423977 13.593173387518387 0.25078169979083964
0.7002711633312372 12.991056972351695 18165.94866508436 14.239051413077199 0.2543299303213484
0.7225081491961199 12.98800146357074 15724.103610138784 14.912752565045782 0.2579300606045988
0.7450988820457112 12.986640767505913 13628.768543448437 15.615291730540003 0.26158183660008233
0.7680223604486011 12.986763053511588 11831.575548650007 16.347965111277315 0.265287450760789
0.7912701928425623 12.988149640984927 10286.067840388627 17.112375195570195 0.2690514503363939
0.8148468836657108 12.990677281746857 8952.66957365045 17.90997774316186 0.27287626931184356
0.8387340502778817 12.994135992302859 7754.670367959581 18.742116085841005 0.27676278891915324
0.8629155860567703 12.998425725863942 6811.0840375329835 19.610179354230326 0.280711886261499
0.8874015701806229 13.003369867915266 5952.794719626716 20.516233011062074 0.28472973016009817
0.9121603698283469 13.008867360225604 5208.782079492972 21.46207212642633 0.2888193358347101
0.937183170896993 13.014764210017956 4563.166435646776 22.449152720403134 0.2929803955579407
0.9624704210256418 13.0209644671613 4002.6801829003666 23.47955751628906 0.29721716484561655
0.9879928994617148 13.027358595508794 3514.916806877601 24.555682748613542 0.30153552361011
1.0137385119683082 13.033812931925027 3090.6961647837275 25.67943723771383 0.3059368508436752
1.0397056538258482 13.040272084946112 2720.116985640886 26.852850735661743 0.3104229095580818
1.0658606059128204 13.046602105278078 2397.0441982921548 28.078988884575303 0.31500219203935664
1.0921951763059514 13.05273175857305 2114.6005274221448 29.359866299543732 0.31967486169212217
1.1186963725559476 13.058556380272357 1867.4393156034553 30.698321563911666 0.3244461664962371
1.1453303045784216 13.064013802745476 1651.2247946163102 32.09767098211194 0.3293235957155086
1.1720970965706685 13.06902973900065 1461.2983837052436 33.55994552152698 0.33430542697147464
1.1989552286609475 13.073485548209606 1294.7117367586147 35.08964695004726 0.33940494811322536
1.2259032877256737 13.0773514455939 1148.4455340870652 36.688747231744564 0.34461860299987834
1.252901976175684 13.080505155358951 1019.6061893135427 38.36234993998905 0.34996114287661706
1.2799472713240305 13.082947735091377 906.2110134068336 40.11275333305266 0.35542947439648065
1.3069992123854228 13.084552322287319 806.333385723841 41.94532141595013 0.36103752583309917
1.3340318790888517 13.085237726437562 718.1071549775371 43.86365272098124 0.36678786618079334
1.36104306454738 13.085028563653518 640.2643480321536 45.87232410029165 0.3726876215625225
1.3879824522550543 13.083783162789727 571.4428820982488 47.97672784452467 0.37874706863161517
1.4148273074731028 13.081457086758295 510.56889279143405 50.18168972855254 0.3849722012509993
1.4415596773276227 13.078009952791543 456.61050557511385 52.49230375520989 0.3913693285686612
1.468155487403133 13.073408968126149 408.7753698152218 54.915053136989016 0.39795047910461584
1.4945659615363238 13.067535628887285 366.31201524711906 57.45613158894435 0.4047247203342164
1.520778680320576 13.060382313444952 328.6599225114889 60.12217127971755 0.4117018303501297
1.5467629180502926 13.051887131607966 295.11340607319363 62.92028230514317 0.4188923563816176
1.5724808299061352 13.04199880026493 265.304416063374 65.85809594174277 0.4263076780928792
1.597894202709163 13.030656398022714 238.76517310921852 68.94381206391226 0.43396007621984345
1.6230034878020667 13.017842586131362 215.09945787948786 72.1862511563205 0.44186280717330756
1.6477451178963582 13.003481230490882 193.97288045788503 75.59491140714665 0.4500301843122316
1.672093018840432 12.987539429208761 175.1290577511974 79.1796261345273 0.45847597428858905
1.6960297389947026 12.969977355560692 158.26197641508077 82.95081372414421 0.46721438254401354
1.7195096859116696 12.950755456037937 143.19100452054138 86.92111351715836 0.47626651838891415
1.7424911502030869 12.929808129833381 129.69919223782165 91.10199477910896 0.4856462704806891
1.7649727996342357 12.907143181637911 117.60159794655553 95.50778873941687 0.4953764991767145
1.78688357717822 12.882668415337202 106.75791461775086 100.15193624105316 0.5054738060686483
1.8082340692416587 12.856428056315163 97.0268390237428 105.05109273148305 0.5159643764890761
1.828941319859279 12.828270611561148 88.27728118332988 110.22181267973471 0.5268707671344218
1.8490204836622368 12.798296219727657 80.41849703490477 115.68188742423641 0.5382169069648285
1.8683911260967485 12.766346120954003 73.33622116732795 121.45125781994511 0.550031101134856
1.8863068813669874 12.733264532761325 67.17830802633473 127.69932696550521 0.881574308054649
1.888713913541855 12.701506111125651 64.98881758551919 136.51443887160357 1.8634298419916282
