M[M_sun], R[km], Lambda[1], P_c[MeV/fm^3], rho_c[fm^-3]
0.24162668629717493 15.618656898711224 2160425.4255784233 3.5677272577965504 0.1711233750220791
0.2536401255091569 15.2773968496293 1723379.8821901467 3.784765655363882 0.17388750058443497
0.26603343858284356 14.981406484365715 1383239.7685368727 4.011288072296334 0.17666529060278227
0.2788052365465577 14.723709300459687 1116682.4817029648 4.247552277612786 0.17945547361453904
0.29195657718441 14.49861881460691 906065.5394798652 4.494182621364132 0.18226460068880776
0.3054878203206326 14.301473143631293 738819.6415867229 4.751330505445291 0.18508829579789118
0.3194013403803618 14.128352878323689 605214.5380514752 5.019685058011771 0.18793332820366968
0.33369421646627856 13.976176909524531 497847.9876207118 5.29946091069764 0.1907961368141678
0.34837085734744627 13.84228328945101 411162.04108339944 5.591397474483453 0.19368323715648736
0.3634294754150873 13.724223643177003 340786.6700331134 5.895648356472207 0.19658944000774864
0.37887644403351295 13.620275299128663 279505.2234202001 6.21308317145949 0.19952254299851863
0.3947048425010222 13.528698945198656 236528.27888605586 6.54396941931153 0.20247890443125321
0.4109242967622863 13.448097741782101 197972.41324916465 6.888989222623274 0.20546189358985814
0.42752735193987257 13.377270632609978 166177.5253389135 7.248856338826379 0.20847474548472597
0.4445171349794084 13.315124055153259 139887.81763293824 7.6238441900697165 0.21151323909592717
0.461892290289274 13.2607569820362 118055.37438879862 8.014872736518239 0.21458308913989294
0.47965112704556817 13.213337543532095 99877.76482126302 8.422659732853932 0.21768615596757457
0.4978011221374732 13.17215862947016 84706.07591830965 8.847665628561892 0.22082019282919857
0.5163338681868326 13.136549157843037 71990.86504850037 9.290724348595077 0.22398805373531797
0.5352455311847716 13.105978661587612 61321.05634340962 9.752738291795213 0.22719292358339374
0.5545461210235579 13.079943481376416 52344.19082730579 10.23451619792187 0.23043615194875283
0.5742216380641959 13.057960602300996 44768.585437080364 10.736556787232912 0.23371478981658522
0.5942713990725814 13.039603583241828 38363.16671424304 11.260049311778857 0.237034332643746
0.6147002411553429 13.024603152598006 32930.762116731865 11.805956437799987 0.2403967293090278
0.635494331335295 13.01251115332655 28320.25340227796 12.375256079186123 0.2438036108041783
0.656659308897786 13.003070141035266 24393.153108399747 12.968674886361377 0.2472533572361011
0.6781840061014403 12.996016097960096 21048.101702355223 13.587463724667137 0.2507499099177941
0.7000643698567985 12.991088467436654 18191.0161788825 14.232854849190085 0.2542963136598374
0.7222889039473627 12.988021758802052 15746.535043489286 14.90603652335698 0.257894550360559
0.7448694012998185 12.986662123279451 13551.54870905173 15.608087063749243 0.26154501112249234
0.7677817438280314 12.986750276995352 11848.17537301398 16.340174263015854 0.26524861533621785
0.7910187446629718 12.988119881955676 10300.885729809752 17.103959070553312 0.2690105255703758
0.8145839762097346 12.990632834574566 8966.890256453824 17.900894654359245 0.27283317070494717
0.8384568985543385 12.994097632785065 7815.693648408337 18.73240631819429 0.2767181775607853
0.8626307028969151 12.99836669107626 6822.642026722317 19.599716671109913 0.28066494680080667
0.8870971244948259 13.003311275141733 5962.643398822167 20.5049670629806 0.2846803610287923
0.9118483761842423 13.008801034331576 5217.31789807391 21.449949116384147 0.2887674286163754
0.9368601392875533 13.014684033584235 4570.8456040204965 22.436223144813734 0.2929266934619263
0.9621290196063523 13.020867600610078 4009.6778972716174 23.465659137746346 0.29716071940074396
0.9876452229632898 13.027275791793695 3520.943671350003 24.540750158464174 0.3014762035182799
1.0133852246044297 13.03373169118333 3096.1014193321303 25.66352823313668 0.3058754549311107
1.039334852822843 13.040182817662464 2725.0959635025915 26.835770850915015 0.3103583848290758
1.0654800146339618 13.046518051089787 2401.577067112474 28.060658181662458 0.3149343787984815
1.0917985385344402 13.052633218594448 2118.5562548042544 29.34034973946821 0.31960461405907925
1.1182893650456918 13.058478079037789 1871.143680771087 30.677386170847374 0.3243723155406231
1.1449132955351204 13.063937973235078 1654.2763306434922 32.07537038378978 0.3292469284918951
1.1716673039526437 13.068954709239748 1464.1912005564384 33.53604773247576 0.33422488895840685
1.1985146401006195 13.07341575673977 1297.286363431639 35.064024502887094 0.3393202216267278
1.2254538994056543 13.077285596480108 1150.7055828573355 36.66147447219972 0.34453062529931916
1.252441870614529 13.080463178309072 1021.66285058668 38.33317730124512 0.34986890349493965
1.2794772011769602 13.08290352649964 908.0571240951738 40.08162867546404 0.35533318510397777
1.3065132909266999 13.084507955523783 808.0252991859353 41.91218027530729 0.36093733514407506
1.3335432608420061 13.085229194274847 719.6925646340092 43.82812359090193 0.36668225523188464
1.3605428352527063 13.085047008954168 641.6125582158852 45.834481415973485 0.3725775801770654
1.3874710696421317 13.083798509959305 572.6989495531326 47.93640999516806 0.3786323110174613
1.4143204967961707 13.08152500350266 511.6279264532159 50.13845469261935 0.384851051915715
1.4410480364739002 13.078108296986784 457.5946275919127 52.44622015693662 0.391242800273835
1.4676301483203853 13.073509829123394 409.6639966331907 54.865916958277396 0.3978182133484732
1.494035234616505 13.067663501613465 367.1386456241912 57.40372228768113 0.4045863309038954
1.5202436988244248 13.060541963342635 329.3665848780187 60.06625031050541 0.41155690104631043
1.5462236100020712 13.052080944909543 295.7755443826492 62.86059149244458 0.4187404385176697
1.5719384747687708 13.042222572823208 265.91739438745424 65.79435568900404 0.42614828774434094
1.5973545826204407 13.030913625067631 239.29663203819055 68.87571938023508 0.4337926911971995
1.6224466279185554 13.018133789059737 215.58351831229274 72.11347747998151 0.4416868636878072
1.647198233687573 13.003817958838331 194.4224584044884 75.5171002027013 0.44984507330085055
1.6715475939484707 12.987919712624654 175.52803927459752 79.09679553188764 0.4582827297469246
1.6954868093860513 12.970402441029691 158.6394647896286 82.86215759130086 0.46701065100894806
1.7189523320534061 12.951189452785057 143.5240146975101 86.8261746514488 0.4760515285688926
1.741965918908309 12.930342835233699 130.006736957212 91.00073365939963 0.48542100176221414
1.7644447500762874 12.907718992868114 117.88269252965799 95.39923009108911 0.4951382972623151
1.7863723031090637 12.883313855745314 107.0049168611816 100.03598554548302 0.5052235894979864
1.8077148547124169 12.857095352308873 97.24626489966973 104.92714884631987 0.5157011813891356
1.8284414639504445 12.829032634152286 88.48223239610653 110.08893821682184 0.5265925023739262
1.848518816004354 12.799079947638727 80.60156848418508 115.53938840713928 0.5379225531681363
1.8679139164906822 12.767222631390851 73.50771271899563 121.29859332729353 0.5497203321731126
1.8865929317787753 12.733422358611413 67.12242157000709 127.38781783120918 0.5620151767745609
1.9045260377722586 12.697650292734389 61.362104438432745 133.82987986874818 0.5748378441415334
1.921678498564238 12.659889693435497 56.169515505609844 140.6495262736887 0.588221450495373
1.938011975383464 12.620078726006533 51.479852240277246 147.8747926129734 0.6022057025798299
1.9535100994471317 12.57823408129362 47.24402959027646 155.53459684625037 0.6168279617654066
1.9681473893811947 12.534386177040206 43.41333021177067 163.66168440927268 0.6321329119621713
1.9818811779516052 12.488447378876629 39.948264998246216 172.29022956016723 0.648163688956497
1.9946863442705396 12.440424699878962 36.807343465666605 181.4594207816447 0.6649733299978259
2.006535064372141 12.39031502254214 33.962450271217236 191.21097165469098 0.6826155269859631
2.01740665060746 12.338112235192265 31.38117847885822 201.5907798624419 0.7011493348430086
2.027262779740242 12.283789392844872 29.040900973935422 212.64922665119593 0.7206391441474048
2.0360940516985617 12.22738770354786 26.913867073780615 224.44047876028006 0.7411512891314522
2.043862255995937 12.168859460978565 24.982453935311415 237.02669219836034 0.7627665302951019
2.0505454369257388 12.108222232035986 23.22553245812898 250.47339650619338 0.7855635236310902
2.0561364120475836 12.045512859048305 21.628088882247322 264.85446164317136 0.8096334130652834
2.0606145520665367 11.980753435560217 20.174036682161272 280.2512875015194 0.8350753217697034
2.0639544079291094 11.91393812674828 18.850821707818486 296.7529690327788 0.8619947613205897
2.0661370444598144 11.845092870235396 17.64585417495881 314.4591792281306 0.8905106033609876
2.067158311357247 11.774271429801319 16.54884148566103 333.47998634933055 0.9207516833836457
