M[M_sun], R[km], Lambda[1], P_c[MeV/fm^3], rho_c[fm^-3]
0.24162668629717493 15.618656898711224 2160425.4255784233 3.5677272577965504 0.1711233750220791
0.2536449820840113 15.277249111525435 1723234.3645811656 3.784841184975939 0.17388844202461257
0.2660419395265484 14.981239955057829 1382973.3813120169 4.011446849827525 0.17666720933554264
0.2788178566507237 14.723479140972866 1116373.9359768366 4.247799673943464 0.1794583430391566
0.2919743002850932 14.498339157350781 905819.4265564313 4.494525127523228 0.1822684145743808
0.30551096777038916 14.301132667186948 738565.7942214478 4.751779750124551 0.18509314849782355
0.31942899915435496 14.128061688641674 605034.3650411358 5.020244349568016 0.1879391310694324
0.3337284335943078 13.975896520311291 497633.1501971245 5.300144972569078 0.19080302418214928
0.34841151240305673 13.841939867880718 410944.02175156435 5.592208013682914 0.1936910793462138
0.3634761076466931 13.723891789825984 340608.75720558973 5.896603581466462 0.19659841168304185
0.3789300899121973 13.619936129674167 283254.97473082 6.214194640435847 0.19953267825728724
0.3947656301192692 13.528364341581003 233260.9887939446 6.545235977365065 0.2024900104343466
0.41099192207872776 13.447787411585766 197828.41863165508 6.890435318656054 0.20547420915050393
0.4276020417672368 13.376983829824706 166045.0324323653 7.250495541114207 0.20848830618516162
0.4445986562726443 13.314855308069346 139775.1649841474 7.62567196718579 0.21152778937702793
0.4619803389192992 13.260497219071569 117945.61636032765 8.016920966674892 0.2145989338560776
0.47974939270254646 13.213088341393837 99785.69928343855 8.424944385757115 0.21770333336352032
0.4979084362384913 13.17192570298422 84620.53579793495 8.850178279653374 0.22083838549667412
0.5164494995688392 13.136346199424121 71922.95084186857 9.293505656960994 0.22400763431960838
0.535369757890315 13.105799307556104 61258.26589392663 9.755807112908512 0.22721393435715706
0.5546805576955451 13.079747760894287 52290.895737610655 10.23789063952736 0.23045861267761103
0.5743641368530293 13.057798112238272 44717.382386214405 10.740225965528543 0.23373834707781235
0.5944232325904406 13.039491127111436 38318.32802543826 11.264066507550739 0.23705943215562508
0.6148618690617911 13.024487337489827 32891.322701743586 11.810345379459346 0.24042342139710415
0.6356694815919869 13.012409702132949 28283.16545302334 12.380041975360584 0.243831948450555
0.6568422078185581 13.00300966784568 24362.731072493316 12.973835759673742 0.24728285467163888
0.6783771801472381 12.995971931403002 21021.10151310353 13.593072853520898 0.2507811400444763
0.7002672251750228 12.991044879316592 18166.383633580986 14.238942304589386 0.25432933840247696
0.7225050393453574 12.987997901720604 15724.498600768813 14.912634308248416 0.2579294353363339
0.7450951310267696 12.986648284853597 13629.43938588652 15.615164868739683 0.2615811881667099
0.768018226734654 12.986751831289046 11832.034768838275 16.347827926209536 0.2652867669276333
0.7912667138029935 12.98814380491157 10286.537214983098 17.11222699856892 0.2690507297045604
0.8148448305002352 12.990666263755282 8952.938956181568 17.909817799896636 0.2728755103924866
0.8387286602184861 12.994134071414798 7804.695261169561 18.74194510578614 0.2767620033542686
0.8629113510316633 12.998416816664042 6811.314336204976 19.609995113828024 0.28071105969100824
0.887395968758453 13.00336630227089 5952.964056426654 20.516034623353953 0.2847288607944007
0.912153989286257 13.00886202911054 5208.945227775466 21.461858643707878 0.28881842176353145
0.9371769155652403 13.014760800170222 4563.226235262747 22.44892503206736 0.29297944987021995
0.9624651426539496 13.020960654025112 4002.793856150195 23.479312764458925 0.2972161708357115
0.9879868461822129 13.0273673713904 3514.9221232752698 24.555419780981218 0.3015344789645434
1.0137318473847778 13.033812846198733 3090.4728937152245 25.67915707232652 0.3059357696314888
1.0396987326565517 13.040271136227759 2720.20121631364 26.85254994674895 0.31042177323173226
1.0658541875727539 13.046594921806786 2397.1027667317967 28.07866606380217 0.3150009977849436
1.092188464463706 13.052731758328058 2104.084274620848 29.359522591215207 0.31967362455317744
1.1186898261966043 13.058558447816994 1867.4884392324157 30.697952863631343 0.324444865882107
1.1453225559119555 13.064018408435865 1651.2800418866507 32.097278493433755 0.32932224716306896
1.1720884933282507 13.069029193628772 1461.3221873742132 33.55952463960301 0.3343040085559961
1.1989460097854556 13.07348292700118 1294.752147412571 35.08919568789685 0.3394034559116314
1.225895780587218 13.077345778318552 1148.4621339970595 36.688266899125146 0.34461705352120203
1.2528937609919901 13.080510610405229 1019.6635899735919 38.361838587153144 0.34995953267555846
1.27993824433306 13.082948065484572 906.2233014977564 40.11220514659095 0.3554277784907054
1.306991883480571 13.08454554122852 806.3755864403297 41.94473770735614 0.36103576119358805
1.334023382210202 13.085241788022483 718.167232774172 43.8630269443492 0.36678600604901507
1.3610343338727187 13.085027322862834 640.2796392005872 45.87165756709567 0.3726856833745303
1.3879736670315475 13.083782915043194 571.4818500985496 47.97601770713062 0.3787450473513544
1.4148180153626089 13.081457132116558 510.5869095714337 50.18092819812204 0.3849700673588106
1.4415504644291603 13.07801131525139 456.63859029814324 52.49149204091328 0.3913670999053258
1.4681456815666878 13.073410232170348 408.7885102871648 54.91418764375598 0.39794814935248807
1.4945560787800827 13.067538220388824 366.3261129358248 57.45520843045523 0.4047222826871895
1.520769310260752 13.06038508464329 328.67814456882616 60.12118625232286 0.4116992774735153
1.546753523567267 13.051890908214624 295.12309985929033 62.91923085917992 0.41888968036804747
1.5724708856850376 13.042002289357907 265.3095781843417 65.8569731499585 0.4263048704138045
1.5978849412828546 13.030661280212868 238.78107277520817 68.94261258667021 0.43395712767215106
1.622993048789853 13.017848982707493 215.10126082094587 72.18496920322318 0.4418597078205259
1.647735461679847 13.00348890401205 193.97645109471694 75.59354069466468 0.45002692341972056
1.6720827663597488 12.987547088511722 175.13957543766284 79.1781669987565 0.45847257014152937
1.6960205308444585 12.969984239162374 158.27097303126257 82.94925192488762 0.4672107935338706
1.719499877310304 12.950765440806773 143.1970719671658 86.91944101239673 0.47626273098851707
1.7424816786077704 12.929818764148763 129.7020064690666 91.10021087276046 0.48564230194569596
1.7649632172860492 12.907154246058157 117.60395322547903 95.50587624134492 0.49537230272890453
1.7868748514497612 12.882677673954522 106.7619884042141 100.14989348583237 0.5054693978915042
1.8082257036782952 12.856437772336747 97.02973107514586 105.0489091234613 0.5159597395928649
1.8289385045701025 12.8283020322525 88.28040058962397 110.21947666144996 0.5268658831415874
1.8490107863899345 12.798310700738035 80.41436571261634 115.67937683122409 0.5382117209460041
1.8683841998564061 12.766360575922263 73.3437039623062 121.44856808335983 0.5500256258168468
1.8870595294552717 12.732529788676466 66.96915468434574 127.54849205298231 0.5623374472133937
1.9049809174882721 12.696698778285112 61.21965867579168 134.00184116252558 0.5751773491289578
1.922119653281727 12.658866474856554 56.04063200313258 140.83422407051964 0.588581312040622
1.9384298653738612 12.618962995490076 51.3612243147939 148.0733327016487 0.6025876043183821
1.9539227725633599 12.577102194343905 47.136624633859384 155.74754000344453 0.6172315103642
1.9685353125195217 12.533161395981335 43.31612506171156 163.89066007883685 0.632561155226523
1.982245331746433 12.487145121797056 39.855217731459604 172.53666370129227 0.6486187026535328
1.9950291197218533 12.439048168747508 36.723939594756864 181.72454587454257 0.665456259030707
2.0068611481321734 12.388874131049082 33.88298384728063 191.4965089453828 0.6831288407979446
2.017702545466186 12.336583152965272 31.30937278161025 201.89862805798026 0.7016957350233687
2.0275364147484876 12.28218600834867 28.975224097907745 212.9807064530625 0.7212190482289639
2.0363381537318777 12.225698918634645 26.854627777036534 224.79865742492873 0.7417704094803221
2.044076260629648 12.16708782012283 24.928987232920132 237.41331427659725 0.763425756454205
2.0507296624878424 12.106361930303311 23.175020460693943 250.8917973679699 0.7862683877589027
2.0562960203005276 12.04359618331102 21.582571400850103 265.3074446147255 0.8103870934768285
2.0607367900651052 11.978728510942744 20.1321325997978 280.7415943221675 0.835880091087342
2.064033173463884 11.911815928985934 18.811510361380147 297.28454107757943 0.8628560032808383
2.0660035404093695 11.844871673141125 17.651138305644903 315.44144404908286 1.5376865651697544
