M[M_sun], R[km], Lambda[1], P_c[MeV/fm^3], rho_c[fm^-3]
0.24162668629717493 15.618656898711224 2160425.4255784233 3.5677272577965504 0.1711233750220791
0.25363664790475776 15.27745845273097 1723429.611241187 3.7846849341298916 0.1738864944331945
0.26602358607412363 14.981660318895056 1383363.7456809867 4.0111183859636235 0.1766632400435935
0.2787913076389446 14.723949677423363 1094350.4435493753 4.247287891410316 0.1794524071330119
0.29193603404687585 14.498957695088267 906349.3455730716 4.493816603784354 0.1822605249981087
0.30546375798550796 14.301764262915906 739144.0784141913 4.750850435674022 0.18508311012813453
0.31937035028758926 14.12871446897217 605491.0217828851 5.01908740625373 0.1879271273360076
0.33365770712123727 13.976576507878116 498096.7945086813 5.298729950908002 0.19078877726196777
0.34832768865402375 13.842640990114578 411379.19696957985 5.590531388340177 0.19367485753479907
0.3633779925644411 13.724607768324672 340996.7708665188 5.894627696273623 0.1965798537511688
0.3788207253890371 13.620597722068998 283617.5412836702 6.211895595582158 0.1995117137364518
0.3946402817892976 13.529045356493947 236704.05295481783 6.542616167432409 0.20246703824042706
0.41085308519964253 13.448420831707185 198128.57050702802 6.88744418372148 0.20544873539022004
0.4274472995962363 13.377596341160897 166324.39320974276 7.24710502631945 0.2084602573251791
0.4444290107538816 13.315433514465322 140007.24970921257 7.621891450542205 0.21149769403368077
0.46179746343170897 13.261015206890805 118162.19545270123 8.012684527338283 0.21456616157279482
0.4795460584867489 13.213599769934685 99983.92667423823 8.420219005003403 0.21766780510621356
0.49768782782368376 13.172393926673884 84789.79091857912 8.844981386418782 0.22080075776919403
0.5162111345161575 13.136764229373826 72073.05713480509 9.287753176277539 0.2239671364969715
0.5351135111936972 13.106168435386982 61391.647641956406 9.749460061200914 0.2271704790814766
0.554403539036373 13.080110438760261 52403.41960504944 10.23090955864575 0.23041213313812842
0.5740660245666903 13.058098504712857 44821.50551260175 10.73263741262313 0.23368962621752012
0.5941119440396935 13.03975382810249 38408.18952691531 11.25575829404329 0.23700752228728264
0.6145270668044097 13.024695114855593 32970.99764383764 11.801268449847784 0.24036821852054321
0.6353107364451466 13.012594134828872 28355.01863959754 12.370144214778184 0.2437733430757034
0.6564602513919677 13.003134517288075 24430.689943209654 12.963162618518902 0.24722185137352531
0.6779789204524964 12.996081363241622 21078.775540108913 13.58147282628943 0.2507165542006848
0.699847051671509 12.991133228313318 18217.295747219647 14.226353226811575 0.2542610420411222
0.7220611140293366 12.988041987902484 15768.431319299892 14.898990022645124 0.2578572928550969
0.7446281340128009 12.986663906112307 13668.693778116378 15.600528049407753 0.26150637445527103
0.7675294301592616 12.986730220737872 11866.500998266329 16.332000438294557 0.2652078708700482
0.79075290037274 12.98810185119929 10316.49428875492 17.0951294503072 0.26896759011707927
0.8143060268056542 12.990611086538854 8981.197539579465 17.891365537742303 0.27278795572796427
0.8381677298016308 12.994059027694297 7828.836700218321 18.722219955849873 0.27667137649637813
0.8623288393418487 12.998306438323123 6833.937948009689 19.588740710632184 0.28061570458831914
0.8867803942428272 13.003246489380189 5972.539346799797 20.49314872707715 0.2846285712484014
0.9115226088127079 13.008718506718692 5226.739025194144 21.437232015792706 0.2887129776743497
0.9365204307295397 13.014610130230793 4579.388545615776 22.42266022994369 0.2928703608351088
0.961776765407144 13.02080171613457 4016.6016385650705 23.451080335405894 0.29710151055265516
0.987280702816619 13.02717912242806 3527.5896245607432 24.525086914312677 0.3014139808849572
1.0130023688633025 13.033635884617079 3085.174087334994 25.64684114494023 0.30581105624400884
1.0389445806893292 13.040078978716663 2730.2544425850087 26.817856082743933 0.3102907060608296
1.065077668813885 13.046417923782505 2406.035834257871 28.041431958859846 0.31486325264013226
1.091385686537919 13.052544793863493 2122.84410960446 29.31988016166385 0.3195309361473684
1.1178629775484865 13.058386444012449 1874.84524887659 30.65542906375617 0.3242948604225738
1.1444788899344094 13.063858606038295 1657.651608728094 32.051822835691965 0.32916549191035116
1.1712167443634272 13.068870683632648 1467.1371409923745 33.5109848834203 0.3341404245730021
1.19805884264791 13.073358248457637 1300.0126291791248 35.0371536580143 0.339231367027436
1.2249811271662525 13.077231313254028 1147.9708650028056 36.63287355210864 0.34443836315843257
1.2519644387442401 13.080421204279434 1023.8057283166552 38.302517549780994 0.3497717801235871
1.2789819033114649 13.0828738706128 910.0261047169513 40.0489899549985 0.35523221180674935
1.3060098749026474 13.08448293389719 809.6916419909979 41.87742779980128 0.3608322731456434
1.3330301825566442 13.085226109976936 721.2457339371109 43.790868118429984 0.36657151270058647
1.3600234804019482 13.08505483110046 643.1002818849696 45.79480094346637 0.37246219475319947
1.3869415051320217 13.083841581051134 573.9524078917368 47.89413520497471 0.37851198331797187
1.4137745583436045 13.081564222938887 512.7630268436282 50.093122518703815 0.3847240261686949
1.4405032372339153 13.078189400472006 458.6432098092103 52.39790249730414 0.39111013808354683
1.4670744198224528 13.073607013399437 410.6187313746059 54.81440009123713 0.3976795392075073
1.4934786142539591 13.067801235169222 367.97684623195227 57.34877519079393 0.4044412402949247
1.5196810411044248 13.060715598076527 330.1203464132465 60.00762311269703 0.41140495806172067
1.5456571094781832 13.052277827499442 296.466420822974 62.798013771778955 0.41858117324342625
1.5713683733531258 13.042459169629709 266.5548022105071 65.7275345989401 0.4259811933828131
1.5967822496913557 13.031184273330773 239.86136490678643 68.80433758510249 0.43361722090069477
1.6218752178472724 13.018432240415526 216.11270838514204 72.03719087804714 0.4415024270712098
1.646614284028285 13.0041670336631 194.88801191878412 75.43553541251197 0.44965103259793826
1.6709793742336327 12.988314082941763 175.95097163018136 79.00954711453967 0.45807839557064267
1.694911231491941 12.97084363179697 159.0306575640689 82.76923016258006 0.46679710404839625
1.7183997193908547 12.951714982083901 143.86833447739338 86.72666509536431 0.4758261883839944
1.7414011168909629 12.930881155074093 130.32177038259306 90.89460053354377 0.48518489462338416
1.763885062901544 12.90831212684715 118.17173445036858 95.28545229272815 0.4948886433673633
1.7858178953921808 12.88395775703694 107.27156942864937 99.91446404548013 0.5049613513730412
1.807156654833065 12.857772378001517 97.49399974567163 104.79725424830202 0.515425349937975
1.827906516159147 12.829790926359216 88.70536481855092 109.94943526608472 0.5262999425845615
1.8479821135690568 12.799876782274342 80.80293015215318 115.39005848840212 0.5376140890858186
1.8673998808686039 12.76810811398069 73.69022783551644 121.13861621847427 0.5493946774046266
1.8860919010408952 12.734373719036121 67.29280347820307 127.21629652561758 0.561670934882831
1.9040204950014459 12.698611233814951 61.521132795725826 133.64619319285973 0.5744747706685033
1.9211969755452356 12.660942532054332 56.309797842442705 140.4525312465094 0.587837629269005
1.937558015752992 12.621240154477487 51.609980162852544 147.66304201073612 0.601798389761177
1.953074604345007 12.579472717698984 47.3617760309948 155.3074930701348 0.616397577376259
1.9677287237990864 12.535687324383526 43.519913829166235 163.41714049634317 0.6316750196178331
1.9814899309270424 12.489843220992288 40.04497636867423 172.02742900381244 0.6476784564632063
1.99432903459451 12.441934074830842 36.894721610841145 181.1766994613198 0.6644583491927011
2.0061897540291116 12.391860960338928 34.04427477925272 190.90649625770718 0.6820681679131722
2.017081384031438 12.339727153595769 31.456826358983378 201.26252819915604 0.7005667205200328
2.026968958297048 12.285498563467277 29.109521912628903 212.29513048740213 0.7200186631377756
2.0358254122709574 12.229167889102532 26.976749560632946 224.05859481585 0.7404911936421376
2.0436311428508454 12.170749108842715 25.041002790737092 236.6140303358548 0.7620621720019123
2.0503477245072217 12.110201434073009 23.28015787352758 250.02703175904657 0.7848110535631977
2.0559679050717925 12.047575722923385 21.678132574318905 264.3714958869361 0.8088297299871889
2.0604794568605183 11.982898915073491 20.219992586937575 279.7280538484991 0.8342155671058068
2.0638563968287436 11.916177514190585 18.892909131273942 296.1862059889629 0.8610762555254181
2.0660817261379965 11.847434825805822 17.684043302361616 313.8437040794663 0.889525348702621
2.067142128252648 11.77670721558475 16.583799071445952 332.8115961324826 0.9196960144267681
