M[M_sun], R[km], Lambda[1], P_c[MeV/fm^3], rho_c[fm^-3]
0.24162668629717493 15.618656898711224 2160425.4255784233 3.5677272577965504 0.1711233750220791
0.2536442947928001 15.277273460470875 1723204.4243136793 3.784842191135755 0.1738884545659093
0.2660421414601094 14.981224113084163 1382974.230163713 4.011448964996116 0.17666723489610678
0.2788188663469519 14.723444892905393 1116432.944231125 4.247802969700707 0.179458381264974
0.2919742471254365 14.498324267895423 905778.8075037204 4.494529690373428 0.18226846538277677
0.30551182211663047 14.301141483504024 738603.937337972 4.7517857350220245 0.1850932131461386
0.31942924138121864 14.12806306116235 605036.4363942377 5.020251800621129 0.18793920837698433
0.3337286312093087 13.975901403305933 497635.79823686345 5.300154085972125 0.19080311593899607
0.34841183315163915 13.841885966616447 410941.7045039234 5.592218812212504 0.19369118382495815
0.36347701743564037 13.72387370940276 340620.21704133233 5.896616307760184 0.19659853121108564
0.3789304819792001 13.619939093783081 283253.39385271166 6.214209448532243 0.19953281328929626
0.3947658874386101 13.528362577806883 236367.13827963144 6.545252851912119 0.20249015840132786
0.41099274670235586 13.447782160248634 197823.03792270678 6.890454585459688 0.20547437323468867
0.4276027165569826 13.376975825521594 166039.28297606384 7.250517381010267 0.20848848686102464
0.4446007920190571 13.314859064411177 139772.06733446414 7.625696319831898 0.21152798323974967
0.4619820947443458 13.26049839581468 117946.63753730636 8.016948256896821 0.21459914496800742
0.47975144070001946 13.21308860251827 99792.25235640227 8.424974826405974 0.21770356223464452
0.49790949156717546 13.171927027747344 84622.1960091537 8.850211758506868 0.22083862789787784
0.516451010210725 13.136347976509844 71921.15142536213 9.293542715886728 0.2240078952167559
0.5353716192055303 13.105805542061093 61258.95400044794 9.75584800323085 0.2272142143139483
0.5546812753305536 13.079755507567894 52291.63213643606 10.237935190318051 0.23045890665654267
0.5743652317185738 13.057817939268675 44716.15869417686 10.740274856375105 0.2337386609721918
0.5944248356499138 13.03948984227534 38317.81989635256 11.26412003628245 0.2370597666041095
0.6148642517813123 13.024478354608448 32891.92223785518 11.810403862369286 0.24042377707077317
0.6356717528317861 13.012408714091617 28282.907574294455 12.380105748477531 0.2438323260559126
0.6568446300839201 13.002995682545594 24362.170988343347 12.973904530136775 0.24728324773540492
0.678378446234721 12.995965880806981 21020.354638616354 13.593147598039428 0.2507815562019302
0.7002698428215386 12.9910560713405 18165.473986348024 14.239023424023125 0.254329778479364
0.7225067437718363 12.987991141016908 15723.013014450311 14.912722229216856 0.25792990020763606
0.7450977644793557 12.986651625750925 13629.337915771723 15.6152591873082 0.26158167026066814
0.7680212548648155 12.986763795743322 11831.896561539892 16.34792991986311 0.2652872753404155
0.7912699387323507 12.98813810340472 10286.165969364765 17.112337179312547 0.2690512654762063
0.8148456731315626 12.99067194607924 8952.371998927116 17.90993671368562 0.2728760746299126
0.8387317749317078 12.994148670947045 7804.253967045481 18.742072225144575 0.2767625874019473
0.8629142311061802 12.998419720981678 6811.033681622299 19.61013209191276 0.28071167422528687
0.8874003326309303 13.003373048379034 5952.801735332708 20.516182119595094 0.28472950714579903
0.9121589559924069 13.008870536681329 5208.968224464275 21.462017362698397 0.28881910135228595
0.9371817016540536 13.014757908647628 4563.134307529538 22.44909431256674 0.2929801529650407
0.9624694198169651 13.0209619304349 4002.7258035004293 23.479494731223127 0.29721690985680854
0.9879920775583475 13.027355031652009 3514.926923251001 24.55561529072022 0.30153525563192357
1.0137370340901362 13.033809214607713 3090.6399305676982 25.67936536814895 0.30593657348518305
1.0397042464377229 13.040271326124227 2720.036373811874 26.852773575623935 0.3104226180613532
1.065858162908402 13.046597828024565 2397.042540873821 28.078906072788783 0.315001885682549
1.0921937400263568 13.052725901734618 2114.6051820833545 29.359778129552986 0.3196745443342921
1.1186944626600785 13.05855922809506 1867.4699048871403 30.69822698282885 0.32444583285533873
1.1453281062447596 13.064012383980229 1651.2400918644996 32.097570298680715 0.3293232497771559
1.1720937535151483 13.069023302104295 1461.3058839130736 33.55983755447982 0.33430506311139385
1.1989528841188821 13.07348665040595 1294.768526761467 35.08953118966959 0.3394045653250391
1.225901226049837 13.077345164291213 1148.453077213137 36.688624014024256 0.34461820551858635
1.2529005698308366 13.080503694947447 1019.6215252354808 38.36221876476301 0.3499607298184056
1.2799442425238117 13.082944077805497 906.2208250403562 40.11261270902335 0.3554290393527134
1.306997270745363 13.084547628731633 802.9765467863444 41.94517167955103 0.36103707315727973
1.3340295042082129 13.085237851308241 718.1320219205159 43.863492193008724 0.3667873890086401
1.3610399322361266 13.085028968408489 640.2744634280444 45.87215311717434 0.3726871243668437
1.3879796709384455 13.083782168127925 571.4551276046608 47.97654567576649 0.37874655012052405
1.414825152577005 13.081456175550398 510.56076740976 50.18149437610198 0.3849716538519045
1.4415574173149108 13.078013888031379 456.6260826683909 52.492095529252246 0.39136875685819705
1.468152692538289 13.073407263894762 408.77944453908657 54.914831115289566 0.3979498814621307
1.4945641588025769 13.067537720542528 366.32262693519283 57.45589477455454 0.404724095013754
1.5207763357340556 13.060384145709117 328.6610692852972 60.121918594284715 0.4117011754701378
1.5467605364200385 13.05188839067493 295.11652378341716 62.92001258155228 0.4188916699136348
1.5724772194181227 13.041999631846966 265.30132526227686 65.8578079160164 0.42630695784909384
1.597891633497964 13.030657929783537 238.77449923062667 68.94350436628419 0.4339593198393975
1.623000825960152 13.0178448423941 215.1003451777732 72.18592230139164 0.4418620121072161
1.647742630901572 13.003482663109192 193.9700348597555 75.59455978301523 0.45002934780675585
1.6720906448477317 12.987541740507794 175.1367056572185 79.17925182741257 0.4584751010343728
1.6960274134256321 12.969978395456542 158.26442396699096 82.95041308103343 0.46721346186731183
1.7195072348564013 12.950757608793605 143.1925244592216 86.920684475046 0.4762655468196224
1.7424885211991157 12.929811008012114 129.69740099831878 91.1015371594317 0.48564525244535095
1.7649700727900763 12.90714606078117 117.60237036908758 95.50729813241517 0.4953754226754055
1.781103526552372 12.88367944900364 109.06842624171705 100.73307622349888 1.1581127268711424
