M[M_sun], R[km], Lambda[1], P_c[MeV/fm^3], rho_c[fm^-3]
0.24162668629717493 15.618656898711224 2160425.4255784233 3.5677272577965504 0.1711233750220791
0.25364552875217705 15.277244727168966 1723366.8339743365 3.7848492387412422 0.1738885424109118
0.2660428663295427 14.981208532306455 1382992.6935552803 4.011463780630836 0.1766674139343088
0.2788199191667556 14.723427340554752 1116361.7501297547 4.247826054766799 0.17945864901695222
0.29197635092866475 14.498306265212673 905709.407609022 4.494561650812431 0.1822688212696827
0.3055136348629163 14.301128024836922 738566.2355822469 4.751827656237425 0.18509366597527277
0.31943223519487485 14.128010378363468 605002.6145515039 5.020303991595012 0.18793974987848222
0.3337335442396204 13.975809249932801 497590.8174155124 5.300217920982018 0.19080375865162427
0.34841581658294446 13.841898640299815 410910.0473875845 5.592294450823222 0.1936919156493243
0.3634816034167199 13.723840804674289 340600.1669496593 5.896705449572458 0.19659936844985093
0.37893652811747613 13.61988635194796 283241.6568933385 6.214313172552524 0.19953375912746937
0.39477144210507 13.528338100355523 236342.45254150018 6.54537105063204 0.20249119484442293
0.4109991038625685 13.447776967233814 197811.63310476052 6.890589541056461 0.20547552257318272
0.4276088102379774 13.376960925376032 166039.1065790886 7.250670360205907 0.20848975241870496
0.44460743160919675 13.314825271781967 139763.59339155268 7.625866899977119 0.21152934116738828
0.4619903375833917 13.260461104085113 117940.98669054561 8.017139413787092 0.21460062372109737
0.47975964617595823 13.213070342666988 99777.31693681134 8.425188051030919 0.21770516538574153
0.49791954196823546 13.171932494246926 84611.20913108405 8.850446264813433 0.2208403258237342
0.5164611504164044 13.136327781305964 71913.6210154477 9.293802299535706 0.22400972270182787
0.5353830625292251 13.105771958784652 60661.13559144072 9.756134424718848 0.22721617530706686
0.5546930892553943 13.079751101172029 52283.08711087944 10.238247252369073 0.23046096587181003
0.5743789065123243 13.057802673420472 44713.249697807274 10.7406173193692 0.23374085969069563
0.5944390062790187 13.039477901110084 38312.31777131667 11.264494986486714 0.23706210929977095
0.6148800608542282 13.024484886551347 32887.8324769801 11.810813515391182 0.2404262684446373
0.6356873520255961 13.012404043955161 28279.483589166724 12.380552458175332 0.24383497105718047
0.6568615102537259 13.003003023876092 24359.802283092475 12.974386245110676 0.2472860010206592
0.678396456380348 12.995961897007053 21017.7833154383 13.593671160007954 0.2507844712547003
0.700289490991701 12.991050585775273 18163.526389627816 14.239591640992474 0.2543328610841546
0.7225271485511552 12.987989666972513 15720.929032587213 14.913338089644272 0.25793315649386617
0.7451190948845066 12.986650611178291 13627.096734891751 15.615919861723256 0.2615850471900353
0.7680434400187455 12.98676536443747 11830.06147862756 16.34864435693825 0.2652908366300481
0.7912918972916586 12.988154477170875 10284.455068408392 17.113108965642812 0.2690550184117816
0.8148697544930337 12.990677617007682 8951.227405856238 17.910769673693807 0.27288002696559194
0.8387582950637684 12.994137404967644 7803.134251187875 18.742962663944 0.27676667850750525
0.8629426112471207 12.998426090472986 6810.383541931559 19.61109158980669 0.2807159788872133
0.8874275562945366 13.003385396525013 5951.976996924951 20.517215295918408 0.2847340346846443
0.9121871291925144 13.008879567062793 5208.2014124132365 21.463129153161685 0.2888238617170897
0.9372123702134976 13.014775680666407 4563.076364124211 22.450280085238667 0.2929850779896433
0.9624983976411156 13.020978622069661 4002.0476347413733 23.48076937004874 0.29722208654381144
0.988023726513244 13.02736161399142 3514.3979779643237 24.556984797025738 0.3015406960303402
1.013770795770147 13.033816077631403 3073.629504423791 25.680824439939858 0.30594220432422553
1.039738295545604 13.04027621718251 2719.711013059906 26.854340054554168 0.31042853593667646
1.0658935686982267 13.046603696971909 2396.6134811719676 28.080587293629904 0.31500810524949113
1.0922294282849758 13.052740881849928 2114.379044920273 29.361568132721146 0.31968098724662997
1.1187317311885794 13.058565855647817 1867.1466317571512 30.7001471444262 0.3244526063497967
1.145365846439598 13.064029252933237 1650.927669507197 32.09961435052535 0.329330272937963
1.1721334592973158 13.069031448485429 1461.1661562072438 33.562029479163876 0.334312450123576
1.1989937185364914 13.073485429757607 1294.5322971442777 35.09188133570139 0.33941233662084025
1.2259435050529812 13.077352590576439 1148.2553673318157 36.69112556006321 0.344626275118877
1.2529422226543108 13.080518693855069 1019.4303785325606 38.364881865376056 0.34996911566693384
1.2799884189728372 13.082948007076308 906.0541832195237 40.115467641364184 0.3554378715596047
1.3070400147934662 13.084548330542688 806.1759008487171 41.948211613191766 0.36104626333722356
1.3340749114538388 13.085236507303742 718.0182041662612 43.86675122019527 0.36679707652288324
1.3610856348555034 13.085026870926034 640.1422623016244 45.87562440755117 0.37269721840772035
1.3880269745788365 13.083778967421535 571.3502028728453 47.980244060356306 0.37875707691693117
1.414872088629146 13.081452440639852 510.4428398640229 50.18546042081207 0.38498276714624935
1.4416048819438536 13.078004186803152 456.52885936844376 52.49632293649773 0.39138036373462054
1.4682019402605533 13.073398652299858 408.7009600077676 54.919338608993826 0.3979620148245275
1.4946121615259018 13.06752297487462 366.24727729316714 57.46070259557035 0.4047367903101123
1.5208252580098531 13.060368019556742 328.59130953000164 60.12704863623667 0.41171447090151414
1.5468102952052902 13.051873072586494 295.057896312724 62.92548854023506 0.4189056066638405
1.5725280687840413 13.041978975379815 265.2528505028958 65.86365545386117 0.42632158033731943
1.5979410186512624 13.030633930975812 238.72118905243977 68.94975129358521 0.43397467599825734
1.6230505471937837 13.017817089810018 215.05596462948517 72.1925987761968 0.44187815368899636
1.6477924817966352 13.003453033268292 193.93033957703625 75.60169853181681 0.45004633072097844
1.672140810612961 12.9875066205682 175.09470643363136 79.18685109951804 0.4584928300492535
1.696077520936748 12.969943663493643 158.23467799394643 82.95854704398221 0.4672321536904782
1.7195566225960923 12.950714961193384 143.15876769944984 86.9293950143544 0.476285271905489
1.7425392104681947 12.929762297144196 129.67099461438718 91.11082790027156 0.48566592092392086
1.7650182240598626 12.907095019138922 117.57588094185336 95.51725860722048 0.49539727818119433
1.786929496902261 12.882613652892642 106.73395536832723 100.16205110211193 0.5054956334999923
1.8082799812815247 12.856369037301821 97.0048739479177 105.06190505366341 0.5159873364778896
1.8289846817887645 12.828207675932568 88.26083744433168 110.23337969377995 0.5268949506838749
1.8490637510360788 12.798229337565601 80.40116345546299 115.69431888602867 0.5382425860751237
1.868435984783934 12.766271615524824 73.32306889569169 121.46457635349574 0.550058212788467
1.8871116974726851 12.732430139510026 66.9543525207955 127.56559555950946 0.562371678527559
1.90502948866842 12.696596252720292 61.20499457462949 134.02019693904012 0.5752135891312156
1.922166862113856 12.658757002364542 56.02777792150069 140.85393979042595 0.5886197257605089
1.936181943808032 12.621638716369075 51.867152966169826 148.55362078793522 1.329555181639156
