M[M_sun], R[km], Lambda[1], P_c[MeV/fm^3], rho_c[fm^-3]
0.24162668629717493 15.618656898711224 2160425.4255784233 3.5677272577965504 0.1711233750220791
0.2536422126157247 15.277356968697653 1723281.814976686 3.7848061925595724 0.17388800586102346
0.2660383974756552 14.98130818636044 1383092.4904391496 4.011373288590475 0.17666632039140576
0.2788119022704861 14.723614433922666 1116506.9667809014 4.24768505499482 0.1794570136320794
0.2919655095529346 14.498487908612253 905891.7975682036 4.494366442968177 0.18226664758503155
0.3054998233249587 14.301304267933562 738673.930113924 4.751571611651176 0.18509090020507285
0.319415756116521 14.128205586319169 605157.7332271325 5.019985223763403 0.1879364425391962
0.33371281234406747 13.976007436757474 497714.8979798421 5.29982803709212 0.19079983316778737
0.3483926227370835 13.842096778563562 411040.33577343274 5.591832477007068 0.19368744592556839
0.3634532422681488 13.724068568551997 340679.92764005414 5.89616100632933 0.196594254923695
0.37890618791082076 13.620064992396774 283346.1853770157 6.213679670757622 0.1995279823538857
0.39473714578586544 13.52852713690508 236431.99150874172 6.544649147599996 0.20248486473007513
0.41096078162403615 13.447931055034472 197890.50419662698 6.889765299703614 0.20546850298794242
0.4275674285643091 13.377110265993284 166102.4080594291 7.2497360452617725 0.20848202307061653
0.4445610356969401 13.314997486753251 139824.22761640156 7.624825093401521 0.2115210477171671
0.46194041140764996 13.260622648032435 118001.06144445618 8.015971942962409 0.21459159239040881
0.4797036038187832 13.21320854776513 98758.4557603848 8.423885811378705 0.21769537436405453
0.4978592745002072 13.172025331707255 83783.55283816787 8.849014057571944 0.22082995603137076
0.5163954768995677 13.136449070767112 71951.28887057124 9.292216945794975 0.22399856171265783
0.5353125092814783 13.105884255456914 61289.37389819235 9.754385174394459 0.22720419901341396
0.5546175118754756 13.079855891491235 52312.891799141275 10.23632809776115 0.23044821849485803
0.5742974719225292 13.057868756696047 44739.761060479315 10.738525831186573 0.23372743168870122
0.5943528645739198 13.039562280625395 38337.71182972807 11.26220510552103 0.23704780208205897
0.6147870381704441 13.024524119044639 32909.590817018856 11.808311712873826 0.2404110533111664
0.6355874601090505 13.012444438128377 28301.65338807726 12.377824361259204 0.24381881779290718
0.6567577598211489 13.003029366980478 24376.49877516523 12.971444381730581 0.24726918653594646
0.6782875235222064 12.995999030594659 21034.00007045446 13.590473752367412 0.2507666689455946
0.700173652978991 12.991072199285716 18177.916407729394 14.236121543500698 0.25431403563590355
0.7224056799584471 12.988008884949743 15734.246479344685 14.909577055006606 0.2579132704860041
0.7449912677731008 12.986653872809956 13638.106982889456 15.6118851686597 0.26156442451541206
0.7679082456855222 12.986754815863707 11838.962256272262 16.34428136356539 0.2652690882023609
0.7911514291248948 12.988135741431227 10293.279071907358 17.108395772893562 0.26903209975146297
0.8147235389035444 12.990660100387949 8958.993783058217 17.905682930532315 0.2728558907330102
0.8386032594903441 12.994119714795575 7810.001857012318 18.73752493288324 0.27674169494683865
0.8627817871096882 12.998393187870363 6816.863030209404 19.605232162068337 0.280689691330299
0.8872533475369232 13.003334461398373 5921.24503713189 20.510905967464737 0.2847063862290835
0.9120132353810448 13.008837354541653 5212.981576251998 21.456339788493427 0.28879479162369187
0.9370310737172088 13.014723789479019 4566.850194738021 22.443038967635772 0.292955002509588
0.962307239115413 13.020920078823146 4006.0994581899276 23.472985621797868 0.29719047442938773
0.9878280961475494 13.027321452127717 3517.735588924506 24.54862177714372 0.30150747372246095
1.0135686157333126 13.03377146386254 3093.2508822308473 25.671914522213516 0.30590781923576627
1.0395301258856933 13.040223684071924 2722.4672001912436 26.84477430493195 0.3103923982571039
1.065678837389604 13.046555549835443 2399.2754566509257 28.070320930753564 0.31497012550905484
1.0920078989216295 13.052686326667722 2116.5321320173084 29.35063754448661 0.319641643840401
1.1185045531936997 13.058520196142831 1869.2953548960265 30.68842182017925 0.32441124450873354
1.1451332689772222 13.063974702415525 1652.5837292627452 32.08713256162341 0.32928738674070274
1.1718931485191746 13.068990837035525 1462.7071473989135 33.54864480369069 0.3342673423872136
1.1987474968567176 13.073451304361486 1295.9395604728304 35.07753059473137 0.33936488261094705
1.2256909837253167 13.077318689007384 1149.5273423320803 36.675850401092156 0.34457699982058015
1.2526847467853515 13.080481572578273 1020.5539751619417 38.34858841400933 0.34991772252172487
1.2797229750294263 13.082929291510483 907.0564377071775 40.098034809335225 0.35538394020124
1.3067661912609105 13.084523149320376 807.083349167753 41.929649223449985 0.3609901464208445
1.3338011345135914 13.085229136069783 718.8416143700633 43.84685113920594 0.36673792319061893
1.3608069970427903 13.085034122373493 640.8933012263601 45.854428335723526 0.3726355831101143
1.3877372464135782 13.083781410071026 572.0667567885214 47.95766145516203 0.3786927995327247
1.414592481074063 13.081495550703337 511.03384208451683 50.161243633955046 0.3849149090407309
1.4413141111352332 13.07804839836965 457.07448543060156 52.470510414530004 0.3913094922204134
1.467906437770695 13.073456051128607 409.19417107188127 54.891816046580075 0.3978879290363346
1.4943147820680087 13.067595718091534 366.6974019070097 57.43134642798375 0.4046592738538574
1.5205264013228241 13.060458647740496 328.98594175417924 60.095725210287966 0.4116332905789994
1.5465081448678148 13.051978088725216 295.4224468262184 62.892053202472205 0.4188205110710068
1.5722239867170056 13.042105416850479 265.58518733351804 65.82795154682294 0.42623229832254095
1.5976471853240197 13.030785462422942 239.0296310733492 68.91160904977757 0.4338809149655199
1.6227280969257758 13.017945635784148 215.3327947748977 72.15183409818229 0.4417795977289846
1.647486183800206 13.003641780989003 194.18781935388213 75.55811164537816 0.4499426385510767
1.67183430985787 12.987717272159728 175.3098588033612 79.14045268560993 0.4583845830804382
1.695773376220939 12.970179228569672 158.440549520012 82.90888436752951 0.46711802900463106
1.7192379951688312 12.95094257057334 143.3471186593622 86.87621239925214 0.47616483944862686
1.7422406138184383 12.930049763760067 129.83733131919078 91.05410321062172 0.48553972936905765
1.7647213773231634 12.907411297172276 117.73458514345884 95.45644533588225 0.4952638402849346
1.786649293276995 12.882988588761117 106.86763046758652 100.09709629544781 0.5053554638451957
1.8079888012680971 12.85674459665037 97.12862213087739 104.99247185515145 0.5158398949353118
1.8287015783955565 12.828623405564105 88.37252071176233 110.15909522531182 0.5267396327358133
1.8487828410048395 12.798670201386912 80.50089838400109 115.6144894180203 0.5380776859412499
1.8681716738604397 12.766777284204649 73.41875632965223 121.37905118313586 0.5498841148830927
1.8868450387019722 12.73294110756592 67.04108663917883 127.47408404225153 0.5621883123717927
1.9047704857135814 12.697139212090454 61.28800552023113 133.9221315666887 0.575019977637166
1.9219160974199796 12.659340774156403 56.100309968218745 140.74860984798337 0.5884145029776781
1.938232419943564 12.619466395271594 51.416289169116304 147.98130112730058 0.6024105770062672
1.953745153383553 12.577676037160273 47.185201102752366 155.64883107860734 0.6170444470707308
1.9683547035520232 12.533730281055709 43.35935743737795 163.78467560169008 0.6323631753424205
1.9820790728889996 12.487749310360512 39.899468241425595 172.42242776240658 0.6484077784826796
1.9948712970048879 12.43969012225437 36.76293230430512 181.60164434145892 0.6652323921840688
2.006707269997369 12.389535039321036 33.921541825813215 191.3641436713889 0.682890886157403
2.017565899391499 12.337293026414379 31.342631273724606 201.7559185915737 0.7014424397976251
2.0274071580770743 12.28292642411641 29.004452715140904 212.82704039831296 0.7209502186597275
2.0362254003460403 12.226479680934116 26.882928864419064 224.63261238532456 0.7414833966763946
2.043976694594807 12.167905944235047 24.952931847034737 237.23408128384355 0.7631201477369367
2.0506436742535663 12.107221829961649 23.197945568821478 250.69798849504306 0.7859421349577642
2.056218905398677 12.044474330294008 21.60312172154878 265.0974789937075 0.810037808055586
2.0606800076425147 11.979667066876162 20.150823517489602 280.514443168397 0.8355075103261904
2.0639997922926923 11.912805770957208 18.830039399891646 297.03809829136577 0.862456721809279
2.0661634914813285 11.843913050404504 17.626601672387284 314.76890993547846 0.8910064213041101
2.0671649725527454 11.773043872572801 16.53030640647762 333.8163602043389 0.9212829590182774
