M[M_sun], R[km], Lambda[1], P_c[MeV/fm^3], rho_c[fm^-3]
0.24162668629717493 15.618656898711224 2160425.4255784233 3.5677272577965504 0.1711233750220791
0.253644026755567 15.277297774536345 1723211.2177638435 3.7848204795416294 0.17388818394136255
0.2660399978316533 14.981249292427517 1382956.296651474 4.011403322640798 0.17666668333517904
0.2788150607751876 14.723542965868578 1116416.5614251993 4.247731852173675 0.17945755640883224
0.29197007735452757 14.498402821482516 905874.3170726902 4.494431231229293 0.18226736901735566
0.30550462369930015 14.301233712837965 738632.4293840969 4.751656590808736 0.18509181814215964
0.3194216359413595 14.128139285952749 605121.5452178599 5.020091019751454 0.18793754021340572
0.33371904095831134 13.975955307028883 497673.26816616586 5.299957435169183 0.19080113599171317
0.34840038169344567 13.842031823255557 411008.61703108496 5.591985800202531 0.19368892936966225
0.36346294999194156 13.723989642192263 340638.1174680118 5.896341699186086 0.19659595202924435
0.3789163617917854 13.620006945526168 283304.8679247395 6.213889919839741 0.19952989957235823
0.39474860144589463 13.528462080746783 236411.09403899097 6.544888734569749 0.20248696558413373
0.41097347251495925 13.447873521932351 195376.6386348 6.890038849664377 0.20547083265419905
0.4275813996688204 13.37706310251063 166091.8714889283 7.250046125074659 0.2084845882814419
0.44457635988629424 13.314950859394298 139805.7715377902 7.625170845996591 0.21152380013014205
0.4619575538289325 13.260581324874464 117983.21015859675 8.016359398939628 0.2145945896756373
0.47972221711128527 13.213158046176495 99814.34764999906 8.424317991938642 0.21769862375768792
0.4978797646271145 13.171983557653304 84646.27930269497 8.849489369164178 0.22083339749038355
0.516416809234812 13.136411311409184 71937.65352153973 9.292743080237857 0.22400226573193638
0.5353359786401736 13.105849833358818 61277.26658794138 9.754965698865812 0.22720817359123432
0.554641981612895 13.07982399981688 52300.440567153426 10.23696679618889 0.2304524719772297
0.5743249485342359 13.057838713859459 44730.43515926515 10.739219928411002 0.23373188800788644
0.5943816804501889 13.039534515629363 38329.29137028011 11.262965039458285 0.23705255016305093
0.6148182921193713 13.024503789993847 32902.02026504433 11.809141972653915 0.24041610267588723
0.635621620303576 13.012447803311323 28292.361821828737 12.378729716069099 0.24382417846591659
0.6567924012987751 13.003014230542878 24371.288590955286 12.972420674050701 0.24727476662250075
0.6783240211315829 12.995973971793823 21028.399755871156 13.591534845328779 0.25077257682691967
0.7002111701851091 12.99106159470277 18172.169617041232 14.237273126255234 0.2543202830285499
0.7224457704041873 12.988005463486608 15730.110293551114 14.910825182234351 0.2579198698051423
0.7450337225012202 12.986640855994638 13634.267356606098 15.613224106485816 0.2615712682774266
0.7679539862863692 12.986750242163541 11836.511012014234 16.345729243369465 0.2652763055200434
0.791198287854182 12.98813543208519 10289.31444708295 17.109959860950134 0.2690397053820374
0.8147727091623272 12.990655721405577 8956.682988920344 17.907370974846998 0.2728639003825824
0.8386538635656762 12.99412549682628 7807.636784908511 18.739329446451762 0.27674998575300563
0.8628354739097758 12.998397546997362 6814.818717200244 19.607176607030482 0.28069841482854685
0.8873141196972619 13.003353432407064 5955.437357671378 20.51299970193458 0.284715561298169
0.9120705302230051 13.00884182143762 5180.638948066762 21.45859281138743 0.28880443841527786
0.9370911486070241 13.014737149071271 4565.46846876681 22.445441893928574 0.2929649828973896
0.9623693344361501 13.020933446564493 4004.5685701980124 23.475568605177067 0.2972009646923698
0.987893291549877 13.02732889743762 3516.662964477724 24.551396974838973 0.30151849826545596
1.0136358723712964 13.033791874144576 3092.0324977491055 25.674871192143172 0.3059192295944473
1.0395996836667754 13.040246076968137 2721.5579448848025 26.847948591250933 0.3104043901392247
1.0657503538458202 13.04656778366119 2398.3965532603206 28.07372769136062 0.31498272859791343
1.0920820357396723 13.052699557687012 2115.900244616093 29.354264705655652 0.31965469939352126
1.1185793236003687 13.058533967182903 1868.6544712629807 30.692312684265705 0.3244249697839202
1.1452101218544126 13.063991662595228 1652.1634464319675 32.091274430161015 0.3293016177930403
1.1719729475222023 13.06900494355609 1462.0949101981792 33.55308625759059 0.33428231054478935
1.1988291889631764 13.073458337302284 1295.5296378795922 35.08229259535248 0.33938062925601975
1.2257748276230356 13.077332991480546 1149.1069436448365 36.68091913009669 0.3445933507557264
1.252769372339427 13.08049760345762 1020.1862905387471 38.35401631912135 0.3499349011034201
1.2798117824374888 13.082938336249066 906.7352930412702 40.10381946075388 0.35540183598020214
1.3068553821747142 13.084518824387185 806.7576229360322 41.935808663943256 0.3610087673426068
1.33389193094185 13.085233726667793 718.6139519146727 43.85345442181897 0.36675755156151113
1.360900149401836 13.085032557335134 640.6494453697139 45.8614616251261 0.3726560349602968
1.3878308592503914 13.083778509090605 571.8212813948651 47.96515479062965 0.3787141279843669
1.4146872389857275 13.08148354064823 510.83377572295393 50.16927917659633 0.38493742551674687
1.441410722677262 13.078033569403443 456.8932385128787 52.47907540889704 0.3913330084859192
1.468004824590968 13.073436245335197 409.04528379802076 54.90094841490155 0.3979125117294353
1.4944134421401234 13.067571883365387 366.5372080407477 57.44108716410979 0.40468499476390385
1.5206252591178209 13.060427798041967 328.8492387275044 60.10611865468864 0.4116602270695949
1.5466088226037678 13.051942817137594 295.30315138862375 62.9031473446733 0.41884874654493204
1.5723243312752895 13.042064034532496 265.4729819617702 65.83979835833695 0.42626192273310026
1.5977487792108458 13.030736956697375 238.92976195169283 68.92426485095451 0.4339120253793292
1.6228357800591242 13.017917799736637 215.24872682065973 72.16535996283116 0.4418122989458318
1.6475875990440279 13.003579712166383 194.10533056471562 75.57257384748154 0.4499770437871508
1.671936804017808 12.987645235536831 175.23900028605763 79.15584768338601 0.4584204994341196
1.6958736088303428 12.97010130149627 158.36765946195294 82.92536235063136 0.46715589536180746
1.7193543492053969 12.950890550772348 143.28408889810157 86.89385818466157 0.47620479847068764
1.7423399651855367 12.929950403315237 129.78189504163566 91.07292414353839 0.4855815990170609
1.7648206260369286 12.907305177037905 117.68422529524715 95.47662270881733 0.4953081139465426
1.7867467386342453 12.882870986314046 106.82744878054397 100.11864767691 0.5054019707914108
1.8080857647970698 12.85662001952525 97.0872460753133 105.01550899056741 0.5158888143406554
1.8287961455807533 12.82848752481802 88.33609005572636 110.18374544860015 0.5267911786802985
1.8488756773481403 12.798525326973218 80.4688715242984 115.64097557033728 0.5381323971922684
1.8682630896952588 12.766618896904532 73.38301478444671 121.40742689838144 0.5499418774407931
1.8869329191427118 12.73277076285941 67.00962971222317 127.50450861807005 0.5622493742526985
1.9048559656213904 12.696959816382016 61.258282029608665 133.95466748772628 0.575084213647608
1.921999422338677 12.65914590793347 56.07743127751541 140.78355574701175 0.5884825908782391
1.938313821618225 12.619273488844073 51.39448673479172 148.01886625618894 0.6024828354006657
1.9538113658179317 12.577420874551336 47.16321968151848 155.6891215511476 0.6171208015493278
1.9684288787413378 12.533496021111793 43.340318327004134 163.827935552825 0.6324439852906558
1.9821450466929096 12.487499701536976 39.88122444906976 172.46905546504456 0.6484938714374331
1.994936087614603 12.43942793971908 36.74706159738763 181.65180881031418 0.6653237674596585
2.0067726954700706 12.389272310531187 33.90419468594414 191.41817063325604 0.6829880110747075
2.017621722879997 12.337002748637605 31.329201470631354 201.81416735889803 0.7015458256138587
2.0274609988925185 12.2826210147 28.992991677975574 212.88976089583676 0.7210599444176973
2.0362714846224685 12.226161106921964 26.87090325797928 224.70038507757283 0.7416005433883847
2.044017818071544 12.167571226121554 24.943379105441167 237.3072363107834 0.7632448837780044
2.0506785065402044 12.106870935204197 23.18854360446416 250.77714726812636 0.7860754753099983
2.0562542844766245 12.0441289310244 21.594950881891187 265.1832046453839 0.8101804605205309
2.0607026618794033 11.979285409464115 20.143114263220035 280.607154463022 0.8356595784277402
2.064009845707484 11.912392265806444 18.822321174202255 297.13868271594293 0.8626196865999234
2.066172045458356 11.843499387735044 17.618674910784325 314.87817508519646 0.8911813333180076
2.067167371740661 11.772613983303964 16.52443145715573 333.9350266570662 0.9214703832013509
