M[M_sun], R[km], Lambda[1], P_c[MeV/fm^3], rho_c[fm^-3]
0.24162668629717493 15.618656898711224 2160425.4255784233 3.5677272577965504 0.1711233750220791
0.2536441538780696 15.277273177593603 1723179.871356314 3.784823316885291 0.1738882193074825
0.26604057715583995 14.981234027849997 1383043.1293305922 4.011409287315201 0.17666675541474908
0.27881510605939197 14.723514143259507 1116437.5696003975 4.247741145985111 0.17945766420303944
0.29197040946427244 14.498397484818142 905862.6029479835 4.4944440980669125 0.1822675122925788
0.30550584685665927 14.30121658282601 725416.7518787124 4.7516734675754835 0.1850920004434503
0.319421697075116 14.128125241350768 605100.6763946654 5.020112030778598 0.18793775821092185
0.33372039643649704 13.975957514253963 497691.1723538769 5.29998313363545 0.190801394732627
0.348401910913516 13.8420199696441 411002.15304551314 5.592016250283622 0.19368922398257335
0.3634652235508693 13.723963661177697 340638.44754408393 5.89637758500354 0.19659628907643611
0.37891889639454396 13.6199826920912 279386.5972317902 6.213931675679849 0.1995302803353427
0.3947509203566527 13.52845756894676 236411.5521248861 6.544936317092208 0.20248738281857484
0.41097671999367813 13.44784611902509 197862.3684178089 6.8900931774691525 0.2054712953325823
0.4275844644080665 13.377042088341813 166075.37888366226 7.250107707986411 0.20848509774108848
0.44457922327264165 13.314923427536227 139798.0982277045 7.625239513818518 0.21152434677015786
0.46196100921663635 13.260564741331004 117979.63534404755 8.016436349430558 0.21459518494989646
0.47972570921086 13.213164702529033 99809.21556580922 8.424403825169044 0.2176992691035879
0.4978830990768875 13.17197973996297 84641.28931139622 8.8495837686636 0.22083408098309315
0.5164213117678286 13.136402674898846 71935.17332083087 9.292847573720225 0.22400300137256668
0.5353406353056263 13.10584436540086 61275.650039276596 9.755080994850225 0.22720896296857335
0.554646558375883 13.079809707575784 52297.28598993666 10.237093646248244 0.23045331674914063
0.574329431241244 13.057853322456046 44729.00364028564 10.739357781387048 0.23373277306669418
0.5943873243783228 13.039522954076299 38327.89550575839 11.263115968510686 0.23705349317050162
0.6148238064734237 13.02450298686381 32900.61528001774 11.809306869432469 0.24041710552342502
0.6356290452254542 13.012429914661446 28291.310178117245 12.378909527852823 0.2438252431448306
0.6567991237638332 13.003013483110704 24369.912252801285 12.972614575113198 0.2472758748814611
0.678330893631571 12.99598661135177 21027.339249610064 13.591745589178391 0.25077375019221265
0.7002195731616176 12.991062930440604 18171.862424530027 14.23750184290887 0.2543215238275584
0.7224545193460054 12.98800306626894 15729.161131264003 14.91107307431641 0.2579211805040238
0.7450418047947216 12.986641130668746 13633.9136337707 15.613490035161142 0.2615726275284174
0.767962366332734 12.986760703525686 11836.274536698911 16.34601680996236 0.2652777389673848
0.7912070655127311 12.988136056929838 10288.65359204092 17.110270508753587 0.26904121595711145
0.8147825102692833 12.990659474499532 8955.983757497543 17.907706242844803 0.2728654912052592
0.8386644153118581 12.994125494047712 7807.198521718528 18.739687847577873 0.27675163242073836
0.8628461721253197 12.99840239233991 6814.395070717856 19.607562801494883 0.2807001474395485
0.8873257437574107 13.003359641803218 5919.135452779228 20.51341554855355 0.28471738360253135
0.912082527527249 13.008852368958847 5211.08177365174 21.459040296267688 0.2888063544159493
0.9371024231374089 13.014738204354583 4565.109911746839 22.445919152981507 0.2929669651597854
0.9623862712456104 13.020951795213513 4004.3376028297453 23.47608162782589 0.29720304822978055
0.9879072251797966 13.0273337405919 3516.5273021439807 24.551948175924057 0.3015206879256996
1.0136486762849293 13.03379604837007 3091.7909084228477 25.67545843800107 0.3059214958893101
1.0396134466139122 13.040246328186846 2721.2260187557813 26.848579061275448 0.3104067719414489
1.0657641462986294 13.046571128937751 2398.1873032741332 28.074404336866966 0.3149852318038694
1.0920962442378248 13.052703555215041 2115.712878038508 29.354985128445527 0.31965729247322294
1.1185943606736237 13.058539648390523 1868.4976314146106 30.69308548568668 0.324427695891009
1.1452256665025027 13.0639935001243 1652.0578886084782 32.09209708789885 0.32930444436399897
1.1719890276273295 13.06901031354027 1462.005249892985 33.55396842157602 0.33428528352837517
1.1988446886598512 13.073469589747775 1295.3876567574828 35.08323842934206 0.33938375687260713
1.2257906952160886 13.077329775741203 1149.0198360084953 36.681925889295115 0.3445965984050576
1.2527866311202422 13.080494686845352 1020.1239585533955 38.35508808931788 0.34993827600502214
1.2798291473944152 13.082932620938958 906.673776756296 40.104968424061546 0.35540539048883224
1.306872737887572 13.08452124296269 806.7040239188217 41.937032072021296 0.3610124658905722
1.3339113537199714 13.085236744904517 718.5669087086559 43.85476599145959 0.3667614502247769
1.3609183193569867 13.085031726486937 640.5885287123846 45.862858608092154 0.37266009719699633
1.3878491423754808 13.083773976211967 571.7836928277868 47.96664315399644 0.37871836434696293
1.4147059964548794 13.081482731334258 510.79391151659144 50.1708752411797 0.3849418978655994
1.441431897520873 13.078026943252809 456.87146766997853 52.48077664092877 0.39133767943168174
1.4680240565906828 13.073432571842146 409.00322844277997 54.90276234744414 0.39791739450961133
1.4944331514217621 13.067570085006173 366.5195509896824 57.443021940423364 0.4046901036393397
1.5206452743959584 13.060423365705962 328.82290041797836 60.10818308286432 0.4116655774085196
1.5466286332122043 13.051934291312046 295.27834930391174 62.905350957718994 0.41885435491532835
1.5723455592143907 13.042054459638406 265.4568755592068 65.84215148032075 0.42626780700429523
1.5977689515591316 13.030726376272339 238.9094203576946 68.9267786698881 0.43391820483380794
1.6228559681912638 13.017904015076173 215.2287245680138 72.16804661105724 0.4418187944023896
1.6476081786008585 13.003567241739988 194.09323660400406 75.57544649042586 0.44998387773663856
1.6719565888483237 12.987633205991695 175.2271697793452 79.15890561728318 0.45842763355891664
1.6958937174521909 12.970082022791063 158.35379400260413 82.92863541119775 0.4671634168454563
1.719374281482873 12.950873650820414 143.27384590041785 86.89736322117028 0.4762127356538691
1.7423564777563112 12.929930411740658 129.77274531604976 91.07666261491873 0.48558991573980026
1.7648397381217464 12.907286461937584 117.67446092742917 95.48063063006501 0.49531690822068536
1.7867693580825028 12.882849839145589 107.02141601820837 100.12292853786589 0.5054112087036338
1.80810486935641 12.856595176383278 97.08024990254668 105.02008499020039 0.5158985314854676
1.8288149636531714 12.82845986038857 88.32494267679114 110.18864080064486 0.5268014135592223
1.8488954620387077 12.798495224144034 80.46189767971454 115.64623670902931 0.5381432648893267
1.8682718471362003 12.766556467263165 73.38588684269575 121.41306339619837 0.5499533512848024
1.8869506644006033 12.732737554363204 67.00629075519721 127.51055212131013 0.5622615035154794
1.9048745171531356 12.696923542080828 61.25522129367791 133.96113040910188 0.5750969734611227
1.9220158771616087 12.65910673305121 56.071534714301066 140.7904974144237 0.5884961158861403
1.9383293659080167 12.61922042039101 51.39000552111229 148.02632824069914 0.602497188899128
1.953826423107791 12.577377727352866 47.159002192658335 155.69712493323294 0.6171359687595294
1.9684428993606347 12.533449021017208 43.33807950653534 163.83652883383442 0.6324600376109966
1.982158432594326 12.487451473451118 39.87846963033928 172.47831776997467 0.648510973270767
1.9949483873307707 12.439377561750943 36.74407636412857 181.66177371647356 0.6653419186743991
2.0067852745782617 12.389218229212268 33.90213836116299 191.42890285294413 0.6830073045147544
2.0176332491543145 12.336945531222808 31.327466165622003 201.82573827742627 0.7015663628528693
2.0274695384069537 12.282561648814191 28.99052548630001 212.9022201652881 0.7210817411641879
2.0362805709509284 12.226097720826225 26.868590679473893 224.71384802257225 0.7416238144093235
2.044026246280605 12.167504508274506 24.94159336877689 237.32176852091587 0.7632696625312319
2.050685797544711 12.10680101781474 23.186459959349516 250.79285373748675 0.7861019033154871
2.0562601532571936 12.044056517740618 21.593850478729877 265.2002341905976 0.8102087986731622
2.060707099213702 11.9792092807439 20.14198232208023 280.6255718147974 0.835689787171253
2.064012880178988 11.912314598356389 18.82103117622136 297.15866420335993 0.8626520601898441
2.06617490642871 11.843416400208167 17.618208519624858 314.8998811644031 0.8912160804815603
2.0671675670366705 11.772528544075355 16.522795323010588 333.95860049428524 0.9215076161941735
