M[M_sun], R[km], Lambda[1], P_c[MeV/fm^3], rho_c[fm^-3]
0.24162668629717493 15.618656898711224 2160425.4255784233 3.5677272577965504 0.1711233750220791
0.2536439456603785 15.277300192218538 1723256.7977059772 3.784818956236622 0.17388816495410048
0.26603983818312243 14.981272121714241 1383011.9914639108 4.011400120345971 0.17666664463733592
0.27881468323697545 14.72352587783768 1116471.480030259 4.2477268625466245 0.17945749853667767
0.2919687436506348 14.498437417114157 905917.8765684527 4.494424323334504 0.18226729209634393
0.30550454605783944 14.301222517742712 738642.7895555488 4.751647530086775 0.1850917202690698
0.31942044776515854 14.128153771573617 605083.1629615065 5.020079739454849 0.18793742317597464
0.33371856368542646 13.975978578721 497696.05347235536 5.299943638313871 0.1908009970802733
0.3483995622909159 13.842038765675241 411012.7950095081 5.591969452337231 0.19368877119956834
0.3634619787033097 13.72400383481513 340651.88571890665 5.896322433028092 0.1965957710774113
0.37891539633739085 13.620007913456263 283310.02111200633 6.213867502236434 0.19952969515080862
0.3947475860848512 13.528457827672769 236402.11737382034 6.544863188792415 0.20248674158217717
0.4109715715987571 13.447906357355487 197867.7388090522 6.8900096825473645 0.20547058425479106
0.42757884389738343 13.37708257694733 166056.0475383946 7.250013062912285 0.2084843147666457
0.4445747250664169 13.31493105190088 139804.11800508617 7.625133980165606 0.21152350665442277
0.46195577772999674 13.26057890651992 117981.08456203711 8.016318086404787 0.21459427008978058
0.4797204719077058 13.213175286162732 99815.99644399727 8.42427191054546 0.2176982772900318
0.49787696408440224 13.171992719403082 84647.68690839356 8.8494386888189 0.2208330305430297
0.5164145960848665 13.13641085210085 71940.69742754135 9.292686980765682 0.2240018707881549
0.535333829248103 13.105844207405633 61279.22364059741 9.75490379989139 0.2272077497980904
0.5546406949932446 13.079821037576707 52301.415253329964 10.236898694223347 0.23045201844470586
0.5743220425029603 13.057843861158423 44732.506466172126 10.73914591935567 0.23373141284682608
0.5943777542142389 13.039556219160842 38330.14487110138 11.262884010312133 0.23705204389147946
0.6148149504708362 13.024523946842576 32903.785103539994 11.809053444727532 0.24041556427838923
0.6356188564546468 13.012433604967555 28292.826485356873 12.378633180808597 0.24382360687347596
0.6567887686643271 13.003029278561762 24372.66892256416 12.972316574761749 0.247274171633653
0.6783204354455091 12.995979550734528 21028.654142811887 13.591421703762157 0.2507719468849891
0.700207373387004 12.991065313229228 18173.303817206313 14.237150335754137 0.25431961688408866
0.7224406722084835 12.988008173499844 15730.22777280226 14.910692097162725 0.25791916613420185
0.7450289460184889 12.986640138779547 13635.005701958442 15.613081338243447 0.26157053854087353
0.767947993773187 12.986758319035175 11836.725652295949 16.345574858555565 0.26527553595046716
0.7911927727129904 12.98813254863595 10289.360332380136 17.109793084726068 0.269038894405735
0.8147656329886189 12.990673844661528 8956.699787798923 17.907190981002657 0.2728630463246612
0.8386493668819952 12.99412100090114 7807.908793190276 18.739137033335286 0.2767491017142926
0.8628294433212292 12.99840266673555 6815.044916736453 19.606969272778933 0.280697484650519
0.8873082531555456 13.003352619363316 5955.647836676037 20.51277644863685 0.2847145829676024
0.9120642023547907 13.008850606666572 5211.489162610392 21.45835257279715 0.28880340978320423
0.9370841122179338 13.01473594729993 4565.495079031194 22.445185670797265 0.2929639186923734
0.962361590062204 13.020935777545064 4004.6209493379833 23.475293182058156 0.2971998461172477
0.9878870237676153 13.027333868664563 3516.7973658537844 24.551101055322306 0.3015173227176958
1.0136288280020445 13.033790669090934 3075.5674437760417 25.674555921699664 0.30591801290508813
1.0395929630125598 13.04024594020967 2721.662829496885 26.847610115604954 0.31040311143918337
1.0657427698354394 13.046565488936045 2398.496608863924 28.073364426098962 0.3149813847217507
1.0920742496862628 13.052696495419541 2115.898865715793 29.353877938261668 0.3196533072683793
1.118571485106043 13.058536800208062 1868.7387659631504 30.69189779709848 0.32442350624255384
1.1452020278960773 13.063989255235906 1652.214571319412 32.09083277733279 0.32930010031742357
1.1719649763783317 13.06900514101269 1462.176072207725 33.55261265853852 0.33428071446715374
1.1988203954500745 13.073459257839465 1295.5255783918565 35.08178481477451 0.33937895016330805
1.2257662422071973 13.077331132041849 1149.1700140898438 36.68037864153933 0.3445916072233062
1.2527613127792572 13.080488846178298 1020.2661447033631 38.35344092913599 0.3499330892555169
1.2798021074175598 13.082931327553739 906.7992754761359 40.10320262940454 0.35539992771007733
1.3068457559585869 13.084516700116543 806.7933766890594 41.93515186667425 0.3610067817449582
1.3338824153105897 13.085232417875567 718.6549074790597 43.85275029482217 0.366755458531929
1.360889633035828 13.085034049002799 640.6814718363446 45.860711643786814 0.3726538541164394
1.3878205982714642 13.083774338406272 571.8583261933865 47.96435575155039 0.37871185366121185
1.4146776469002036 13.081487938128383 510.8631019477587 50.16842231803872 0.3849350245046407
1.4414003386114806 13.078037467957898 456.9232355624429 52.47816209110385 0.3913305008574497
1.4679942581897276 13.07343762931472 409.04085997128396 54.89997459379566 0.3979098903781562
1.4944029097207598 13.067576138903979 366.55249653121206 57.44004846803819 0.40468225203400365
1.5206146439486765 13.0604331253322 328.86936855304356 60.105010355093526 0.41165735471078196
1.546598149211783 13.051946823985332 295.3176679849671 62.90196432383676 0.4188457356628487
1.5723139631907028 13.042067341368655 265.48899848304836 65.83853507387342 0.4262587637347861
1.597737976902458 13.030742028812249 238.94646120838055 68.92291529668506 0.43390870791319697
1.6228251201013852 13.017923028354133 215.2577789552262 72.16391762562937 0.44180881183555626
1.6475765119886112 13.003588034012912 194.11480769018416 75.57103165963021 0.44997337495879974
1.6719259822755508 12.987653481156462 175.2489460842161 79.15420602266866 0.45841666945844783
1.6958636693758347 12.970107927392597 158.37684421735935 82.92360520010756 0.4671518574350214
1.7193436160141842 12.950900123934629 143.29220418521004 86.89197649901473 0.4762005373785045
1.7423294980686135 12.929960343555125 129.79042180574922 91.07091713952998 0.4855771341718938
1.7648093002245901 12.90731752250157 117.68865308825036 95.4744710523157 0.4953033927317365
1.7867360055816992 12.882884660588568 106.83451807017646 100.1163494944086 0.5053970114132766
1.8080754679497502 12.856632968269668 97.0924361460909 105.0130523648666 0.5158835976908304
1.8287860768301587 12.828502044274481 88.33987584600102 110.18111738092088 0.5267856840898675
1.848866416141164 12.798540431317493 80.4704414730612 115.63815113327387 0.5381265628799337
1.868252516432223 12.766636298758065 73.38652140154575 121.4044009530694 0.549935717725023
1.8869236061419359 12.732789684060043 67.01363857563285 127.50126417575026 0.5622428626828506
1.904847488073472 12.69697864955369 61.264053225278005 133.9511978847735 0.575077363574077
1.9219904968106034 12.659165811045613 56.07964699513566 140.7798291344343 0.588475330019779
1.9383056586670515 12.619294991128637 51.397353581144 148.01486031740015 0.6024751297780976
1.9538033617903845 12.577443680816739 47.16671585399584 155.6848249694317 0.6171126590968823
1.9684203824478677 12.533522119135984 43.34277110010504 163.8233222912424 0.6324353676796806
1.9821377448636681 12.487526681432287 39.883106908290806 172.46408304721507 0.6484846904115839
1.9949271264382629 12.439457145523514 36.74697632466715 181.64645921093228 0.6653140230902079
2.006766531820478 12.389301061375386 33.90609876573767 191.4124091130646 0.6829776535207603
2.017615919386433 12.33703370485844 31.3303939565809 201.80795559646518 0.7015348003482803
2.0274539678003283 12.28265442450809 28.994357376919005 212.88307223654454 0.7210482430084353
2.036266861464446 12.226194799263187 26.87196415563946 224.69315761261393 0.7415880505431417
2.0440144833630076 12.16760693614142 24.945353875381713 237.29943483002253 0.7632315815366509
2.0506755396655825 12.106908010236415 23.189686699603165 250.76871540845 0.7860612877017782
2.056251295168001 12.04416879981266 21.596081784254793 265.174062519219 0.8101652474914461
2.060700460165584 11.979326156438795 20.143591321266786 280.59726732123187 0.8356433612139923
2.0640078261264985 11.912437267573798 18.82297018283684 297.127955902047 0.8626023072393695
2.06617207573461 11.843543383965484 17.620180845081084 314.86652246361183 0.8911626797627449
2.0671692156278163 11.772658893794699 16.524977231471055 333.9223713735999 0.9214503951920128
