M[M_sun], R[km], Lambda[1], P_c[MeV/fm^3], rho_c[fm^-3]
0.24162668629717493 15.618656898711224 2160425.4255784233 3.5677272577965504 0.1711233750220791
0.2536370609491063 15.27745590205548 1723355.2827670905 3.784706366424438 0.17388676157640673
0.26602611093501144 14.9815888223541 1383430.2344946521 4.011163438880527 0.17666378448150588
0.2787945540845513 14.723938095480191 1116798.0256469098 4.247358087056353 0.17945322129672334
0.29194252707144425 14.498819910949948 906282.2473887416 4.493913781970862 0.18226160709976932
0.30547032085745246 14.301656390680813 739047.3870233548 4.75097789352707 0.1850844869162044
0.3193766739228031 14.128685528570047 605396.1595417564 5.019246080368347 0.18792877364118935
0.33366758231041355 13.976446460483649 498044.985312724 5.298924015756751 0.19079073117298287
0.3483391656291998 13.842504792269363 411301.61672619113 5.590761326098997 0.19367708224586935
0.3633920155436094 13.72450921788807 340942.85323552764 5.894898669258179 0.19658239878678374
0.37883644700647123 13.620493686576475 283566.92415987974 6.212210879505964 0.19951458874621036
0.3946569710682617 13.528964712161892 236662.3084874089 6.542975432606303 0.20247018851065865
0.41087194111509523 13.44833800128598 198077.2138457661 6.887854361028749 0.20545222863229298
0.42746782897276064 13.37752042519709 166287.7040681314 7.2475699606499235 0.20846410360774262
0.4444527245335548 13.31535817970845 139978.65251273345 7.6224098547084145 0.2115018208641766
0.4618209329254899 13.260972390136152 118132.9730182922 8.013265437303513 0.2145706553810214
0.47957401960461254 13.213528174527148 99957.55663069333 8.420866945601116 0.21767267671370402
0.49771790601145577 13.17232889077772 84764.73857866127 8.84569396682168 0.2208059171557732
0.5162428645145728 13.13671153052339 71331.65372360335 9.288541920014067 0.2239726893020491
0.5351477571901434 13.106141913914048 61371.66590647464 9.750330310124882 0.2271764372662597
0.5544409533722139 13.080078925249929 51903.14938099659 10.23186697893629 0.23041850918377255
0.5741068244447202 13.058052756592032 44402.717694575535 10.73367784340972 0.23369630610545516
0.5941550342531315 13.039721811454458 38395.22619234821 11.256897370011957 0.23701463925454794
0.6145742669595603 13.024657609008756 32960.741801198485 11.802512892340298 0.24037578680720414
0.6353596557005154 13.01256367590078 28347.00117600111 12.371501164132772 0.24378137767352157
0.6565127381669679 13.003102865949133 24421.121345211108 12.964625843924654 0.24723021456992078
0.6780323577591745 12.996065751751209 21071.166523547843 13.583063088944996 0.2507254083570941
0.6999036493640935 12.991113360876907 18209.728363293932 14.228079043372551 0.254270404680194
0.7221231917168413 12.98802417722931 15762.812220927251 14.90086045655843 0.25786718254426194
0.7446920722624838 12.98665639519318 13663.08555967236 15.602534510345308 0.26151663015264565
0.7675962798238416 12.986741388411476 11861.880235955634 16.33417007408887 0.2652186859603194
0.7908241733396247 12.988110403769316 10312.21830746345 17.097473136743556 0.2689789866705804
0.8143809434483128 12.99061569300382 8977.657314254562 17.893894871109428 0.27279995723393524
0.8382477815128534 12.994051139895975 7825.434997333218 18.72492372272037 0.27668379890618156
0.8624089059592108 12.998321699367178 6830.883478276823 19.59165403328428 0.28062877482972265
0.8868656912173946 13.003253918711353 5970.245566328935 20.496285609843774 0.28464231755506614
0.9116080986172822 13.00873705879641 5224.197430454861 21.440607421257113 0.2887274301830748
0.9366094460530154 13.014626525274496 4577.200248773756 22.426260105929583 0.29288531267049567
0.9618707544283114 13.020815325010238 4014.706665167647 23.454949811725736 0.29711722564572346
0.9873784032176752 13.027199889973913 3525.869037978423 24.52924418087863 0.3014304957314766
1.0131038927878777 13.033655665678332 3100.1593425710475 25.65127012091174 0.30582814851525547
1.0390482902874105 13.040109821329798 2728.8872897932392 26.822610854839215 0.31030866873361596
1.065184720925034 13.046444962380017 2404.7747613121346 28.046534754706965 0.31488213010083643
1.0914969192348403 13.052569211510896 2121.6140152742255 29.32531291055878 0.3195504907076653
1.1179767748541862 13.058406210770803 1873.870729300783 30.661256553246723 0.3243154172693637
1.1445903978784164 13.063865188014953 1656.8693426504237 32.05807236997102 0.3291871052310168
1.1713374615671914 13.06889288636625 1466.4021818730557 33.51763652455427 0.33416284128943646
1.198180684971478 13.073372727356274 1299.212410319915 35.044285064300794 0.3392549486546968
1.22510693680314 13.077241727841681 1152.471038487161 36.64046404849812 0.34446284892480145
1.252086934861623 13.08042167627448 1023.2626342585376 38.31065435985379 0.34979755575413163
1.2791141648532731 13.082880421487996 909.5814516335672 40.057651889191035 0.35525900893737583
1.3061436460184954 13.084487599510398 809.2859716593471 41.88665061795935 0.3608601551221861
1.3331663765428914 13.085226500943635 720.8266781257745 43.800755087218725 0.36660090188499034
1.3601624956986997 13.085048771407635 642.7138969715486 45.805331369326254 0.3724928158011498
1.3870817557339317 13.083827107936983 573.5966303354205 47.905354007385775 0.3785439156511419
1.413918370202806 13.081546736084332 512.5300311965347 50.10515254428553 0.38475773562611104
1.4406472677956812 13.078167681321682 458.35541307574397 52.41072467160926 0.39114534297013515
1.467219873097894 13.073581539863627 410.37340072725493 54.82807111145629 0.3977163391352579
1.493626606541912 13.067762865570904 367.7435858189423 57.36335634283227 0.4044797425698143
1.5198299444915109 13.060670068342617 329.93118768175964 60.02318068163167 0.41144527831486694
1.5458086377781652 13.05222490083693 296.286744958265 62.81461949323462 0.41862343612474434
1.5715193523272049 13.042396558375932 266.36269862828357 65.74526615593442 0.426025533323871
1.5969344369642984 13.031115176789633 239.72169443582771 68.82327915546823 0.4336637829542571
1.6220274571983906 13.01834954229851 215.96608228326917 72.0574337381631 0.44155136783584437
1.6467768204828315 13.004074735114447 194.76421574807367 75.45717860378697 0.4497025212370743
1.6711317377814647 12.988208955576045 175.83814973396855 79.03269817989813 0.45813261493660784
1.695062423434942 12.970721598049215 158.92363655086598 82.79388788286339 0.46685376741779244
1.718551292416285 12.95158434623856 143.78041536498623 86.75306901352877 0.47588598026766193
1.7415510334426083 12.930738725208464 130.23883323267316 90.9227616478121 0.48524754273689763
1.764033823348072 12.908155176609574 118.09527447988856 95.31564143075904 0.49495488507711005
1.785965682115245 12.883790962765925 107.20305678533695 99.94670747975084 0.5050309313053557
1.8073018763441142 12.85758673621494 97.4319452268702 104.83171891462193 0.5154985357291461
1.8280483841318116 12.829587958976253 88.64531278319637 109.98644877257259 0.5263775657717739
1.8481334924170914 12.799686684378946 80.74843355143162 115.42967882362657 0.5376959310264658
1.8675365303501754 12.767871549471208 73.64600312691391 121.18106091763657 0.549481079257874
1.886225068561121 12.734119574159816 67.24636359848488 127.26180348328253 0.5617622669837582
1.904156027080417 12.698366601048336 61.47579443864828 133.6950228152176 0.5745714355210352
1.9213221208662783 12.660657746436527 56.27306041767205 140.50479533435634 0.587939459587159
1.9376712652395824 12.620902098930666 51.57321500720001 147.71922001095527 0.6019064509396284
1.9531899500379835 12.579142133913725 47.330754243820024 155.36774347791246 0.6165117579301486
1.9678483124193251 12.53536425228734 43.49324040577228 163.48201672099273 0.6317964960685889
1.981593182243546 12.489471199541848 40.01803197018214 172.09714758424127 0.6478071841990962
1.994427457321347 12.441544632872898 36.87249449738281 181.25170167947078 0.6645949667730278
2.0062824092131204 12.391449431291603 34.02313194418408 190.98726824859236 0.6822133726899008
2.0171666608528596 12.339297173311923 31.43586932643062 201.3496061679154 0.7007212753250474
2.027045960772702 12.285043328115604 29.09216254449308 212.3891066041611 0.7201834037901829
2.0359028618011914 12.228711069616546 26.962367394962424 224.15989683305006 0.7406662965905269
2.043693256142631 12.170247101783351 25.025941931476666 236.723601595312 0.7622493611907252
2.0504007944579286 12.109675598568765 23.266151312978863 250.14543422185258 0.785010653351926
2.056016291404839 12.04703407780093 21.664185922399984 264.4996047222136 0.8090429105320571
2.0605132485072537 11.982323815420285 20.20811840961659 279.86684122819634 0.834443616460614
2.063879965254028 11.915580221097844 18.881598906667083 296.3366467215986 0.8613202445793818
2.0660965035104306 11.846812291996198 17.67383872981191 314.0069519178684 0.8897866763835242
2.0671472793246064 11.776057225721651 16.5745035400716 332.98887542058964 0.9199760129013635
