M[M_sun], R[km], Lambda[1], P_c[MeV/fm^3], rho_c[fm^-3]
0.24162668629717493 15.618656898711224 2160425.4255784233 3.5677272577965504 0.1711233750220791
0.25364187583638353 15.277340570004796 1723199.260612396 3.7848000278986085 0.1738879290214985
0.26603798157050107 14.98128717029428 1383091.284454067 4.01136032930856 0.17666616378613187
0.27881202317328413 14.723562436809232 1116480.8182979473 4.247664862727007 0.17945677943220184
0.2919646643879134 14.498504168492442 905964.1610947034 4.494338487924085 0.18226633629912758
0.3054984013737669 14.301320152935757 738712.924606796 4.751534944709337 0.18509050413212105
0.31941336649841157 14.128243929629345 605150.0388758279 5.019939574900396 0.18793596891462364
0.33371030163375387 13.976062394615283 497743.959846688 5.299772204596684 0.19079927102720118
0.34838945869084287 13.842123606608373 411066.23154799605 5.591766321556131 0.19368680585338183
0.36344951891271027 13.724109181354573 340692.8595914435 5.896083041767482 0.19659352266403107
0.3789026119527425 13.620083165795313 283353.47040189616 6.213588953719089 0.19952715512372468
0.3947323190392867 13.528537525262664 236446.0634607428 6.544545772348765 0.20248395826877494
0.41095516880039923 13.447956278504986 197904.83508607195 6.889647270747257 0.20546749780382115
0.42756198328217815 13.377128810618927 166112.88090102264 7.249602255173833 0.20848091625950646
0.4445546686993215 13.315003177559873 139833.5388858401 7.624675912034246 0.2115198601375603
0.4619329953885003 13.260646276607874 118010.76099206197 8.015804768452126 0.214590299160417
0.4796959261576928 13.213235312890667 99838.62127961587 8.423699340297576 0.21769397236220622
0.4978502588508897 13.172053796224889 84667.5994063234 8.848808977525316 0.2208284711642092
0.5163859411402105 13.136462082596168 71954.70947128482 9.29198993823534 0.22399696356528573
0.5353012027934118 13.105901688188489 61293.681585683975 9.75413470036175 0.2272024841356024
0.5546056835464481 13.079858398635135 52314.07925994103 10.236052524791022 0.23044638328637834
0.5742864756286483 13.057876770381077 44743.96451931844 10.738226356671483 0.23372550896954875
0.594340856831134 13.039553992760831 38341.38813410058 11.261877226213885 0.23704575348621454
0.6147741738755769 13.02454733771886 32913.02512335103 11.807953492092363 0.24040887473113695
0.6355730780517324 13.012452179865203 28304.62986954119 12.377433741508018 0.24381650490437526
0.6567420695562026 13.00305451113965 24379.73208841235 12.971023156779454 0.24726677898685723
0.6782716224271618 12.996002673384218 21035.596956876296 13.590015941324088 0.2507641199763603
0.7001568446186484 12.991076420398931 18179.68316744998 14.235624692009731 0.2543113401923162
0.7223869447011179 12.988007679135727 15734.62747088106 14.909038551030354 0.257910423212491
0.744972446010602 12.986647952927731 13639.938770597595 15.611307486015791 0.26156147178492845
0.7678891349972339 12.986754532830208 11840.473368811314 16.343656680071046 0.26526597431181764
0.7911311227272151 12.988130463872027 10293.34583341957 17.107720953853043 0.2690288183349818
0.8147015240917589 12.99065084280996 8960.029729063332 17.90495463344254 0.27285243501539497
0.8385813082415293 12.994120631051214 7810.321196544306 18.73674638784547 0.27673811793522013
0.8627597749467908 12.998385751723491 6817.8706818562905 19.604393247300898 0.28068592764881334
0.887230513367644 13.00333154740209 5957.837525529093 20.510002645905384 0.2847024277339482
0.9119882896384807 13.008821000933576 5213.598469047766 21.45536774665746 0.2887906296220409
0.93700430782655 13.01471869677964 4567.39725163388 22.442002254384523 0.29295069659295736
0.9622793835719136 13.020917453937212 4006.4733378609344 23.471871228793827 0.29718594854827984
0.9878012210073386 13.027306445563084 3518.3161129927507 24.54742445987682 0.30150271734935274
1.0135412802697987 13.033768479207874 3093.7781693567695 25.670638914921113 0.3059028964215568
1.0395005630169132 13.04022031679827 2722.78563570538 26.84340481520177 0.31038722457150664
1.0656512980429584 13.046552437402418 2399.4115186435133 28.06885114911047 0.314964688147647
1.0919759733076793 13.052675061615755 2116.7534131492116 29.34907267956203 0.31963601128750446
1.1184719538881056 13.05851364569906 1869.5800865611734 30.68674319181939 0.32440532303842173
1.1450991144760074 13.063967558256184 1652.9841364255128 32.085345647911254 0.32928124708119166
1.1718592389073816 13.068988343108584 1462.9463032312958 33.546728647567505 0.3342608847435145
1.1987117560760343 13.073441065183712 1296.1355123083815 35.07547615397231 0.339358089132317
1.225655320999494 13.077310367975226 1149.6797448307345 36.673663636787126 0.344569945657436
1.2526465134901503 13.080485855858942 1020.7453740977336 38.3462441704053 0.3499102964718966
1.2796864892385753 13.082923988625236 907.2517970531796 40.09553919660545 0.3553762196091844
1.3067255246251588 13.084520321427641 807.1907640756607 41.926991927460264 0.36098211301248895
1.333762431861677 13.085233045558716 718.9601604282071 43.844002372450085 0.36672945518254685
1.3607673609998903 13.085036682582958 641.0150021553746 45.85139406644886 0.37262675986723787
1.3876966830305477 13.083783852287386 572.1633536454018 47.95442872536881 0.3786835981401853
1.4145513146733137 13.08150120399506 511.1229753878772 50.157777002264275 0.38490519515670263
1.4412724352809125 13.078056230552884 457.13405853819114 52.46681538325383 0.3912993470489376
1.467865598065438 13.073463506313661 409.2767014922151 54.887876257514556 0.3978773238327258
1.494273571065216 13.06760324936719 366.7712492868184 57.4271441980355 0.4046481776515689
1.5204827486650458 13.06047033264449 329.0368574926532 60.091241412868264 0.41162167000718775
1.5464657005862366 13.051995021378533 295.47827961602013 62.88726713705673 0.41880833015401536
1.5721804755805133 13.04212358814579 265.63512490583116 65.82284079536204 0.42621951825936827
1.5976032630782417 13.030807774040598 239.07174348643113 68.90614931847628 0.4338674938870994
1.6226845007599653 13.017969773989593 215.36808852152464 72.14599904299388 0.4417654904308573
1.6474419468471482 13.003671639143775 194.22295775734415 75.55187267934143 0.4499277961987283
1.671792437089767 12.987748017300211 175.34181815903347 79.13381133597518 0.4583690888877223
1.695730163300503 12.970212937166881 158.46855273355254 82.90177585154306 0.46710169365559756
1.7191925198319231 12.95097558750842 143.38332464522244 86.86860013217736 0.4761476014090092
1.7421973528956771 12.930092955174205 129.86941329643304 91.04598402360824 0.48552166716651796
1.7646784996926663 12.90745796746417 117.75560605956612 95.44774103179685 0.4952447410981946
1.7866070722277327 12.883038442040132 106.89359989197564 100.08779929575881 0.5053354013232056
1.8079477412184384 12.856797053806405 97.14881055349487 104.98253396049769 0.5158187917951839
1.8286605211639597 12.828681510831458 88.38801384017738 110.1484218240387 0.5267172489223401
1.8487423529468228 12.79873028083154 80.5184455552471 115.60306377218626 0.5380540844996441
1.8681330903649835 12.766844957875193 73.43090592673369 121.3668104695748 0.5498591972760035
1.8868066452594334 12.733014225840591 67.053152855314 127.46095955280518 0.562161971626196
1.9047335260171425 12.697216828635112 61.29963631213213 133.90809634902146 0.5749922677595944
1.9218795348632076 12.659424609804892 56.11177715921194 140.73353509881636 0.5883851316336632
1.9381987253887798 12.619552998960014 51.42591940104785 147.96509659428767 0.602379406780791
1.9537023108912805 12.577742792297652 47.198678615811346 155.6314509921879 0.6170115100671948
1.9683241422042248 12.533829161637101 43.36841680141489 163.76597956876915 0.6323281977679509
1.9820479616664142 12.487856532861814 39.904760333071955 172.40231420122566 0.6483706409911303
1.9948427103459099 12.439801086020058 36.76998596234115 181.580005258309 0.6651929762940684
2.006681453686393 12.38965202697106 33.925104915663404 191.34083858163856 0.6828489903180563
2.017541756010391 12.337417877417934 31.34872857743382 201.7307925266249 0.7013978435108229
2.0273862062970696 12.283059927133165 29.01086134925019 212.79998556512695 0.7209028878477078
2.036205382679047 12.226618005681905 26.88801725125012 224.60337844089926 0.741432865107494
2.0439592287654444 12.168050392800435 24.957542510592898 237.20252584150606 0.763066342809019
2.0506239216847284 12.107374999447217 23.19774293578185 250.66381515026384 0.7858845264229718
2.0562061355695613 12.044632221942564 21.606282961020856 265.0605016927669 0.8099762756784848
2.060670861842068 11.979832134751293 20.154987315321 280.4744528988336 0.8354419169764526
2.063991927843676 11.912977917147808 18.833077462413613 296.9947123137729 0.8623864287516306
2.066159442975582 11.844092307310557 17.62921056185488 314.72177996542246 0.8909309754918021
2.0671654317976924 11.773229925954015 16.533106478700063 333.7651754820168 0.9212021168379765
