M[M_sun], R[km], Lambda[1], P_c[MeV/fm^3], rho_c[fm^-3]
0.24162668629717493 15.618656898711224 2160425.4255784233 3.5677272577965504 0.1711233750220791
0.25364473108384483 15.27725033191756 1723124.652829428 3.784834542285534 0.17388835922668122
0.26604080967340815 14.981244362935367 1382968.040179296 4.0114328854555 0.17666704058434793
0.278817332538879 14.723475252666386 1116458.377876419 4.2477779153390705 0.17945809067213514
0.2919726277152419 14.498358579756374 905819.323266479 4.494495003605939 0.1822680791375704
0.3055090693603983 14.301187211677007 738582.9361846796 4.751740237911427 0.1850927216905116
0.3194266931354613 14.128076158661944 605055.8790276702 5.020195157878672 0.18793862068666922
0.3337269612641925 13.975860952599495 497642.260939755 5.300084806162094 0.19080241840626508
0.3484079460832777 13.841969042887818 410970.4423800474 5.592136722211021 0.1936903895816116
0.36347343262526677 13.723877948742123 340614.99394380563 5.896519563080415 0.19659762256457988
0.3789261836871379 13.619949785117674 283273.61037613417 6.214096878213998 0.19953178678353736
0.3947594134980232 13.528418773092213 233262.46010728777 6.545124572683572 0.20248903356579026
0.4109860019803125 13.44783616000977 197839.50874581892 6.890308120610904 0.20547312587857486
0.4275951261230974 13.377007413643023 166056.68608170605 7.250351355880468 0.2084871133776744
0.4445909626188834 13.314888175320707 139787.08984646012 7.625511193160358 0.21152650951240815
0.46197432526280496 13.260522391980437 117965.22186394928 8.016740799255949 0.21459754011543297
0.4797398621502719 13.213119845458147 99796.6794869069 8.424743419771012 0.21770182238025013
0.49789848721924856 13.171978785230927 84628.0532959734 8.849957255997237 0.22083678519096755
0.5164390704038349 13.136371961874444 71926.40008740389 9.293260998365145 0.22400591190784094
0.5353589285337973 13.105816983379942 61265.25494401537 9.755537160218395 0.22721208611814625
0.5546666939711115 13.079782997629392 52297.2074217632 10.237595526111319 0.23045665907324475
0.5743513985184238 13.057813123164744 44720.562714642954 10.739903195124933 0.23373627479183942
0.5944104189258258 13.039497452061417 37986.97735194524 11.263713118914158 0.2370572241770287
0.6148474657997515 13.024504476824704 32895.569235965115 11.809959284546167 0.2404210732958469
0.6356541341660431 13.01241875148961 28286.128175271042 12.379620955842608 0.24382945556274818
0.656826324209553 13.003002482073404 24365.57508995717 12.973381748965128 0.24728025973260429
0.6783594991350684 12.995983254467319 21022.838062613315 13.592579403719153 0.2507783926481833
0.7002500083381846 12.991044268393345 18168.887214938204 14.238406769388908 0.25432643309787756
0.7224844823024835 12.98801086978316 15725.41799561844 14.912053871292205 0.257926366347349
0.7450751742520102 12.98663914698278 13630.818007509326 15.614542196700956 0.2615780054802826
0.7679977707436006 12.98676618365218 11833.442360602261 16.347154585622786 0.26528341049368803
0.79124495565588 12.988144980178463 10286.658097620442 17.11149960941287 0.2690471926574091
0.8148214691753115 12.990668273733977 8954.342514413327 17.90903275803119 0.2728717854249682
0.8387040729712953 12.99415820046387 7805.743157670975 18.741105893437712 0.2767581476077477
0.8628870926630136 12.998405791927608 6812.455986489819 19.609090817562247 0.28070700268397347
0.8873708419518858 13.003371692471024 5953.84064574848 20.515060889941388 0.2847245937436071
0.9121279744885709 13.008859815364309 5209.809368037437 21.460810821783678 0.28881393529348764
0.9371503648274421 13.014748897102656 4564.040283521724 22.44780748688864 0.2929748082237813
0.9624352063615168 13.020964836118551 4003.382252772592 23.478111469393 0.29721129201950924
0.9879558881813572 13.027347707962436 3515.5158410231957 24.554129080487517 0.3015293516242062
1.0137010428504518 13.033805167020462 3091.105327062499 25.677781963080584 0.30593046282007763
1.0396667999543907 13.040263087420106 2720.627010128231 26.851073614954707 0.31041619591605596
1.0658206898644833 13.046588070901612 2397.5170208189165 28.077081597368444 0.31499513615462643
1.0921543765798396 13.05271807285016 2115.057468858225 29.35783560646455 0.319667552443889
1.1186540868443393 13.058554050998504 1867.8105177617983 30.69614321616364 0.3244384822334025
1.1452881177537515 13.064001133204542 1651.5955441782362 32.09535209034303 0.3293156282317923
1.1720514860066185 13.069016574290613 1461.5640535746707 33.55745888035636 0.33429704673434624
1.1989087425914415 13.073473697895873 1294.9946570598936 35.086980820497516 0.3393961319455937
1.2258570323110278 13.077338053230838 1148.6735575091384 36.685909351875665 0.34460944843871566
1.2528543505659568 13.08050028987625 1019.8272457369952 38.359328790768004 0.34995162956734716
1.2798980784705922 13.082944391283416 906.3895402385567 40.10951456916017 0.3554194547429984
1.306942294853414 13.084520602900978 806.5306173997159 41.94187278566004 0.361027100101267
1.3339810731156951 13.085239135252671 718.348412238314 43.85995555155544 0.36677687628122463
1.3609913949532702 13.085029611931843 640.3980248140798 45.86838613985901 0.3726761705085159
1.3879231990956153 13.083768797575372 571.6146000293454 47.97253226950416 0.3787351266707457
1.4147753604734143 13.081456850919968 510.6534077133623 50.17719052328991 0.3849595939820307
1.441505356582518 13.078020682308296 456.7291800339325 52.48750806338699 0.391356161395706
1.4681007953931522 13.073417627458465 408.872636354246 54.90993971934187 0.3979367147039378
1.4945108423099658 13.067547772859271 366.39864126392587 57.45067748558045 0.40471031849638894
1.5207229610120363 13.060399153902075 328.7281415864202 60.11635165604127 0.41168674774301867
1.5467074302211008 13.051907317000133 295.1839386436799 62.91407028240542 0.4188765462898723
1.5724236806563918 13.0420224519173 265.37064978818023 65.85146241050128 0.4262910901314076
1.5978376085699078 13.030682550941505 238.82776646389178 68.93672547848313 0.4339426560184581
1.6229352840463196 13.017861437720885 215.15435107384133 72.17867730806302 0.44184449602938697
1.6476873500285372 13.003517556772557 194.0228595624727 75.58681317415702 0.4500109188078637
1.6720364745659204 12.98758015049725 175.1677822242875 79.17100550219249 0.4584558624519784
1.6959731127841415 12.970021241913322 158.30803551499227 82.94158656442144 0.4671931785578445
1.7194536395935365 12.950804056298308 143.22593309829483 86.91123231959293 0.47624414233807016
1.7424305951362355 12.929825277298592 129.7411813952253 91.0914554311564 0.48562282431088916
1.7649173327453016 12.907201247948137 117.63350597853456 95.49648968605774 0.49535170653068855
1.786843379305063 12.882763170650854 106.78518520045861 100.13986764308429 0.5054477625578128
1.8081818636370908 12.856496321311683 97.04976420031106 105.03819199242136 0.5159369817426376
1.8288939357559177 12.82836497648253 88.29628059724232 110.2080115211129 0.5268419125829589
1.8489677252526362 12.798378300780918 80.43320142466308 115.66705490510643 0.5381862680986148
1.8683431554143866 12.766432648351499 73.35572480166941 121.43536694856984 0.5499987531440906
1.887017986746019 12.732608322639043 66.97916698409217 127.5343877786265 0.5623092186249589
1.9049415945817731 12.696781715552405 61.23297065324911 133.98670426607723 0.5751474641954041
1.9220805477043503 12.658956336824117 56.052866497543604 140.81796576957302 0.5885496346876586
1.9383934058768468 12.619059035526499 51.372672923190024 148.05585560863426 0.6025539862604293
1.9538867204984471 12.57720779784085 47.146417769108496 155.72879473640828 0.6171959862067387
1.9685004291188868 12.533265547314643 43.325088422322125 163.87053301375875 0.6325235577016896
1.9822124415088156 12.487259122837692 39.86454172462439 172.51496946497898 0.6485786466181791
1.9950035519668259 12.439168261697 36.7211924347038 181.70120580634105 0.6654137447728495
2.006833138716866 12.389001552956325 33.889878498020266 191.47137143774427 0.6830836507989837
2.017676718339797 12.336717468881314 31.315951210910022 201.87152586753035 0.7016476313087308
2.0275105271274163 12.282326023089585 28.981078032398305 212.9515232577879 0.721167993974806
2.036316256340798 12.225846431216251 26.85890090815019 224.76712302795104 0.7417159015244187
2.0440563883575456 12.167243285330516 24.933109702492224 237.37927501280163 0.7633677163825334
2.0507127376574337 12.10652557811288 23.179665797210454 250.8550072429654 0.7862064839915288
2.056282551704719 12.043767500495495 21.58666470049155 265.26762367999413 0.8103209386987649
2.0607253050969936 11.978907945450418 20.135837024179725 280.69845346111816 0.8358093300342736
2.06402648100494 11.912002925933782 18.815186523584934 297.23773586978797 0.8627801704576068
2.0661832602757166 11.84308934098751 17.612765080982335 314.9857778941704 0.8913535842513313
2.0671700207063033 11.772185582079057 16.518109470270225 334.0518888984416 0.9216549577767132
