M[M_sun], R[km], Lambda[1], P_c[MeV/fm^3], rho_c[fm^-3]
0.24162668629717493 15.618656898711224 2160425.4255784233 3.5677272577965504 0.1711233750220791
0.2536414052593885 15.277351207607255 1723228.5067944387 3.7847945230886118 0.1738878604066975
0.26603661590296124 14.981341024858631 1383098.297891904 4.011348757183353 0.17666602394382813
0.2788108907045761 14.72358862400829 1116520.7208846924 4.247646831870102 0.17945657030143367
0.29196290383440227 14.4985331109311 905982.4848532043 4.4943135252816075 0.18226605833431006
0.3054965827844672 14.301339167025054 738717.7987661492 4.751502202788183 0.1850901504568837
0.31941173496284697 14.12822902434027 605181.4998027408 5.019898812610275 0.18793554599013085
0.33370629254796935 13.976116503941434 497780.29699674615 5.29972234890268 0.19079876906308813
0.3483864386226478 13.842146970354452 411074.96847218595 5.591707248078702 0.19368623430123716
0.36344773206335534 13.724090978264098 340714.5946005482 5.896013423488748 0.1965928687944244
0.3788987203349004 13.620105664579953 283355.8081161869 6.213507948305126 0.1995264164518862
0.39472737441268163 13.528587071064882 236455.36035463333 6.5444534640011955 0.20248314884926924
0.4109503510558241 13.448002890363417 197919.9831668974 6.889541877660324 0.20546660023206634
0.4275562366585749 13.377150591267707 166127.67972278557 7.249482788530461 0.20847992794258252
0.44454858594237023 13.31503654022099 139846.12764763695 7.624542702117288 0.2115187997009676
0.46192462029782155 13.26068471916535 118017.96760357913 8.015655492031717 0.21458914438662033
0.47968853582871407 13.213260220595904 99840.72904593799 8.423532833555473 0.2176927204642778
0.497842246121931 13.172070021866269 84671.44402626362 8.848625854470956 0.22082714527505318
0.5163781101775583 13.13647096971791 71964.36352165753 9.29178723572428 0.22399553652697085
0.535293287452106 13.105902722956497 61299.60711077812 9.753911044279972 0.22720095286767847
0.5545968565415771 13.079870314248344 52319.789147677955 10.235806457539242 0.23044474457447262
0.5742741558050164 13.057914769141908 44747.82005306842 10.737958947447831 0.23372379211949987
0.5943290118806795 13.039570320962852 38344.71664020249 11.26158445408797 0.23704392424067372
0.6147632624251635 13.024550553846465 32915.44047897081 11.807633627844615 0.24040692942282893
0.6355605511039781 13.012456884056508 28305.723135781056 12.377084948051607 0.24381443967243835
0.656729683943858 13.003053027094872 24382.315772122412 12.970647035806849 0.24726462923361348
0.6782574290484772 12.99601082354494 21037.841318743132 13.589607152573151 0.2507618439501161
0.7001423271207114 12.991074727439496 18180.962638306522 14.23518104406041 0.2543089333805389
0.7223713777618112 12.988024135196504 15736.886024561732 14.908557711677924 0.25790788083358096
0.744955630901848 12.986658251503833 13641.116596155249 15.61079166414333 0.2615588352456746
0.7678717227432234 12.986750894246331 11841.34311993751 16.343098891420944 0.26526319387529507
0.791113266861741 12.988121098069517 10294.32356582045 17.107118399573007 0.26902588831756
0.8146821202693793 12.990661771486794 8961.428867918241 17.904304329143688 0.2728493493679959
0.8385609445767588 12.99412167619196 7811.428596343836 18.736051217656875 0.2767349239878943
0.862739011937051 12.998386851157575 6818.440840398803 19.603644173794795 0.2806825670284074
0.8872075806374746 13.003338028976938 5958.661921603787 20.509196064571192 0.28469889316947933
0.9119662841721693 13.008813912479239 5214.244267454598 21.454499806188284 0.28878691335229617
0.9369810190035344 13.014714830581804 4568.047768977496 22.441076569922632 0.2929468518267075
0.9622555840971468 13.020908891902444 4006.8545322604114 23.47087618571672 0.2971819073826876
0.9877764444201227 13.027301570307129 3518.7090919590073 24.54635537563974 0.30149847038519695
1.0135145187203107 13.033757528509899 3094.038916766658 25.669499927294652 0.30589850084894965
1.0394735923831335 13.04021061331439 2723.1986997419394 26.842182002458948 0.31038260500515563
1.065623509627765 13.046552946857858 2399.7546351944316 28.067538788610438 0.3149598331554993
1.0919485834425815 13.052666951557507 2117.172413642966 29.347675421888503 0.3196309820178004
1.1184430952761348 13.058503889644102 1869.8398841232577 30.685244358485125 0.32440003580671317
1.1450699349588007 13.06396814808274 1653.1936767833506 32.0837501300509 0.3292757650389757
1.1718284710610303 13.068982142479125 1463.1420723579931 33.54501773387463 0.33425511878796693
1.1986799180752858 13.073445087692178 1296.3382054596511 35.073641771277266 0.33935202332604675
1.2256227533617645 13.077306553893063 1149.8221347121653 36.67171110742792 0.34456364709996823
1.252613818322139 13.080482043202844 1020.8989137984347 38.34415103450773 0.3499036658762341
1.2796542224120997 13.082924394197208 907.4509154262306 40.093310909580225 0.355369326033551
1.3066933808097703 13.084515847329422 807.3454259435142 41.92461928055188 0.3609749401414305
1.3337268235448032 13.08523469328164 719.1431415495282 43.841458770639626 0.3667218942825122
1.3607306387449964 13.085039146581389 641.0841414076413 45.848684838376435 0.37261888180002406
1.3876603786792199 13.083786332100544 572.2445142609629 47.95154230185561 0.37867538244710897
1.4145132162124876 13.081503827756528 511.19673868223714 50.15468174066463 0.38489652189259554
1.4412349074136193 13.078062549400093 457.2085557906385 52.46351619615651 0.39129028871726695
1.467828543797759 13.073470645031952 409.33085995172627 54.88435854009503 0.39786785477008013
1.494234273551195 13.067612536618103 366.8188898169466 57.423392162637064 0.4046382702109273
1.5204448756326245 13.06048294734254 329.09122352069045 60.08723798311706 0.41161129439505323
1.546427122369881 13.052006677696218 295.52790434280826 62.88299383141409 0.418797454251412
1.572142255216587 13.042138011824715 265.682648454479 65.81827759893622 0.426208107424966
1.5975649245228594 13.030825127739444 239.1178994126772 68.90127454177627 0.43385551074053724
1.6226513778236338 13.018024564529322 215.41031153463297 72.14078916614164 0.44175289461409323
1.6474027452299658 13.003695440966856 194.254518052833 75.54630218007972 0.44991454411299614
1.6717527504820633 12.98777699034403 175.37095889898728 79.12788157757805 0.4583552548292226
1.6956910545148614 12.970243635437061 158.494257622149 82.89542899679843 0.46708710860187946
1.7191538537322848 12.951015926778462 143.40169581821115 86.86180351879821 0.4761322104237028
1.7421590509812668 12.930130253501005 129.89238154064327 91.03873482219333 0.4855055403617049
1.7646395919823032 12.907500077434262 117.7709269943395 95.43996942972048 0.4952276884679246
1.7865699587333324 12.883080656362567 106.91140779394078 100.07949852673096 0.5053174886237622
1.8079103751074135 12.856845255707267 97.16609119296928 104.97366099319127 0.5157999500305103
1.828623911428408 12.828732350147625 88.40347934153674 110.13889219228938 0.5266972637747673
1.8487065522398498 12.798787626922296 80.53129901950098 115.59286253248304 0.5380330122585945
1.8680976386829726 12.76690413789294 73.44189562010267 121.35588153547096 0.5498369499711756
1.8867731950420616 12.733078711066847 67.06401353214848 127.4492415841842 0.562138453756673
1.9046998962729642 12.697286954681967 61.30812589467527 133.89556528306576 0.5749675275445364
1.921847030714672 12.659498034598188 56.11869748165701 140.7200759461316 0.5883589080859762
1.9381678849753083 12.619633309514079 51.435264923704906 147.9506287819368 0.6023515772239156
1.9536731915783405 12.577826272570578 47.204587311748995 155.61593365847096 0.6169821031664943
1.9682957500274456 12.533919442047479 43.37493858809017 163.7492699551328 0.6322969101187542
1.9820210241953957 12.487951859631618 39.91240519314425 172.3843564684392 0.648337484000998
1.9948166963837224 12.439900859372983 36.773785878075955 181.56068557207405 0.6651577852177089
2.0066573873246654 12.389758628647103 33.93278963882178 191.32003152633567 0.6828115852251953
2.017519601587173 12.337529802255158 31.35302954836669 201.70835975699003 0.7013580275575313
2.027366565240232 12.283178212653032 29.015181703311605 212.77583084971016 0.7208606306182169
2.036187169096137 12.226741482518245 26.891096133584362 224.57727829418073 0.7413877503825346
2.0439436374513393 12.168179899863592 24.962018729690815 237.1743531505288 0.7630183057829153
2.0506151148478757 12.107508131835461 23.205439027864827 250.6333053123939 0.7858330937327332
2.056194550449751 12.044773964770519 21.610112470996864 265.02748861434816 0.8099213399979767
2.060660997524762 11.979980300084367 20.15704109341182 280.4387475484189 0.8353833479233841
2.063986637255668 11.913130948410142 18.835866462748957 296.9559779063042 0.8623236720710571
2.0661556636686016 11.844252019134865 17.631230764247874 314.6797031469725 0.8908636187813369
2.067163278446424 11.773395041818585 16.53556821858414 333.7194788377214 0.9211299426385341
