M[M_sun], R[km], Lambda[1], P_c[MeV/fm^3], rho_c[fm^-3]
0.24162668629717493 15.618656898711224 2160425.4255784233 3.5677272577965504 0.1711233750220791
0.2536453636359258 15.277267558690564 1723192.3519230422 3.7848473680314294 0.17388851909341646
0.26604266799248094 14.981222830708266 1382906.7293079975 4.011459847978803 0.17666736641052985
0.27881961454570314 14.723432139184396 1116369.7137355271 4.247819927076771 0.1794585779449821
0.291976289513704 14.498303367630905 905761.912022822 4.494553167239475 0.18226872680312892
0.30551274743897405 14.301148197078012 738594.9551524771 4.751816528667548 0.18509354577628082
0.31943097995561215 14.128034276664833 605014.0171210773 5.020290138007698 0.18793960614216684
0.3337337225765674 13.975757879948615 497589.5224942682 5.300200976583091 0.19080358804964292
0.34841476304624386 13.841886105255996 410922.02485678485 5.592274373253324 0.1936917213933124
0.3634804742987756 13.723848049069264 340607.1364535597 5.89668178768167 0.19659914621236527
0.37893499574984496 13.619917790889346 283237.6024158603 6.214285639921905 0.19953350806302958
0.3947695069865515 13.528346489755098 236359.97339521654 6.545339675794378 0.20249091972948197
0.4109974516605464 13.44776850617186 197824.44498150493 6.890553718218618 0.20547521749086317
0.4276089834219327 13.376961255226002 166039.83250965658 7.2506297531193855 0.20848941648668487
0.4446059120224182 13.314823052629166 139767.68003093122 7.625821620826693 0.2115289807162365
0.4619875967695014 13.260474263120289 117942.76107435244 8.017088672659852 0.21460023119745572
0.47975672940182784 13.21308091688073 99778.52981454058 8.425131452145829 0.21770473984124944
0.4979174480812827 13.171900811311424 84616.5192849903 8.850384016819095 0.22083987512165867
0.5164592745236318 13.13632316170479 71916.93225453122 9.293733394886331 0.22400923760880057
0.5353799708507357 13.105775735592985 61253.15753296203 9.756058396091818 0.22721565477484193
0.554689925153962 13.07976534062424 52285.405155774984 10.238164417571017 0.23046041926679905
0.5743758695789307 13.057788278076336 44714.42014376499 10.740526414768793 0.2337402760550023
0.5944358377506747 13.039500979790109 38313.54664996963 11.264395458284364 0.23706148744576158
0.6148749749463214 13.024473622708673 32888.49496916481 11.810704775453235 0.240425607124386
0.6356833501382098 13.01243125753441 28280.806973256396 12.380433881668845 0.24383426895688684
0.6568571814831277 13.002990898445127 24360.22896195973 12.974258376568823 0.24728527017650895
0.6783921461714986 12.995961900724318 21018.427907826615 13.593532183303564 0.2507836974696444
0.7002844245980426 12.991054424553079 18164.520881078824 14.23944081073678 0.25433204282265615
0.7225224309202883 12.987999871271183 15722.031468591565 14.913174612546799 0.2579322921288287
0.7451135044334402 12.986650045958074 13627.688595299951 15.615744488857542 0.26158415080027514
0.7680372033929654 12.986752994542032 11830.675227194557 16.348454712877924 0.2652898913019717
0.7912864248615938 12.98814689681026 10284.983809419993 17.11290409831817 0.26905402221135577
0.8148651184095834 12.990677508625312 8951.593309772501 17.91054856790237 0.2728789778344214
0.8387532991196611 12.994143055322288 7803.8043521485215 18.742726300487636 0.276765592539721
0.8629352626415301 12.998423295317055 6810.536613766333 19.61083689467838 0.28071483623080035
0.8874207440890252 13.003370914436804 5952.170552065711 20.51694104290078 0.28473283286539747
0.9121794743033772 13.008866040052814 5208.391739515269 21.46283403205304 0.28882259809396565
0.9372045496019756 13.014763059393639 4563.221855712725 22.449965325585552 0.29298377065724124
0.9624912083448173 13.02097660307594 4002.2963485969217 23.480431020869634 0.2972207124072618
0.9880156319882157 13.027359793766351 3514.9305919486787 24.55662126524282 0.30153925189114333
1.0137615924260477 13.033817769341551 3090.3820342666613 25.680437132974358 0.30594070963205455
1.0397300424001923 13.04028131928518 2719.8675566566408 26.853924236276125 0.3104269650500982
1.065883796369822 13.04660740985445 2396.7664505738744 28.080141016986822 0.31500645427813245
1.0922206528290652 13.052732170909726 2114.477380348966 29.361092979699 0.31967927698749565
1.1187223297314286 13.058565649005896 1867.2290569908305 30.699637440642505 0.3244508083366718
1.1453558971150644 13.064024265981683 1650.8419911822468 32.09907175988904 0.3293284086499797
1.1721233385705998 13.06902740406081 1461.1378543434253 33.561447635372126 0.3343104892500072
1.198982021128453 13.073486890549828 1294.5384845500523 35.091257491675236 0.3394102737377703
1.2259319758359026 13.0773497494223 1148.3163895631315 36.6904615265571 0.34462413304957645
1.2529308170880193 13.080516816183495 1019.4938119618712 38.36417494679876 0.34996688964810374
1.2799760511750136 13.082950776083818 906.0858035097414 40.11470980044779 0.3554355270529877
1.3070304074401644 13.084549573637425 806.245045014225 41.94740466311111 0.3610438238048774
1.3340614020796389 13.085243842767593 718.0551723963216 43.865886110917245 0.36679450497070737
1.3610729051545007 13.085031734336953 640.1832320137142 45.874702952236795 0.3726945389408364
1.3880146489211183 13.083782636662264 571.3766715395141 47.97926232199685 0.37875428257264815
1.4148604655329926 13.081452854546828 510.4589643269164 50.18440763085042 0.384979817112757
1.4415924655699506 13.07800837696894 456.54936604765544 52.495200766675204 0.39137728267672856
1.4681885375380206 13.073400662217928 408.7207705191785 54.918142088881844 0.39795879400757544
1.4945992792454006 13.06752699047541 366.2578791320116 57.45942635205143 0.40473342032407394
1.5208123139549294 13.060371307325426 328.60556254840327 60.125686857442204 0.41171094160551985
1.546797603488911 13.051876487976568 295.0812637373379 62.92403493588495 0.4189019071252028
1.5725145876927697 13.04198642397674 265.2633129291785 65.86210321160254 0.4263176987644673
1.5979284639757612 13.030638666648564 238.7325889914857 68.9480930308831 0.43397059966692547
1.6230365008978298 13.017823980434637 215.0619108700462 72.19082648726807 0.4418738688609222
1.647778901201866 13.003462245679449 193.93870984987797 75.59980352904394 0.4500418225542902
1.6721275939321123 12.987514366504017 175.1059846605456 79.18483384767904 0.458488123823792
1.6960636419373605 12.969953180366039 158.23949233853233 82.95638785440131 0.4672271918791099
1.7195433996427851 12.950726285194017 143.1679177530794 86.92708276799722 0.4762800358051369
1.7425252395922866 12.92977605160325 129.6791930192507 91.10836163483602 0.48566043439112644
1.765005730707826 12.907108427792712 117.58436792351687 95.51461455511613 0.4953914765404892
1.7869174042013256 12.882628757291984 106.74169447979058 100.15922696080342 0.5054895391255705
1.8082677254543964 12.856385211685074 97.01063946353953 105.0588861733004 0.5159809258791109
1.8289707120299896 12.828227630756613 88.25964245420332 110.23015009461717 0.526888198451124
1.849050756823533 12.798247588352153 80.40568999062906 115.69084792230018 0.5382354162617982
1.868423511038926 12.766292677571707 73.32860171990497 121.46085770824558 0.5500506429894692
1.8870995020437253 12.732454310557298 66.95787633752694 127.56162249114428 0.5623637267457888
1.9050192239513895 12.696618894993522 61.20934641232286 134.01593296769477 0.5752051707278284
1.9221558668713774 12.65878296752224 56.02855698275741 140.8493599029062 0.5886108023979773
1.9384644587623348 12.618874662039078 51.35285913487061 148.08960323368626 0.6026189014962658
1.953955212134462 12.577009486779776 47.127929656206874 155.76499121102378 0.6172645821494531
1.9685647413218095 12.533056200956072 43.306706061013244 163.909397751678 0.6325961573551112
1.9822758016950475 12.487038258575096 39.849184440756275 172.55686043392785 0.6486559937120794
1.9950576458622629 12.438934971443363 36.71722256614736 181.7462749037118 0.6654958387586287
2.006888315340627 12.388753499463439 33.87727842306462 191.51991142770177 0.6831709117210799
2.0177267513682606 12.33645860026941 31.302823091937704 201.92385970892244 0.701740518714894
2.0275571973506996 12.28205378428792 28.96953289354685 213.00787557513107 0.7212665789825459
2.0363578250469834 12.225561434486869 26.849309989288823 224.82801559486765 0.7418211557759805
2.0440937841318942 12.16694282488033 24.924095879070407 237.4450045676011 0.7634797913114862
2.0507443517871615 12.106210391050949 23.17127165371893 250.926048822603 0.786326019910997
2.0563076527759594 12.043437752706623 21.578609195140455 265.3445113322662 0.8104486621817444
2.0607450765147135 11.97856414699356 20.12795397442038 280.7817586177644 0.8359459698802788
2.0640408383391278 11.911641382516336 18.8093710027245 297.3281170840541 0.8629266042193248
2.0661878342684563 11.842712232980489 17.60758747140839 315.08396119287823 0.8915107564013939
