M[M_sun], R[km], Lambda[1], P_c[MeV/fm^3], rho_c[fm^-3]
0.24162668629717493 15.618656898711224 2160425.4255784233 3.5677272577965504 0.1711233750220791
0.2536439982112433 15.277298514265226 1723265.2939603375 3.784819946917912 0.17388817730246484
0.26603993497275635 14.981253021754123 1382947.4963191135 4.011402202957986 0.17666666980447304
0.2788148484152097 14.723521011557168 1116386.0976519315 4.247730107549582 0.17945753617382187
0.2919694162936306 14.498419272677625 905905.4158274378 4.494428815882073 0.1822673421219038
0.30550449919020134 14.301251727207413 738691.3776399118 4.751653422724368 0.18509178392080208
0.31942093600654364 14.128148620972805 605108.4551722526 5.020087075591436 0.18793749929122322
0.3337194735827305 13.975933140199208 497684.9406959102 5.299952611092613 0.1908010874212667
0.3484000951896638 13.842034250247638 411010.07799354516 5.591980084163266 0.19368887406540994
0.3634626804261751 13.723985205990058 340635.225719602 5.896334962763202 0.19659588875933504
0.37891569805680114 13.620012217361278 283310.587780806 6.213882081510922 0.19952982809623737
0.3947477985077247 13.528472158307094 236412.40019328796 6.5448798024715895 0.20248688726169953
0.41097274167979114 13.447882538423183 197878.70716878507 6.890028651360697 0.20547074580116537
0.42758097290610586 13.377061349452209 166090.05646549945 7.25003456486365 0.20848449264677885
0.44457589595169605 13.314929306276102 139798.47248568202 7.62515795582798 0.21152369751611155
0.4619570095588797 13.260575175288588 117980.48014677507 8.016344953974977 0.2145944779321575
0.47972209408919775 13.21315016752009 99810.8594778372 8.424301879535832 0.21769850261494353
0.497879117383389 13.171983274433858 83768.41918443068 8.849471648730932 0.22083326918687549
0.5164169879576164 13.136408066022742 71940.08342537204 9.292723464998376 0.2240021276394276
0.5353348464172522 13.105871066553519 61275.95959149328 9.754944055820859 0.22720802541149226
0.5546410124366087 13.079830190088487 52302.032783896226 10.236942984257476 0.23045231339905556
0.5743239722312907 13.057841878154404 44732.0381411466 10.739194051055318 0.23373172186724717
0.5943802835654356 13.039525258718216 38329.29642618226 11.262936707514962 0.23705237314455635
0.6148172714047684 13.024502918082895 32902.7842125691 11.80911101874779 0.24041591442449253
0.6356209989309549 13.012449336016537 28292.1354207932 12.378695962382805 0.24382397860783542
0.6567911024155396 13.00302784799248 24371.796183589857 12.972384275586748 0.24727455858380668
0.6783236044422655 12.995978711253338 21028.84929397568 13.591495285213506 0.2507723565667966
0.7002100751301492 12.99106623207135 18172.76052162724 14.237230192369175 0.25432005011012265
0.7224445085239554 12.987990218066658 15730.467953667898 14.91077864882881 0.2579196237654863
0.7450322836043751 12.986651255523787 13634.675381347786 15.613174187337954 0.2615710131238554
0.7679514302757764 12.98674999443881 11836.846238222819 16.345675262460134 0.26527603643874925
0.7911960598021403 12.988141878137732 10289.262866233514 17.10990154735435 0.2690394218227678
0.8147692344371961 12.990672476614725 8956.426854142419 17.90730803967758 0.27286360175970364
0.8386523185539563 12.994124728008178 7807.9349839858005 18.73926216885311 0.2767496766472502
0.8628333338673364 12.998396767011801 6814.8632567346785 19.607104112218238 0.28069808959004444
0.8873124159009027 13.003353811159545 5955.647099391288 20.51292164098547 0.2847152192229865
0.9120682675613141 13.008841892207993 5211.327536548208 21.4585088114845 0.2888040787520188
0.9370883245120977 13.014738808357032 4565.3503491563415 22.44535230498744 0.29296461079593233
0.9623668562599617 13.020937127287915 4004.6029424485173 23.47547230290562 0.2972005735802312
0.9878907007254325 13.027332142296634 3516.7319346422787 24.551293505942386 0.30151808723264883
1.0136338801987694 13.033794587526787 3092.1036522705867 25.67476095713893 0.3059188041763359
1.0395975984528267 13.040244961659184 2721.582232633834 26.84783024247725 0.31040394303886876
1.0657478252768637 13.046573010651429 2398.454902560377 28.073600674820845 0.31498225870850177
1.0920801041108015 13.05270131279804 2115.808046733762 29.35412947152284 0.3196542126336773
1.1185772246635837 13.058535012753524 1868.6930908562274 30.692167617963346 0.32442445805313863
1.1452076021159514 13.063996963552771 1652.14774692883 32.091120005159375 0.3293010872039449
1.1719699807075432 13.069001980985952 1462.1078092888954 33.55292066248457 0.3342817524722084
1.1988255891688888 13.073461288655253 1295.569889643662 35.082115048558606 0.3393800421569055
1.225771118213926 13.077326585473438 1149.1100321519184 36.68073014684633 0.34459274112501476
1.2527664220198238 13.080496965123583 1020.2577153555231 38.35381513246568 0.3499342675859285
1.2798083156016378 13.082938442697225 906.7352660535668 40.10360378397505 0.3554011687483014
1.3068570111492948 13.084517896931693 809.0717215707208 41.93557901293647 0.3610080730728213
1.3338893227883186 13.085237219790473 718.6287700980826 43.8532082217945 0.3667568197277132
1.3608961902019805 13.085034365458634 640.6580399304232 45.86119939195903 0.3726552724218687
1.387827145149418 13.08377402965141 571.8245824815623 47.96487540423674 0.3787133327605048
1.4146839272827008 13.081483918532724 510.8625445811111 50.16897957339249 0.38493658599555275
1.441407018422038 13.078034406106083 456.89979232673517 52.47875606449782 0.39133213168584696
1.468001247628182 13.073436323271467 409.031686759985 54.90060791527487 0.3979115951656778
1.4944097698334498 13.067572670257132 366.5484574474855 57.44072398068504 0.4046840357595661
1.5206215320568375 13.060428921440247 328.8576408395058 60.10573113410081 0.41165922273991673
1.5466050431772411 13.05194270450598 295.3081558606584 62.90273369748547 0.4188476937799526
1.5723206535709717 13.04206604896823 265.48020149067116 65.83935664662395 0.42626081817858624
1.5977450176608246 13.030737691482615 238.93847366962723 68.92379297462311 0.43391086541578905
1.6228319100493014 13.017920758244244 215.24958022974704 72.16485564453014 0.4418110796653976
1.647583705051726 13.00358250159397 194.10373406725276 75.5720346159435 0.44997576096810066
1.671932955465106 12.987648534761725 175.2419455576661 79.15527367070719 0.458419160269107
1.6958709318018246 12.970104254740876 158.37443644603445 82.924747956394 0.4671544834856394
1.7193505310486217 12.950893204680165 143.28594893017913 86.89320024611683 0.4762033085635957
1.742336194538761 12.92995343219393 129.78352972048208 91.07222238682462 0.4855800378666801
1.7648163699367532 12.907309808702138 117.68226040254326 95.47587037363483 0.49530646315516397
1.786742697708322 12.882876008807525 106.82765910520214 100.11784410817849 0.50540023672495
1.808080942294894 12.856624685674293 97.07914218805463 105.01465002136432 0.5158869903177521
1.828792610416466 12.828492967908003 88.33442172588724 110.18282653381992 0.5267892574739315
1.8488730924389516 12.798530154229425 80.47068206882724 115.63998799394639 0.5381303572002312
1.8682593209732452 12.766624733754506 73.38625028163553 121.40636886354496 0.5499397236695925
1.886928894025498 12.732778241942187 67.011399419761 127.50337418455481 0.5622470974536853
1.904852793988903 12.696967026925632 61.259567667260534 133.9534543255574 0.5750818184888031
1.9219963253257113 12.659152949465225 56.07823597648711 140.78225271996436 0.5884800520860346
1.9383119224108816 12.6192807967666 51.39583645642392 148.0174655611105 0.6024801410939934
1.9538082775791792 12.577428235461882 47.16452140993179 155.68761923107533 0.6171179545024065
1.9684264372557907 12.533505810713047 43.34115328702945 163.82632250375622 0.6324409721015899
1.982142530333753 12.487508939465563 39.88275460729814 172.4673168347904 0.6484906612467667
1.9949335387932188 12.439437907467823 36.74769303724005 181.64993829619942 0.6653203602922623
2.006769904201277 12.389282791665533 33.9027628059666 191.4161560884346 0.6829843895033212
2.0176199590703674 12.337013932449535 31.329725996728538 201.8119953839836 0.7015419705726332
2.027459132814152 12.282632147502017 28.99324256142492 212.8874221708461 0.7210558529582475
2.0362692945230774 12.226173245262068 26.87070561440708 224.69785795558212 0.7415961751978615
2.0440159822079353 12.167583787323508 24.94358462440674 237.3045084802956 0.7632402325764399
2.0506772364776022 12.106883499521903 23.18885590270497 250.77419902131192 0.7860705145335688
2.056253352067564 12.04414336172553 21.59487060791853 265.1800080488589 0.810175141198195
2.06070164078333 11.979299326745597 20.14312942197633 280.6036973664849 0.8356539079847871
2.064008916321792 11.91241328925335 18.822731898016812 297.1349320219089 0.8626136098035347
2.066172639622536 11.843514226014504 17.61955683035389 314.8741006755863 0.8911748109895965
2.067168032011054 11.77262978452599 16.52425600843423 333.93060165913107 0.9214633942705787
