M[M_sun], R[km], Lambda[1], P_c[MeV/fm^3], rho_c[fm^-3]
0.24162668629717493 15.618656898711224 2160425.4255784233 3.5677272577965504 0.1711233750220791
0.25364360042927087 15.277285712174463 1723217.991789003 3.784811518120268 0.1738880722415684
0.2660386551348346 14.981302024375452 1383105.6886122695 4.011384483949198 0.17666645568070888
0.27881352669008785 14.723564093858538 1116505.353661216 4.247702498874319 0.1794572159547942
0.29196688300724777 14.49848807729242 905991.4653067166 4.494390593074242 0.18226691650206756
0.3055031270244434 14.301228030572892 738686.4333682097 4.7516032879509 0.18509124236956498
0.31941830386560793 14.128171009300202 605115.3391974285 5.020024659554975 0.18793685170075458
0.33371484981718735 13.976001688191156 497695.53606883564 5.299876270562161 0.1908003187987969
0.3483955622128052 13.84207256785788 411033.39738248236 5.591889628543979 0.19368799888240984
0.36345714235428833 13.72404304322469 340677.1828440873 5.896228359860986 0.19659488752231785
0.37891042011244785 13.620039817632936 283325.6413791693 6.213758041297526 0.19952869699884535
0.3947407649674962 13.528505660726422 236419.33708832058 6.544738453740986 0.2024856478242849
0.41096489106264694 13.447940723288154 197884.9505726116 6.889867265411855 0.20546937137070204
0.4275724097476835 13.377095960889324 166096.4038950972 7.249851627296342 0.20848297925116738
0.44456591936060547 13.314989286103348 139818.2739268528 7.624953972270323 0.2115220736758316
0.46194780382877754 13.260591919450983 117994.20021145979 8.016116366507486 0.2145927096232914
0.47971040936983345 13.213188666144484 99830.46120088683 8.42404690570157 0.21769658556815674
0.49786645268300717 13.172019877397627 84655.00649858132 8.849191228664026 0.2208312388257768
0.5164041451247124 13.136422126463376 71946.30645214714 9.29241306068531 0.22399994237371215
0.5353213606383727 13.10586572450154 61284.49486651338 9.754601562681875 0.2272056805221706
0.5546264961623583 13.079839473522272 52306.76800214602 10.23656616983161 0.23044980396197506
0.5743076282949059 13.0578737692044 44737.24591169416 10.738784552603198 0.2337290927603378
0.5943627157562559 13.039543117684726 38333.003022144054 11.262488366858777 0.2370495719040232
0.6147990755263666 13.024516370983017 32628.79093996939 11.808621187361187 0.24041293543239636
0.6355998562971578 13.012434536754558 28298.223131518018 12.378161826507004 0.24382081594968033
0.6567701767156263 13.003027284273534 24375.066824442823 12.971808288054495 0.24727126647526712
0.6782992136479741 12.995993014180566 21030.9364518914 13.590869267001162 0.2507688710651106
0.7001877857609509 12.991068454989318 18175.65810123249 14.236550786942155 0.2543163643025227
0.7224197412639035 12.988001739889373 15732.799409536041 14.910042283991938 0.2579157303270189
0.7450062907527152 12.986649788345987 13636.346705170932 15.612384245957847 0.2615669754675091
0.767925726003147 12.986759321966058 11837.983918813263 16.344821047271775 0.2652717783902799
0.791169174229777 12.988130227015429 10291.186198678093 17.108978771324303 0.26903493467541184
0.8147420470117307 12.99065740293802 8958.27547887741 17.906312131551328 0.2728588762468554
0.8386225741945089 12.994123985880721 7809.049814406484 18.73819754583422 0.27674478525532914
0.8628010472769368 12.998399002803666 6815.923616479255 19.605956931908523 0.28069294291548347
0.8872754948451856 13.00333252331333 5956.659635459159 20.51168638216649 0.2847098061273118
0.9120343493410014 13.008840871800112 5212.264319185792 21.457179574863428 0.288798387345737
0.9370529566297081 13.014726193915203 4566.253221244308 22.443934627599354 0.2929587225711653
0.9623293550651293 13.020930073708127 4005.246571851822 23.47394839433771 0.2971943845347396
0.9878528110420892 13.027319177923625 3517.269653606863 24.549656193492336 0.3015115829675535
1.013594958856116 13.033778171850154 3092.5582139234903 25.673016578512385 0.30591207228326767
1.0395562340155566 13.040234991947463 2722.183004093685 26.84595747286732 0.3103968680525112
1.0657056182647753 13.046559464678726 2398.9239075766827 28.071590748119718 0.31497482311565117
1.0920355139771543 13.05269320102488 2116.2294631785485 29.351989511120053 0.31964651009016964
1.1185327232231332 13.058522424830393 1869.0599267406672 30.68987207567531 0.32441636037897015
1.1451627167241898 13.063987186626143 1652.5490523965782 32.088676372986704 0.32929269112448767
1.1719233674677196 13.068998563250432 1462.540840861648 33.550300277854895 0.3342729215058335
1.1987767740536956 13.073453478518177 1295.73316887497 35.07930554428314 0.33937075188792487
1.2257222072999183 13.077327590631358 1149.3299138145385 36.67773967567415 0.3445830943279283
1.2527160761594387 13.080489458257784 1020.4291597754185 38.35061374842139 0.3499241383371448
1.2797565128345443 13.082933838648158 906.96228750382 40.100190924378694 0.355390610500873
1.306799454880634 13.084518018837956 806.9726648376744 41.931945030668 0.3609970869938778
1.33383484290858 13.08524043641327 718.7872485075769 43.849312375498535 0.3667452392577382
1.360842197562626 13.085032119784783 640.8027711381169 45.85704984446569 0.3726432061014315
1.3877716623388845 13.083779337509473 571.9574215857727 47.96045443232123 0.3787007492473124
1.4146274184974685 13.081493304266955 510.9852977370906 50.164238701748424 0.3849233015507512
1.441350242398556 13.078041794459798 457.0147671330572 52.473702818857156 0.3913182573666052
1.4679434363971975 13.073448998565365 409.130853123422 54.89521992137551 0.39789709165511034
1.4943518407032252 13.067587808618512 366.64872237947327 57.434977051966705 0.40466886070147035
1.5205631884564244 13.060448464173831 328.9312974534893 60.09959910944987 0.4116433304891889
1.5465455336440224 13.051966066365553 295.3755481335841 62.896188262789686 0.4188310351282667
1.5722620408662114 13.042090786656368 265.54514060165815 65.83236713833547 0.42624334005268705
1.5976850881757765 13.030766447611352 238.99611940113596 68.91632616330541 0.4338925105454271
1.6227729059146783 13.01795307026096 215.30260173524013 72.15687549612117 0.4417917862175945
1.6475241679421588 13.003620242761247 194.15802395878063 75.56350202818021 0.44995546214401977
1.671872514134996 12.987690426403418 175.28409281237677 79.14619073342756 0.4583979698803492
1.6958104531692622 12.970148974766714 158.4109282304019 82.91502605604914 0.4671321425869617
1.719275134426471 12.950911551616219 143.32808919781223 86.88278933969193 0.47617973298280675
1.7422776566246525 12.930013239398127 129.81812145162405 91.06111814075516 0.48555533500650155
1.7647582005564386 12.907373267053826 117.715038708035 95.46396582285716 0.49528034191260073
1.7866853121574418 12.882945470105984 106.85577830615553 100.10512888725088 0.5053727978298226
1.808025022160658 12.856696947211992 97.11582373978945 105.00105819897469 0.5158581280544181
1.8287371867057431 12.828572594816924 88.35667921309637 110.16828619506579 0.5267588574934395
1.8488178277993519 12.798615795836756 80.48815693548546 115.62436123072447 0.5380980776997961
1.8682057451200618 12.766714918413852 73.40439833736727 121.38962724517643 0.549905643869713
1.886877890312866 12.732876695015971 67.02958392767884 127.48542372263901 0.5622110710198495
1.9048025279001972 12.697075681628995 61.27687883897847 133.93425815353888 0.57504391928488
1.921947139755742 12.659268389682895 56.09277133546273 140.76163463837366 0.5884398802224358
1.9382628005956735 12.619390835812304 51.40715136915007 147.99530210702665 0.6024375085873624
1.9537635897879684 12.577559809126292 47.17729303971326 155.6638477957034 0.6170729052528224
1.9683829161198416 12.533643018716493 43.35206863923221 163.80079904224667 0.6323932940633753
1.982101956236596 12.487656236108872 39.89188981993953 172.43980635621747 0.6484398661560152
1.99489569906556 12.439591972175405 36.757747267625525 181.62034107842044 0.6652664485496892
2.0067274070313945 12.389428390427405 33.91329908668254 191.38427994448574 0.6829270853770475
2.0175868864630715 12.337184782691256 31.338152098575932 201.77762831008178 0.7014809724064899
2.0274269093911155 12.282813067010908 28.999860883580528 212.85041670562362 0.7209911141108074
2.03624193747828 12.226360987403996 26.878026863127744 224.65787160756273 0.74152705784337
2.043992491804097 12.16778093161284 24.949975232244537 237.26134645820204 0.7631666373638395
2.0506567713931205 12.107091382596138 23.19479018172764 250.72751575296056 0.7859919112403042
2.056235027786326 12.044360071140815 21.5997079740196 265.1294291074493 0.8100909749011148
2.060687858175853 11.979525014390749 20.147289838598358 280.5489967495118 0.8355641862414942
2.0639995360526284 11.912643604626014 18.825571780279287 297.0755860801728 0.8625174587442501
2.0661668253574867 11.84375883582987 17.623660334943217 314.80963289871136 0.8910716107586555
2.0671657703671524 11.77288204346984 16.528128488331756 333.8605868809299 0.9213528115211509
