M[M_sun], R[km], Lambda[1], P_c[MeV/fm^3], rho_c[fm^-3]
0.24162668629717493 15.618656898711224 2160425.4255784233 3.5677272577965504 0.1711233750220791
0.25364525486008765 15.277277336580005 1723195.9787472165 3.7848495416109467 0.17388854618603658
0.26604280748574693 14.981201887080973 1382894.3770896387 4.0114644173312115 0.17666742162845706
0.2788197478268841 14.723436482794568 1116345.7596949378 4.247827046846466 0.1794586605235813
0.2919762998952025 14.498325884414387 905763.8677466492 4.494563024312616 0.18226883656392603
0.3055138969379721 14.30111786158508 738536.9835481859 4.75182945780445 0.18509368543563498
0.3194324722441858 14.1280114107174 605015.5549020912 5.020306234508374 0.18793977314957402
0.3337328183395112 13.975808583426414 497592.0279133499 5.300220664302746 0.190803786272312
0.3484159952444488 13.84190324805584 410930.3278796663 5.592297701409653 0.19369194709964224
0.3634817410595795 13.723838641972996 340589.8811184238 5.896709280466836 0.19659940443042165
0.3789364177977317 13.619885479437176 279327.047257571 6.214317630126931 0.1995337997751807
0.3947716110472226 13.528330945570241 236350.4860987993 6.545376130267249 0.20249123938596145
0.41099930226103737 13.447776830826115 197818.4120071285 6.890595340831927 0.20547557196650437
0.4276087253462182 13.376965244765252 166027.2867317311 7.250676934561372 0.20848980680666285
0.444607734140561 13.314829424069423 139761.05421369427 7.625874230749899 0.21152939952505329
0.4619902836994547 13.260495015281773 117939.9391462413 8.01714762886627 0.2146006872713764
0.47976019002043724 13.213065714197004 98705.13757208284 8.425197214494764 0.21770523428217936
0.4979197001295332 13.17190899033653 84610.7758166181 8.850456342881602 0.22084039879325376
0.5164616234851096 13.136336456485363 71913.79176452463 9.293813455332806 0.22400980123933495
0.535383408126817 13.105783623693592 61253.64202298585 9.756146733906046 0.22721625958227806
0.5546939714322846 13.079759499435427 52284.903790683005 10.238260663493051 0.23046105436828423
0.5743794296222536 13.057801620059108 44711.3773480468 10.740632037015763 0.2337409541825455
0.594440201126934 13.039493191983759 38311.66418762102 11.264511100318131 0.23706220997928124
0.6148808253083671 13.024462552264778 32888.04234807273 11.810831120628512 0.24042637551385393
0.6356882077568465 13.012402197454964 28279.156664621725 12.380571655981498 0.24383508472881532
0.6568622752440916 13.003011081762022 24359.207833449844 12.974406947324434 0.2472861193460237
0.6783975840876235 12.995965666325676 21017.797093189434 13.593693660666636 0.2507845965323396
0.7002898608414903 12.99105215055449 18163.909306155183 14.239616060777523 0.2543329935626803
0.7225281593926691 12.988003037241791 15721.572898463608 14.913364556992757 0.25793329643671453
0.7451199969604021 12.986644172564187 13627.041147928172 15.615948255034194 0.26158519231780675
0.768043934007846 12.986767729830564 11829.459854967154 16.348675060802165 0.26529098968110887
0.7912929132063701 12.988148652401756 10284.297862381034 17.113142134203873 0.26905517969926224
0.8148709003567747 12.9906840877272 8950.932466263415 17.91080547131781 0.27288019682275816
0.8387577157278318 12.994146667378253 7803.2076186150225 18.743000931835766 0.27676685432866754
0.8629435989911275 12.998423843152564 6810.41938738727 19.6111328256606 0.2807161638864837
0.8874280825777291 13.003381617184242 5951.944398472055 20.517259698264677 0.2847342292626104
0.9121883558217269 13.008878905505574 5208.1644701465175 21.46317693412808 0.28882406630135105
0.9372123545529144 13.014766107431875 4562.772434275103 22.4503310457569 0.29298528965062354
0.9624997227708502 13.02098376625789 4002.0637731517463 23.4808241498002 0.29722230902065877
0.9880257407221662 13.027355357340928 3514.3938798281256 24.557043653937438 0.30154092984090974
1.0137722663492013 13.033823229959642 3090.2245789018757 25.680887146144592 0.3059424463195461
1.0397397421323533 13.040282301664758 2719.7152419604445 26.854407376853413 0.3104287902682003
1.0658947666574605 13.046608962346973 2396.7753882535058 28.080659547261398 0.31500837254709235
1.0922307994796334 13.052741727828753 2114.3860845586864 29.361645061554306 0.3196812641431948
1.118733310073781 13.05856756076535 1867.1305944806788 30.70022966717146 0.324452897454128
1.1453689845188926 13.064029939184495 1650.9187815942712 32.09970219778825 0.3293305747725057
1.1721352567804808 13.069029434245467 1461.1368002272009 33.56212368168111 0.3343127675957718
1.198994268375872 13.073489681433575 1294.4750461559572 35.09198233824006 0.3394126706088538
1.2259414949071452 13.077355430787687 1148.186860178055 36.69123306945316 0.3446266219275269
1.2529445328521505 13.080516754100003 1019.4323241449364 38.364996318047936 0.3499694760674254
1.2799901713192379 13.082943673915224 906.0599872500902 40.11559033859527 0.3554382511438472
1.3070434417188639 13.084552641165374 806.1598661593139 41.94834226141973 0.36104665830660987
1.3340765312360745 13.08523642949633 718.008832497753 43.866891284671105 0.3667974928669414
1.3610875561564397 13.085029332343572 640.1424351874559 45.875773594714566 0.372697652223726
1.3880291169013894 13.083777426589819 571.349057184407 47.98040300763119 0.3787575293321848
1.4148739701177713 13.081451105533318 510.42395689889736 50.18563087169128 0.38498324476839696
1.4416064781195805 13.078008423727656 456.52562217348395 52.49650462031703 0.3913808625703173
1.4682029810675898 13.073400628304263 408.6971491103943 54.91953233049519 0.39796253628796907
1.4946142701912672 13.067521837184096 366.2367456913546 57.4609092246943 0.4047373359248421
1.520827454243066 13.060369102598102 328.5949623842502 60.12726911396038 0.4117150423094038
1.5468120830500425 13.051870542038571 295.0513922338158 62.92572388499439 0.4189062056349638
1.5725299729102105 13.0419770991402 265.2480781183425 65.86390676861906 0.4263222087808089
1.5979441169065685 13.030630877418428 238.72241326478783 68.950019773622 0.43397533597425786
1.6230527629677534 13.017815947471654 215.04778639518025 72.19288571770105 0.44187884742182576
1.6477947415533345 13.00345002250563 193.927050084139 75.60200534137154 0.4500470606136383
1.672143053335158 12.987504946966238 175.09619619646335 79.1871777018702 0.4584935920088045
1.6960795768160903 12.96994033708922 158.23056670735625 82.95889662686359 0.46723295703092144
1.7195584321431205 12.950713874255712 143.15906841199973 86.92976937801421 0.47628611965498807
1.7425415905626804 12.929761438041915 129.67603254227134 91.11122720050999 0.48566680921997424
1.7650209751644208 12.907092207938534 117.57431792069671 95.51768669218188 0.49539821749518637
1.7869314497507929 12.882611292081192 106.72965133464935 100.16250834458985 0.5054966202094228
1.8082818740650153 12.85636616348603 97.00280148555794 105.06239382557337 0.5159883743860649
1.8289854776815022 12.828207184642839 88.26075019910678 110.23390258235969 0.5268960439048027
1.8490650311725485 12.798226791980944 80.40093194939378 115.69488085306271 0.5382437469050961
1.868437446998129 12.766268927321011 73.32316026296593 121.46517842174312 0.5500594383787852
1.887113455417442 12.732426731792284 66.95146003478565 127.56623882047745 0.5623729659634571
1.905031820399869 12.6965912922909 61.2049279749023 134.020887299108 0.5752149521163444
1.9221688335600835 12.658753147677114 56.02690366791631 140.85468129942865 0.5886211705020278
1.9384768579519924 12.618855093643035 51.35358795502505 148.09532357551691 0.6026299048583819
1.9539679454183412 12.576975331760504 47.125879197987246 155.77112666293164 0.617276209444986
1.9685761377946414 12.533023988917652 43.304483044066735 163.91598550915012 0.6326084633408172
1.9822863571559135 12.487000418415121 39.84611860731341 172.56396118152892 0.648669104466145
1.9950673170626305 12.438895336673571 36.71552264099697 181.7539143912833 0.6655097541911678
2.006896995875843 12.388712104102693 33.87538525295278 191.52813928620085 0.683185703040982
2.017735852617396 12.336413393810249 31.30211669692658 201.9327306884302 0.7017562638284703
2.027564466407488 12.282008066030947 28.967442621761904 213.0174277548114 0.7212832899494078
2.036365350420575 12.225512246213015 26.847977230439177 224.83833743091517 0.7418389973153167
2.0441005660600666 12.166891391414898 24.922824122793234 237.45614636504118 0.7634987890996245
2.0507489562521832 12.106158141770408 23.16960622401972 250.9380911145504 0.78634628250155
2.056312175077188 12.043382436257742 21.577499566055305 265.35754346233614 0.8104703088616755
2.060748003861287 11.978505329382667 20.12641679598022 280.7958798509465 0.8359691319893857
2.0640429704173267 11.911580489420913 18.807541414480948 297.34343787324474 0.8629514266430096
2.066189284754206 11.842649168619776 17.60630782372408 315.1006046253254 0.8915373992632306
2.0671727408517597 11.771735976006187 16.51146301579625 334.1765979629617 0.921851925782433
