M[M_sun], R[km], Lambda[1], P_c[MeV/fm^3], rho_c[fm^-3]
0.24162668629717493 15.618656898711224 2160425.4255784233 3.5677272577965504 0.1711233750220791
0.25363509615546126 15.277494564492303 1723398.3071593244 3.7846560044595186 0.17388613383880944
0.2660221827081049 14.981618505016334 1383530.416907341 4.0110575733554095 0.1766625051591124
0.27878592457984924 14.724062212833163 1116922.8815495118 4.247193141909246 0.17945130818158392
0.29192896100823434 14.49908712500646 906469.3042932107 4.493685434639448 0.1822590643992374
0.30545473984386673 14.301885171464368 739261.2224932126 4.750678397199598 0.1850812517842704
0.3193585109177869 14.1288512024522 605577.1695522123 5.018873234906918 0.18792490522562189
0.33364428783730526 13.976665460934507 498150.8250443262 5.298468013004297 0.19078613998191105
0.3483126615197218 13.84276388006898 411466.867451075 5.590221033725907 0.19367185476853038
0.3633612157887256 13.724754007066952 341064.8498464483 5.89426195819409 0.1965764186617274
0.3788000475910874 13.620731427074155 283693.1755018073 6.211470053697656 0.19950783330685093
0.39461786192573706 13.529144376586258 236765.31394885317 6.542131267384747 0.20246278632207695
0.41082702722283376 13.448565912324096 198182.14478128703 6.88689057221308 0.20544402060230044
0.4274196566020562 13.377685887387813 166366.28245848586 7.246477515107061 0.20845506608573633
0.4443966538595726 13.315547381705969 140055.4343411826 7.621191777517921 0.2114921241865192
0.4617615687551158 13.261142415980071 118199.11578326195 8.011900498697203 0.21456009647739616
0.47950863964341617 13.213687465989286 100005.92837816842 8.419344515171273 0.21766123016519032
0.4976464451796895 13.172481502466422 84815.14306450455 8.844019662659964 0.22079379447826725
0.5161646105768164 13.136848307454946 72102.55900393969 9.286688668320837 0.22395964229459198
0.5350652689174045 13.10623789009784 61417.463194957934 9.748285561225543 0.22716243783294615
0.5543527856689056 13.0801864739446 52424.51298549352 10.229617421289612 0.23040352800740097
0.574012583179315 13.058143988716312 44436.13963101638 10.731233253656729 0.2336806110820018
0.5940536286330614 13.039805634619679 38424.84578544651 11.25422101629177 0.2369979173480721
0.6144651611253359 13.024739033662565 32986.73919476587 11.799588984460415 0.2403580045688619
0.6352442088897818 13.012621104759893 28370.011353386 12.368312927659824 0.24376249988878865
0.6563906942380903 13.003159474490484 24439.64819482375 12.96118791839061 0.2472105647973559
0.6779043978854538 12.996117718365268 21089.789836385855 13.579326699511808 0.25070460514176873
0.6997688040379938 12.991146004141527 18225.759497890005 14.224024182593897 0.2542484068625723
0.7219786321916717 12.988041982162892 15777.400055046737 14.896465832574716 0.25784394651069403
0.7445426959300787 12.986655760153498 13676.134116510075 15.597820305616127 0.26149253426512564
0.7674380012246508 12.986737479357767 11873.398043587855 16.329072511052914 0.2651932758870981
0.7906590143184189 12.988085178256386 10322.09033250625 17.09196666637963 0.26895221056984797
0.8142081382590614 12.990593829384704 8986.577785705003 17.887952251966222 0.2727717599310184
0.8380657020527884 12.994031787926243 7834.297031384791 18.718556477361084 0.27665448139933363
0.8622232634164181 12.998301893976674 6838.038066350699 19.58480929557745 0.2805980668083823
0.8866694442785329 13.00321646639754 5976.407994694118 20.488915660254563 0.2846100212932375
0.9114052405718386 13.008683110173584 5229.9524230070365 21.43267711114498 0.2886934748916893
0.9364008401523469 13.014582565000307 4581.868759099623 22.417802447670805 0.2928501843731491
0.9616512550203546 13.020769800347717 4019.2882092321306 23.445858788686373 0.29708030429995447
0.9871499482342937 13.027146347695178 3529.8820975551234 24.51947706378876 0.30139169561194673
1.0128669379524162 13.03360594492475 3103.893815139184 25.64086468709153 0.3057879919421699
1.0388044951040911 13.040050006515434 2732.071858841745 26.811440049087828 0.3102664674410091
1.064934100062617 13.04638723006711 2407.854408469852 28.034546363790906 0.31483777982988603
1.091237774235615 13.05250710366403 2124.2263600211995 29.312549385371252 0.3195045498538346
1.1177106408146622 13.05835301992769 1876.040038811479 30.64756570437308 0.32426712191281704
1.1443214202985719 13.063831351323785 1658.7243273798197 32.04339006035309 0.32913632809279897
1.1710559895688721 13.068841456291148 1468.2086997836939 33.502009590359215 0.3341101769099948
1.1978876017853293 13.073308966872137 1301.0433149896223 35.02753108589377 0.3391995477901186
1.224812091181631 13.077205272130609 1154.009165801037 36.62263159281858 0.3444053241831841
1.2517903397498635 13.080407785925818 1024.6298905895483 38.291538541315326 0.3497370010316058
1.2788068274479394 13.08286235166393 910.7145074350583 40.03730248254876 0.35519605467152215
1.3058302070353778 13.084473569297923 810.3344361958013 41.86498362527726 0.36079465252077314
1.3328462076294052 13.085225043461767 721.7965742376132 43.77752794348603 0.3665318588016226
1.359836795175957 13.085058282543578 643.5942631561963 45.7805926829655 0.37242087906170923
1.3867513790663215 13.083846774966066 574.4313238175414 47.87899826713713 0.37846889870657624
1.413582452426761 13.081586449990823 513.2016251299865 50.07689119997825 0.38467854422489756
1.4403088243936895 13.078217168417911 459.01259939512875 52.38060252729247 0.3910626388476334
1.466876488285598 13.07364446694127 410.9531082691088 54.79595499415575 0.3976298883234426
1.4932781090709595 13.067851475218466 368.2831204296882 57.329102302439935 0.4043892930308617
1.519473842832944 13.060757726194254 330.41991795923957 59.986633027003194 0.41135055845903895
1.545454016640206 13.052349936213702 296.71351070758635 62.77560973220581 0.4185241531815125
1.571164197397408 13.04254216156337 266.7539806848767 65.70361182857253 0.4259213715505634
1.5965821550836867 13.031291604991306 240.06819483044598 68.77878254856556 0.43355440166464176
1.6216773256461976 13.018559539688423 216.28597869192683 72.00988046751532 0.4414363992289852
1.6464089799775556 13.004292096600617 195.05477392227647 75.40633604912819 0.44958156800442395
1.6707760788262846 12.988453536367015 176.1050504874826 78.97831375547307 0.4580052476226182
1.6947048856260027 12.971001095179064 159.15545772983535 82.73596444615818 0.46672065952894426
1.7181957169256856 12.951891295986686 143.997935284976 86.69104396115992 0.4757455240409529
1.7412004291826748 12.931075576439799 130.43010436765869 90.85660914185878 0.4851003777610136
1.7636840385706463 12.908525285608485 118.27484519141237 95.24472540254841 0.4947992794764363
1.7856201412907509 12.88418935804655 107.36691601239795 99.87096621751775 0.5048674849473983
1.8069606969143834 12.85802543384618 97.5786803475951 104.75060428727392 0.5153260301216085
1.8277127432024871 12.83006464206065 88.7800931845785 109.89950350450262 0.5261952277697574
1.8477934873530781 12.800173202735909 80.87273276760715 115.33661065324688 0.5375036843018179
1.8672146650128294 12.768427139601222 73.75536955863795 121.08135895408932 0.5492781225967854
1.8859116070714352 12.73471191070158 67.3460791181108 127.1549090266619 0.5615477306622464
1.9038520719071634 12.699005580082064 61.57580757202072 133.58032430312747 0.5743443742778505
1.9210286085502954 12.661335993855888 56.36072556726147 140.38203018534097 0.5877002663916503
1.9373947623214838 12.621654853884188 51.65351916905648 147.58726228211697 0.6016526236829015
1.9529352730960552 12.579971918265331 47.40117430839506 155.22622093293708 0.6162435585408137
1.9675857853274537 12.53617845032452 43.55813586921137 163.32962975091084 0.6315111615201167
1.9813482588285223 12.490338533508876 40.07980072931516 171.93338765045172 0.6475048193864946
1.9941965432500366 12.442457013811207 36.928470941453654 181.0755324897498 0.6642740721512268
2.006065255752252 12.392417972529818 34.0725626497066 190.79754819333164 0.6818723106712087
2.0169673385748865 12.340314910772612 31.483325742621048 201.1450760718082 0.7003582545796874
2.026864668279707 12.286112723910842 29.13484056161057 212.16837588679851 0.7197964616219095
2.0357328615761596 12.229816279454914 27.000412501399577 223.92196098349365 0.7402550188101195
2.043548962469685 12.17142812761743 25.06193762019541 236.46624546897343 0.7618096995060462
2.050282599039088 12.110927723556543 23.29925334595741 249.86733818307843 0.7845418462910759
2.055908354309649 12.048313126783942 21.695647474796214 264.1987137202778 0.8085422104234372
2.060432263877934 11.983676237989176 20.2359767527944 279.540872465941 0.8339079988411893
2.063828515433428 11.916996546956476 18.908045930783036 295.9831673596409 0.8607467235959874
2.066061781291136 11.84827481534408 17.69786841470002 313.62354056059326 0.8891729102117367
2.0671367769632876 11.777579026576964 16.59661071920577 332.57251336267177 0.9193184022896488
