M[M_sun], R[km], Lambda[1], P_c[MeV/fm^3], rho_c[fm^-3]
0.24162668629717493 15.618656898711224 2160425.4255784233 3.5677272577965504 0.1711233750220791
0.2536450561548882 15.277247292337728 1723202.4405787818 3.78484083629417 0.17388843767846254
0.2660418896358139 14.98125272901988 1382955.1132385728 4.011446116822166 0.17666720047760545
0.27881859145681126 14.723445577265363 1116406.6754394665 4.247798531808909 0.1794583297921169
0.2919742285653373 14.498361397289978 905822.7089316397 4.494523546281876 0.18226839696689137
0.30551091879620207 14.301155977294984 738597.4656663022 4.7517776760777055 0.18509312609415923
0.3194288588892011 14.12806427356552 605032.2560121118 5.02024176743027 0.1879391042787567
0.33372828498942114 13.975898230469948 497641.9134491725 5.300141814350214 0.19080299238412574
0.3484111950597296 13.841889537651141 410952.71679752663 5.592204271490019 0.19369104313946808
0.36347615059845734 13.723917917032212 340625.2864672171 5.896599171214624 0.19659837026102325
0.37892971995148483 13.619939677170438 283235.9295756622 6.214189508743874 0.1995326314624354
0.3947640331219728 13.528371406214491 236365.58342759975 6.5452301295533335 0.2024899591569377
0.41099161220379526 13.447800461595543 197829.83778864966 6.890428641818197 0.20547415228775093
0.4276014370315004 13.376991904847479 166051.10277888618 7.2504879725825795 0.20848824357263912
0.4445982910199959 13.314859612528345 139777.00655604294 7.625663527872046 0.21152772219466406
0.4619801288670998 13.260491938817143 117949.00027705441 8.016911509357854 0.2145988606960844
0.47974821716412236 13.213101083354069 99790.29235117273 8.424933836674594 0.21770325404916713
0.4979077608572019 13.171930321791939 84623.507864642 8.850166677695674 0.22083830149354325
0.516449123683535 13.1363465944544 71923.64227735852 9.293492814346866 0.2240075439068043
0.5353687709562891 13.10581942065408 61260.45586497948 9.755792942543142 0.22721383733933492
0.5546786372275324 13.079759334259023 52291.32868448656 10.237875200645275 0.23045851080049526
0.5743632090219624 13.057801073657922 44715.89882233662 10.740209022622658 0.23373823829910834
0.594422472351127 13.039490214258455 38318.12539874978 11.264047957410254 0.23705931625401166
0.6148615251978244 13.024476984419929 32891.044872378414 11.810325112475063 0.240423298140025
0.6356688002845159 13.012434769785118 28283.752425464576 12.380019875083994 0.2438318175931774
0.6568413421417058 13.002997137719554 24362.648189486306 12.973811927594427 0.2472827184572463
0.6783758660705516 12.995967424082883 21020.559643861845 13.593046951166329 0.2507809958271057
0.7002667308719518 12.991047761436448 18166.08930202363 14.238914193044451 0.2543291858959737
0.7225034183658701 12.987996649957733 15723.701104251644 14.912603839671135 0.2579292742374806
0.7450944161645956 12.986650146557674 13629.407824070857 15.61513218311144 0.2615810210994595
0.7680169771320597 12.986751112010962 11831.871394424332 16.347792580826475 0.2652865907397637
0.7912655872704902 12.988141793481045 10286.486240300601 17.112188815999477 0.26905054403565487
0.8148436882268065 12.990660297748315 8953.10093352579 17.909776590944094 0.27287531485895333
0.8387275228177183 12.994146460867828 7804.749423304354 18.741901053244028 0.276761800955631
0.8629100499018317 12.998422145597797 6811.528655584807 19.60994764480655 0.280710846727446
0.8873951846916923 13.003364704943245 5952.951204051673 20.515983509332695 0.2847286368048342
0.9121539278884255 13.008870562972644 5209.033386967519 21.4618036405157 0.28881818625579075
0.9371758663221481 13.01475677134771 4563.379121211311 22.44886636885275 0.29297920621662427
0.9624637841266621 13.020964309994786 4002.818837834872 23.47924970490371 0.297215914732121
0.9879853338409361 13.027352425838226 3514.948809061191 24.555352028199437 0.3015342098149051
1.0137303346218416 13.03381712477769 3090.4366608938544 25.679084888613534 0.30593549106063855
1.0396975524056307 13.040265686205998 2720.2510696867294 26.852472449472614 0.3104214804609771
1.0658524025704044 13.04659814425398 2397.1588538978426 28.078582890112955 0.31500069008930054
1.0921871328380344 13.052727622010094 2114.6761097333056 29.359434035937774 0.3196733058085519
1.11868724529047 13.05855707515422 1867.4525732524348 30.697857869290306 0.32444453078341357
1.1453209243423994 13.064013741029868 1651.321551407951 32.09717737011865 0.32932189971331854
1.1720873138388928 13.069024292179492 1461.3437568495108 33.559416200900856 0.3343036431063894
1.1989450018063326 13.0734783455068 1294.7987830215682 35.08907942187419 0.33940307145141424
1.225893722396926 13.077343135145286 1148.5039326251913 36.68814314323401 0.3446166543038542
1.2528914591387408 13.080510681442046 1019.6672373424295 38.36170683905248 0.3499591178134197
1.2799364575744228 13.082942441176689 906.2633176051207 40.11206390849125 0.3554273415472095
1.3069887603895538 13.084552035812576 806.3534029874194 41.944587317156255 0.3610353065412298
1.3340208789196188 13.085237827515261 718.1660456067093 43.86286571553791 0.36678552679360654
1.3610325415734608 13.085027275096314 640.3000927727887 45.87148583756627 0.3726851840083865
1.3879705712997499 13.083783121713038 571.4648478130642 47.975834743208544 0.3787445265769701
1.414816084395577 13.081461131384094 510.58989749406226 50.180731993064875 0.3849695175706182
1.4415482207877792 13.078014643323737 456.6341807441036 52.49128290625598 0.3913665256999128
1.4681436678139443 13.073411618291432 408.80246384551526 54.91396465325313 0.3979475491021584
1.4945533968699343 13.067538567591455 366.33362311995376 57.45497058282341 0.404721654638399
1.520766887735393 13.060385998501218 328.6710612005794 60.12093246452127 0.41169861973653543
1.5467510288418866 13.051892009190253 295.13134527065074 62.91895995902032 0.4188889909056038
1.5724684006979968 13.042003068734525 265.3161038396556 65.85668386796982 0.42630414702858055
1.597881931142452 13.030661582102868 238.7827624686347 68.94230354713446 0.43395636799303583
1.6229803179423814 13.017839575119902 215.1198497378169 72.18463891428779 0.4418589092874651
1.6477329594596337 13.00348899449957 193.97826924389508 75.5931875374262 0.45002608326701943
1.6720802436074715 12.987548584265896 175.14103828108665 79.17779105980486 0.45847169308025626
1.696017945888384 12.969985933442842 158.2704876563669 82.94884953534898 0.46720986884388277
1.7194967597621607 12.950767428963688 143.19697376910477 86.91901010030888 0.47626175518465086
1.7424788752431277 12.929820046538921 129.70585440441192 91.09975125878063 0.48564127947376867
1.7649605996718056 12.90715571707058 117.60485742023614 95.5053834965771 0.49537122153685936
1.7868867990817936 12.88271324316962 106.75896569629687 100.14936718119047 0.5054682621489202
1.808223470596933 12.856442080933807 97.03210042660223 105.04834652906328 0.5159585449224815
1.8289363074120457 12.828306001062943 88.27986022426806 110.2188747996129 0.5268646248085861
1.8490093158015717 12.798312983028104 80.41614395506926 115.67872999147087 0.5382103847982812
1.8683820862941165 12.766364643066089 73.34137026671843 121.4478750885637 0.5500242151333962
1.8870573883684583 12.73253388797184 66.96946803470065 127.54775164686234 0.5623359653491653
1.9049793238032644 12.696702451859451 61.22237379029392 134.00104654756117 0.5751757803122923
1.9221188418307333 12.658869574140494 56.04142087629322 140.83337058584746 0.5885796491279168
1.9384285936754413 12.618966624796485 51.36280488959289 148.07241523464322 0.6025858395249503
1.9539211305901016 12.577107736971568 47.138365717099255 155.7465559616942 0.6172296455065792
1.9685331903881853 12.533166991804814 43.316241269309685 163.88960349732844 0.6325591815234846
1.9822434485263967 12.487151239655173 39.85645428673578 172.53552484826284 0.6486165998859336
1.9950298108112674 12.439053760717089 36.72599665643422 181.7233206204884 0.6654540272134583
2.0068597672560373 12.388880766323096 33.88435366587069 191.4951893311743 0.6831264685116555
2.017701404197915 12.336590477315095 31.31137957186299 201.89720530361032 0.7016932097747053
2.0275341486169425 12.28219437113277 28.974728032946842 212.97917445185706 0.7212163680845116
2.0363372178588603 12.225705794129041 26.85488107553244 224.7970019918705 0.7417675480248708
2.04407523674145 12.167096012025771 24.928595794246363 237.41152734451515 0.7634227095708546
2.0507279842155604 12.106370476776222 23.17497450495267 250.88986602243676 0.7862651380400016
2.0562940655295727 12.04360631029626 21.581918053758518 265.30535452855287 0.8103836217936758
2.0607348603480933 11.978741504670234 20.132304553465488 280.7393295772901 0.8358763763786283
2.064032872068185 11.91182579755416 18.81175776804177 297.2820839619823 0.8628520223133023
2.0661865571433697 11.842906679230449 17.609086874443317 315.0339541874083 0.8914307050212575
2.0671720501448325 11.771998902287258 16.51526476114976 334.1042112287451 0.9217375967179494
