M[M_sun], R[km], Lambda[1], P_c[MeV/fm^3], rho_c[fm^-3]
0.24162668629717493 15.618656898711224 2160425.4255784233 3.5677272577965504 0.1711233750220791
0.2536454954164496 15.277229677543353 1723145.3802713428 3.7848467996673403 0.17388851200903227
0.2660425246615991 14.981223458499882 1382962.816322687 4.011458653150414 0.17666735197173392
0.27881940941464245 14.723443495271388 1116334.617849971 4.247818065347147 0.17945855635172403
0.29197616541419597 14.49832253451397 905833.3737216311 4.4945505897409035 0.1822686981020841
0.30551250285088327 14.301146050639824 738576.3446849976 4.751813147865241 0.18509350925716353
0.3194309759381605 14.128033912681168 605027.4501368686 5.02028592898264 0.18793956247190732
0.3337319832008089 13.975833086039295 489621.3860236961 5.300195828503563 0.19080353621702428
0.3484145453080809 13.84191312034164 410933.4338194364 5.592268273250237 0.19369166237410448
0.3634800562130913 13.723846858345986 340604.83847385715 5.896674598686806 0.19659907869180415
0.37893472726612987 13.6198967815904 283243.4356201293 6.214277274915909 0.199533431784247
0.39477001080188295 13.52834105243393 236355.62669135927 6.545330143446732 0.20249083614367067
0.41099685154050813 13.447765299178569 197820.98223863676 6.890542834477667 0.20547512480035807
0.4276080044443392 13.376950679267958 166036.89323747525 7.250617415826766 0.2084893144234248
0.4446051154933805 13.31482896557201 139764.89357573236 7.625807864067107 0.21152887120358463
0.46198692219082815 13.260477051027996 117934.71156299755 8.017073256442767 0.2146001119405531
0.47975626757825246 13.213076124173867 99778.00297446747 8.425114256226001 0.2177046105519718
0.49791687981202337 13.171914847863643 84617.43351390437 8.850365104588798 0.22083973818903074
0.516458106457539 13.136326664579192 71914.66480846299 9.293712460234422 0.224009090227546
0.5353787979659985 13.105802391566005 61253.3155128383 9.756035297037721 0.22721549662649054
0.5546893138642585 13.079763937170414 52286.93164103419 10.238139250671125 0.23046025319705643
0.5743748921312055 13.05779024090419 44713.276432484774 10.74049879610911 0.23374009873465193
0.5944331281998608 13.039491602670248 38314.722147428365 11.264365219611207 0.2370612985139845
0.614874736166359 13.024468251273936 32889.42137882949 11.81067173808186 0.2404254062020464
0.6356821525467565 13.01240367546256 28280.05765552467 12.380397855764658 0.2438340556448349
0.6568558205226377 13.00300403881746 24360.612060551823 12.97421952757172 0.2472850481315723
0.6783910628932022 12.995960000705082 21019.30292759715 13.593489959442598 0.25078346237849897
0.7002828455299093 12.991054128597051 18164.449163972866 14.239394985550867 0.2543317942187861
0.7225210146367607 12.98799035747668 15722.072756056969 14.913124945021565 0.25793202951790045
0.7451117830225291 12.986643658529403 13627.818885729435 15.615691207183064 0.2615838784596983
0.7680358667798601 12.986755479963406 11830.658265762033 16.348397095360017 0.26528960409309593
0.791281553819463 12.988164329161764 10215.876480556546 17.1128418557032 0.2690537195465963
0.8148631359457599 12.990674217351176 8951.88786921529 17.910481391756083 0.2728786590884106
0.8387489843181872 12.994137306026193 7753.857907290348 18.742654488794972 0.27676526260214956
0.8629331317474594 12.998421230899094 6810.589307938802 19.61075951350663 0.28071448907028446
0.8874181960264891 13.003371648119929 5952.22427214046 20.516857719706582 0.284732467730241
0.9121771926560457 13.008871275798558 5208.447827959991 21.462744368777624 0.28882221418178566
0.9372015149199391 13.014768672081182 4562.661704284288 22.449869695785768 0.2929833734654963
0.962488956576471 13.02098035308524 4002.248961858599 23.48032822417636 0.2972202949193465
0.9880126155028602 13.02735770642258 3514.9596267038205 24.556510817656026 0.30153881313531294
1.0137592525700458 13.033815760126695 3090.456222489342 25.680319462091184 0.30594025551745424
1.0397261563395863 13.040276179146929 2719.86692384312 26.853797903189765 0.31042648778644666
1.0658812160991133 13.046599365732074 2396.780626795285 28.08000543015544 0.31500595268348547
1.0922173398596864 13.05273065715901 2114.4951721457196 29.36094861975442 0.31967875738033263
1.118718396157793 13.058566697712598 1867.2579067918352 30.699482583625766 0.32445026206851074
1.145353425277293 13.064022302151818 1650.920790650739 32.098906911320704 0.32932784224653583
1.1721198670863537 13.069027038350873 1461.1618064986342 33.56127086108029 0.3343098935024175
1.1989797992295979 13.07348599391716 1294.6114330950752 35.091067957060694 0.33940964699818293
1.2259291885739592 13.077346940785707 1148.324914341079 36.690259781753326 0.3446234822520689
1.252928304204529 13.080513465626339 1019.5805328361098 38.3639601728486 0.34996621334552436
1.2799725805982394 13.082950516715256 906.0996383071754 40.114479555522536 0.3554348147521088
1.3070259177147174 13.08454667349753 806.248935418321 41.94715949807832 0.3610430826338409
1.334058659306996 13.085243176128145 718.076541471858 43.86562327626016 0.36679372369017843
1.3610700584902953 13.085031939244343 640.1860528776056 45.87442299881785 0.3726937248743229
1.3880110144005808 13.083777531486215 571.3970444821585 47.97896405370308 0.37875343360480096
1.4148570907623557 13.081448227013183 510.47866659776605 50.184087776061624 0.38497892084439
1.4415882273048763 13.078009021566386 456.5591294486853 52.49485983328754 0.39137634660138276
1.468183728238992 13.073401687721256 408.72844970507833 54.91777856681908 0.3979578154715605
1.4945956029553735 13.067528110197218 366.274301241646 57.45903860889637 0.4047323964685169
1.520808362857485 13.060372148961337 328.6193449271103 60.125273127480995 0.4117098693495112
1.546792912821272 13.051877542515395 295.0788463258085 62.923593308057924 0.4189007831472721
1.5725113614515105 13.041984678245937 265.2745025282436 65.86163161623992 0.4263165194822086
1.5979244493283642 13.030640429304185 238.7417213600553 68.94758922508834 0.43396936121457186
1.6230332697820429 13.017826311316512 215.0717353769472 72.19028803879722 0.44187256706464795
1.6477751901723063 13.00346217793082 193.94400068981224 75.59922779850565 0.45004045290498346
1.6666615507829832 12.987186956650286 178.6284722199474 79.59069343386386 1.0573166682877801
