M[M_sun], R[km], Lambda[1], P_c[MeV/fm^3], rho_c[fm^-3]
0.24162668629717493 15.618656898711224 2160425.4255784233 3.5677272577965504 0.1711233750220791
0.2536443408252445 15.27729186441567 1723115.9752504998 3.7848266690554206 0.17388826109066602
0.2660407315423424 14.981255123733838 1382943.9715656082 4.011416334267871 0.17666684057301327
0.2788160730325878 14.723476508790974 1116435.849344539 4.247752126152368 0.17945779155643285
0.29197099204917754 14.498393972087023 905788.3772715817 4.494459299600146 0.18226768156517945
0.305507479908953 14.301184736158698 738670.9573655886 4.7516934066640575 0.18509221582366123
0.3194242542742707 14.128085994303442 605085.1640968423 5.020136854323064 0.1879380157647767
0.3337233501651653 13.975905973369832 497659.58947900677 5.300013495202469 0.19080170042322792
0.3484037130435372 13.842004764703926 410992.6791104797 5.592052225703287 0.1936895720546551
0.36346697620085755 13.723966219629634 340631.23327781324 5.896419982549208 0.19659668728315732
0.37892058424851 13.619984132686119 283289.6890513622 6.213981008455803 0.19953073019085887
0.39475145204691525 13.528481951767585 236399.77831107317 6.544992533903046 0.2024878757640607
0.41097893572050387 13.447871929911502 197858.6621841282 6.8901573636220075 0.2054718419687947
0.42758623294446924 13.377058667104613 166073.3296210004 7.250180465835511 0.20848569964812783
0.44458334705279634 13.314903600907474 139793.0197980679 7.625320642291466 0.21152499260496796
0.46196499280719033 13.260553538068406 117975.41154616966 8.016527263659512 0.2145958882449584
0.4797309486356191 13.21312594982955 99801.1824267114 8.42450523413561 0.21770003155724932
0.4978883773191913 13.171963667397657 84637.52678904824 8.849695298475954 0.2208348885065876
0.5164273328910923 13.13638065890757 71936.59145862197 9.292971029353353 0.22400387050792045
0.5353464583863278 13.10583204721307 61273.40794223506 9.75521721342025 0.22720989559300844
0.5546534308998148 13.079812527641456 52302.898360624786 10.23724351574033 0.23045431482149364
0.5743361772399812 13.057829728784041 44726.26899231271 10.739520650628089 0.23373381873767224
0.5943945653065204 13.03950917177924 38322.8565147148 11.26329428692493 0.2370546073071807
0.6148309322171019 13.024508565399872 32899.3738252556 11.809501690509798 0.24041829036062698
0.6356353326997226 13.012433462357276 28289.351137250982 12.37912197081065 0.24382650103534778
0.6568074211622247 13.00300931963482 24368.724134703953 12.972843664375294 0.24727718426174075
0.6783398969268258 12.995972548230327 21025.99626934349 13.59199457801306 0.25077513649533595
0.7002289404805042 12.991052974950135 18171.161834949246 14.237772066444052 0.25432298980342505
0.7224587453634727 12.988032645815197 15727.494541569866 14.91136595346835 0.2579227290665017
0.745051850817146 12.986645041185348 13632.751991942427 15.613804224410679 0.26157423345545106
0.7679726879208658 12.9867556224108 11835.370634694722 16.346356564294258 0.26527943255751596
0.7912189758252723 12.988137520998489 10287.67612784686 17.11063753344254 0.2690430006738888
0.8147938272701674 12.990670341666686 8955.56003087257 17.90810235622816 0.2728673707349398
0.8386773510000396 12.994135400200468 7806.580169326818 18.740111292692074 0.2767535779319418
0.8628577656862162 12.99841454628247 6813.425311127104 19.60801908443381 0.2807021944933329
0.8873393895822763 13.003363247309542 5954.843962617528 20.513906865549707 0.28471953662978844
0.9120962038939324 13.008852471637196 5210.647682871822 21.459568993952747 0.2888086181463328
0.937116592654771 13.0147485265077 4564.71450225576 22.446483028924934 0.2929693071794321
0.9624009060939936 13.020949093314368 4004.1251375761526 23.476687758642292 0.29720550990712497
0.9879222871814253 13.027334182986026 3516.1932042028748 24.55259941481411 0.3015232749886521
1.013663204865866 13.033802586717977 3091.677207555635 25.676152264016604 0.3059241734975274
1.0396294046895256 13.040252773231671 2721.139668167993 26.84932395703958 0.3104095860235127
1.065781740502466 13.046581973078668 2397.9304590481033 28.075203789453013 0.3149881893266138
1.0921133365850506 13.05270661678944 2115.593143601831 29.355836304339466 0.31966035618381644
1.1186069867999011 13.058557879747065 1868.3001409915673 30.69399854762829 0.324430916776173
1.1452441476926045 13.064000190198698 1651.893304028485 32.09306905571871 0.329307783949693
1.1720071146410889 13.069012689625097 1461.88372239611 33.55501069697886 0.3342887961039458
1.198864263936228 13.073464996566184 1295.2646606651692 35.084355931970855 0.3393874521508449
1.225810381522951 13.077334168605931 1148.9235191437454 36.68311537609715 0.3446004355053523
1.2528059976483492 13.080495043248463 1020.0060591549906 38.3563543878048 0.34994226345756174
1.2798511146964326 13.082937605369013 906.6027955645548 40.10632592788123 0.3554095901521376
1.3068941255275033 13.0845222434392 806.6615178699108 41.938477533915176 0.3610168357408639
1.3339281915591403 13.085244636623012 718.4658020734728 43.856315618411486 0.366766056517486
1.3609395577246466 13.085034251007674 640.5425401000241 45.86450915295421 0.3726648967572456
1.387871328115452 13.083770332184576 571.7301559465953 47.968401667140235 0.37872336964303055
1.414728311372758 13.08148116171785 510.7426709749642 50.172761006449775 0.3849471819877018
1.4414522754343937 13.07802586419132 456.82203771633704 52.48278666456434 0.3913431982034942
1.4680466347969665 13.073430029700866 408.9592906417638 54.90490553014373 0.39792316357199564
1.4944562156811112 13.067561318844742 366.47997661489467 57.445307903880135 0.4046961398423207
1.520668481839488 13.060414402109878 328.7914638740187 60.110622234321724 0.41167189891058964
1.5466521137178675 13.051925879318345 295.24722231188247 62.90795456096728 0.41886098129259086
1.5723684997444758 13.042045884384347 265.42699478164803 65.8449317338532 0.42627475937050846
1.5977934132149283 13.030716051543939 238.89095270173053 68.92974879302079 0.4339255059725056
1.6228793511758448 13.01789333372983 215.19873406944689 72.17122093891672 0.4418264689124022
1.6476320778826006 13.00355285774309 194.07191420961178 75.57884057881857 0.44999195219249066
1.6719808671311924 12.987618853183825 175.20026606347068 79.16251863458533 0.458436062686947
1.6959178490501128 12.970066058113275 158.34355667902852 82.93250261038361 0.4671723036579223
1.7193979925634622 12.95085340570501 143.2546009802653 86.90150451085995 0.4762221136374629
1.7423808700527716 12.929914570280493 129.7591001594504 91.08107971884382 0.4855997421701561
1.7648624030049793 12.907262251732062 117.66149035474074 95.48536610269856 0.49532729890502303
1.7867899468155286 12.882826932181361 106.81059171693732 100.12798650260906 0.5054221235721159
1.8081274359458857 12.856564200304433 97.07116915029161 105.02549167682317 0.5159100125958439
1.828837148956009 12.82842790974675 88.31698441680052 110.19442481957557 0.5268135064042124
1.8489174322204598 12.798460523948112 80.45151443090154 115.65245292631916 0.5381561054491959
1.8682927204717414 12.766520078999061 73.37794549475854 121.41972312240632 0.5499669080468444
1.8869714110479443 12.732698031258177 66.99855228865786 127.51767374747405 0.5622757668149198
1.9048949473802408 12.696880547473459 61.25010254453567 133.9687666052622 0.575112049683361
1.9220346393835006 12.659062193929193 56.065010427368996 140.79869928028774 0.5885120962398553
1.9383488094188075 12.619172701000037 51.384312770597354 148.0351448964034 0.602514148175031
1.953845218087082 12.57732672046732 47.1586901402374 155.7065812870787 0.6171538894966614
1.9684605980694405 12.533396815917989 43.33323716501595 163.84668219484763 0.6324790041737495
1.982174724312279 12.487392429135923 39.87371563895348 172.48926163268231 0.6485311799166795
1.9949641119039507 12.439316214478453 36.7398254077248 181.67354775562464 0.665363365249969
2.006799810034025 12.38915388081397 33.897580651019325 191.44158353296984 0.6830301007253186
2.0176458753993467 12.336877868271385 31.3235826020897 201.83940994785638 0.7015906287192837
2.0274817825937395 12.282491014012553 28.988540712625223 212.91694149506415 0.7211074952498819
2.0362902645359435 12.226024315015051 26.865147521101512 224.72975528142243 0.7416513104849441
2.04403568473193 12.167426693802772 24.93910174047232 237.3389392100991 0.7632989401336157
2.0506941804554284 12.106717898119014 23.18531318423143 250.81141192009773 0.7861331296681862
2.0562660169073386 12.043970607356668 21.591009523209895 265.2203557126345 0.8102422820548674
2.060712203815341 11.979118852247954 20.139382348460966 280.6473331624548 0.8357254808463204
2.0640162983908548 11.912222886788454 18.819294611557314 297.1822737330666 0.8626903118583508
2.0661771769613324 11.843318809832237 17.616004850722415 314.9255284767075 0.8912571367841216
2.0671685400566133 11.772425612915074 16.52149005578269 333.98645475893744 0.9215516097802087
