M[M_sun], R[km], Lambda[1], P_c[MeV/fm^3], rho_c[fm^-3]
0.24162668629717493 15.618656898711224 2160425.4255784233 3.5677272577965504 0.1711233750220791
0.25363341095076386 15.277528371385642 1723419.5701200506 3.784627543209276 0.17388577908305533
0.26601801358578503 14.981740555171072 1383583.3620615155 4.0109977460494575 0.1766617821814276
0.2787809215323387 14.724153476379854 1117051.400317114 4.247099928533665 0.17945022704689675
0.29192358636977134 14.499131087540384 906517.0947625249 4.493556393379907 0.1822576274948635
0.30544481814825647 14.302041567732076 739286.4506459422 4.750509151349137 0.18507942360607485
0.3193470401608171 14.128997844965602 605687.1666472714 5.018662542153727 0.18792271920698758
0.33363185334602063 13.976796472914836 498260.0061519925 5.298210332102913 0.19078354556280405
0.3482968432790495 13.842908475827338 411547.8132439492 5.5899157258292975 0.1936689008306434
0.3633445598551371 13.72482778686547 341143.34369532566 5.893902170948924 0.1965730394637817
0.37877963463791675 13.62085868259834 283757.1407131989 6.211051439764291 0.19950401605182264
0.394594992225106 13.529286924732586 236825.34440480164 6.541654265886127 0.20245860366333152
0.4108019759327435 13.448658197033769 198238.21275530153 6.886345983679016 0.20543938265781664
0.42739070271362983 13.377831057971601 166417.75049247907 7.245860237153982 0.2084499595034253
0.4443656738975726 13.315656517792874 140101.7948318081 7.620503520374556 0.21148664521711014
0.4617270724230047 13.26124509459602 118242.33331305227 8.01112926946011 0.21455413039573518
0.4794713575086475 13.213778257112345 100050.86271894546 8.4184843095037 0.21765476262111563
0.49760662875993944 13.172561318917387 84848.64812981756 8.843073655667064 0.22078694498344095
0.5161216916834119 13.136916943919976 72130.10433839023 9.285641566426516 0.22395227063197679
0.5350189049955408 13.10630629873982 61442.23053966266 9.747130276344919 0.2271545281411255
0.5543018919197354 13.080266500922976 52445.95414139321 10.228346435148492 0.2303950637355144
0.5739594461431842 13.05819647303247 44859.44949867279 10.729852090376491 0.23367174358591186
0.5939963242386785 13.039863937151443 38442.02310492025 11.252708927902306 0.23698846979245153
0.6144046105162659 13.024775790376951 33003.84604130487 11.797937053129802 0.2403479580701852
0.6351799471032191 13.012668520551818 28385.889532558384 12.366511679827395 0.2437518345667149
0.6563218062519689 13.003202387896208 24257.49451858685 12.959245624684309 0.2471994634430057
0.6778314416430071 12.996126087690435 21098.006133491563 13.577215811282736 0.25069285228165006
0.6996925079380178 12.991166455812003 18234.805878695573 14.221733400859517 0.25423597925986163
0.7218978818230894 12.98805016946292 15784.782945372803 14.89398313317372 0.25783081954310033
0.7444581976443638 12.986667099665581 13683.5557219928 15.595157089355126 0.2614789216701806
0.7673493969783323 12.9867301892172 11879.759088578674 16.32619275796453 0.26517892104021956
0.7905648023626984 12.988083280565053 10327.88339543466 17.088855948747327 0.2689370842033794
0.8141050440823769 12.990563379157901 8992.15824419643 17.884595186579716 0.2727558308958011
0.8379631113539238 12.994020894857613 7838.934831423167 18.714936654349607 0.27663771651624836
0.8621167463493208 12.998269692661689 6842.069352090727 19.580942698619953 0.28058071982636906
0.8865585272247632 13.003195221424217 5980.240433475999 20.484752422882984 0.28459177734155505
0.9112885798836905 13.008666912130472 5233.2433935779445 21.428197386124225 0.2886742940064205
0.9362812027323132 13.014555240704425 4584.858431553258 22.41302487961531 0.2928303410753813
0.9615269922446631 13.020730971832148 4021.8864003298713 23.440723510424817 0.29705944840909443
0.9870224882712265 13.027116699016405 3532.1488406908366 24.51395994863641 0.30136977873254395
1.012734826934265 13.033567866776876 3105.8553403896453 25.634956607951533 0.3057650851221942
1.038661635677691 13.040010040123931 2734.08592057629 26.805130185083357 0.3102426299110146
1.0647919536065131 13.046347640624017 2409.4618747930867 28.02777477318075 0.3148127287717058
1.091089748861957 13.052481166007938 2114.926835050304 29.305340040196988 0.31947860063776773
1.1175602262283169 13.058322331697466 1877.3883894388407 30.639832673357823 0.3242398431448228
1.144166878172766 13.063792623142469 1660.0158694300583 32.0350971325523 0.3291076479224355
1.1708975297123223 13.068818345839059 1469.2946614910097 33.49318321242812 0.3340804311063294
1.1977249986990846 13.073283316144447 1301.8868245854956 35.018068263492765 0.33916825680181545
1.2246450853991961 13.077186339055329 1154.712974391866 36.61255974869685 0.34437283397313534
1.2516200026409827 13.080391050315752 1025.3564168343144 38.280742001344656 0.3497027999598156
1.2786317714820827 13.082846647165688 911.3993683882582 40.025809350212256 0.3551604987596805
1.3056516283705975 13.084466199014718 810.9516984851284 41.85274647843582 0.36075765777195185
1.3326735071750273 13.085248534943707 722.381472477642 43.76440984315502 0.36649286502325695
1.3596528614979386 13.085068474130418 644.0971181276149 45.7666210722407 0.3723802515156214
1.3865637847729726 13.083855262251637 574.8460981210422 47.86408690160106 0.3784263925255152
1.4133913672622547 13.081599674294255 513.5937586374876 50.06093054997382 0.3846338207246851
1.4401152987826547 13.078247375107155 459.3669425491529 52.36359120633782 0.39101593213388314
1.4666817525203595 13.073684220333593 411.2856666799196 54.777817826388116 0.39758106632971063
1.493081089072135 13.067902763647986 368.5803127099728 57.30975802994325 0.40433821349371335
1.5192814671028354 13.06083340559098 330.6828796806555 59.96599376599207 0.41129706808196165
1.54525421807419 13.0524205918658 296.958918401743 62.75358037502086 0.4184680867160652
1.5709633039242963 13.042626111723255 266.97629571026306 65.68008938545815 0.4258625507858915
1.5963801869971983 13.031388321074424 240.2652466822237 68.753655422472 0.43349263431544915
1.6214756868699352 13.018668434215838 216.47010287336752 71.98302765433611 0.44137147771087704
1.6462068142300885 13.004419368920166 195.21858966595303 75.3776262548438 0.44951326808419517
1.6705712095934022 12.988597353836878 176.24525821764308 78.9476044206061 0.4579333269295564
1.694503215023141 12.971155122365987 159.29155450418088 82.70325717430971 0.46664549831349555
1.717995396634166 12.952066639685054 144.1221334650545 86.65602123492081 0.47566621479753046
1.7409989215154151 12.931263966596587 130.55012678480884 90.81925636839485 0.48501728158911805
1.7634862578915027 12.908731641538859 118.3720679137293 95.2046836206189 0.4947114188659875
1.7854244289986372 12.884418218352234 107.45614559417021 99.82820058823808 0.5047751985747471
1.806772277331707 12.858272320987714 97.65826147522414 104.70470654406122 0.5152282562615884
1.8275228447404588 12.830332111482514 88.85801961759988 109.85041348293849 0.5260922782171291
1.8476074995193033 12.800458726754018 80.94218243420657 115.28406447715024 0.5373951420342937
1.8670334254322012 12.768735289023525 73.8205436723486 121.02506832794161 0.5491635355101618
1.885723221119402 12.735016553637259 67.40542478029306 127.09455868523608 0.5614266080085486
1.9036813382051623 12.699362222813727 61.62781871451167 133.51556916174238 0.5742161827029332
1.9208554160629525 12.661689664645978 56.40853898077344 140.312722050219 0.587565227787881
1.9372362092596866 12.622065423832384 51.70010612309042 147.51276587474234 0.601509326136889
1.9527825217335921 12.580405907525119 47.44422701633303 155.1463261950895 0.6160921500150166
1.96743906742221 12.53663904073609 43.59470014187715 163.2436034626756 0.6313500829705716
1.9812200766083172 12.490863992050121 40.11230798651997 171.84094286274507 0.6473341301936982
1.99406572553533 12.442973845713759 36.961553003354716 180.97608454255194 0.6640929263364821
2.0059436436979445 12.392959765704827 34.102281941128716 190.6904530298887 0.681679784411474
2.0168545717890907 12.340889155399896 31.51087412128197 201.0296233333308 0.7001533373573635
2.026756461259466 12.286721297291095 29.156578026917522 212.0437811104672 0.7195780462899374
2.0356394926186563 12.230452342417909 27.022045651309828 223.7876574536442 0.740022871961461
2.043468353338681 12.172095414206801 25.08238100781908 236.32098369497118 0.761561537407922
2.050212493388916 12.111624958046892 23.31816159262258 249.7103737323314 0.7842772397071884
2.0558507425548025 12.049043719902654 21.713623582483475 264.02888742350495 0.8082596095989073
2.0603870190621754 11.984435324409631 20.252408046863668 279.3568967426035 0.833605697975658
2.0637941027689357 11.917789475000347 18.922716835413762 295.78360985770024 0.8604228415403093
2.0660414914922645 11.84910137704883 17.711547810546794 313.4071559273329 0.8888265209734686
2.067131067585405 11.778436983346433 16.609344639410754 332.33720218225125 0.9189461620247037
