M[M_sun], R[km], Lambda[1], P_c[MeV/fm^3], rho_c[fm^-3]
0.24162668629717493 15.618656898711224 2160425.4255784233 3.5677272577965504 0.1711233750220791
0.25364398997488696 15.277272412747994 1723159.2705659438 3.784820094607665 0.17388817914334637
0.26603993409875587 14.98126513204812 1383061.1869869416 4.011402513431675 0.17666667355636434
0.27881500316229174 14.723523300930074 1116355.0829427275 4.247730591311457 0.1794575417847306
0.2919694709920477 14.49843934534067 905908.1206232088 4.494429485626831 0.18226734957966712
0.30550454477436545 14.301251200690107 738692.2538093571 4.751654301193401 0.18509179340994422
0.31942098390847534 14.128148446164952 605101.411242179 5.020088169256179 0.18793751063841704
0.33371945150198695 13.975935389445283 497681.53181298025 5.299953948746797 0.19080110088922475
0.3484001746335384 13.84203357722818 411009.67290907126 5.591981669147087 0.19368888940056442
0.36346322305227097 13.72398166237201 340663.6251216945 5.896336830686098 0.19659590630326218
0.3789159399231709 13.620006193276211 283308.87920702994 6.213884254977923 0.1995298479156394
0.3947475649333776 13.528479980704608 236412.5003058076 6.5448822792265196 0.20248690897949434
0.41097299250425134 13.447901906718597 197874.96977611972 6.890031479217801 0.20547076988438312
0.4275809756261762 13.37706133360853 166088.63212880897 7.250037770359748 0.20848451916502658
0.4445759646417086 13.314934559471165 139809.67372740625 7.625161530103815 0.21152372596964544
0.46195715219341393 13.260574328984006 117978.78559922085 8.016348959375254 0.21459450891716686
0.4797227935552192 13.213145362223923 99810.37333224031 8.424306347294694 0.21769853620624435
0.49787929667349134 13.17198387116327 83767.96014479712 8.849476562375386 0.22083330476376076
0.5164172265177884 13.136401338863315 71940.40500585809 9.292728904047474 0.22400216593067232
0.5353351870555342 13.105846194387624 61276.89227469729 9.754950057153508 0.22720806649979225
0.5546412342763247 13.079829382786198 52301.39622215687 10.236949586993509 0.2304523573707018
0.5743242436552181 13.057846424871858 44732.35410562998 10.739201226505994 0.23373176793586317
0.594381750103628 13.039515106686485 38329.53047795477 11.262944563590047 0.23705242222945566
0.6148174900188718 13.02451715791807 32902.61861305435 11.809119601858168 0.24041596662412423
0.6356215563744103 13.012456409068696 28060.66678039926 12.378705321834786 0.2438240340258451
0.6567914590279896 13.003027710432173 24371.74041550758 12.972394368400165 0.24727461627018943
0.6783237168911258 12.995971932821698 21028.740897405954 13.59150625471041 0.25077241764201647
0.7002104779117837 12.991065092750215 18172.9719911737 14.237242097367414 0.2543201146953191
0.7224451294365215 12.988001539067438 15730.234899624418 14.910791551925374 0.2579196919890217
0.7450327478495553 12.986647506696256 13634.336937882916 15.613188029255275 0.261571083874555
0.7679517224284439 12.986751851021046 11836.488119841219 16.34569023064914 0.2652761110514173
0.7911964821347881 12.988134452933544 10289.264391813926 17.10991771693879 0.26903950044998143
0.8147694417544752 12.990674230628764 8956.296420116872 17.907325490761828 0.2728636845638506
0.8386521387614355 12.994140306946786 7807.835015043759 18.739280824034203 0.27674976235815485
0.8628359105476842 12.998396272794123 6815.109466140513 19.60712421406191 0.2806981797743394
0.8873131621262486 13.003367682373643 5955.667290160026 20.512943286243292 0.28471531407586237
0.9120688876535304 13.008842190796104 5211.401700823493 21.458532103533337 0.2888041784818268
0.937088787379242 13.014731064108728 4565.499280980588 22.44537714680054 0.29296471397468116
0.9623669315225163 13.020938273246783 4004.567589679866 23.475499006233644 0.2972006820303807
0.9878907342013911 13.02733831364516 3516.7207735735456 24.5513221964776 0.30151820120652517
1.0136337097197332 13.033789496210023 3091.876140422546 25.674791523823373 0.30591892213905797
1.03959818723408 13.040243169637796 2721.5389563155813 26.847863058998765 0.31040406701377776
1.065748504973033 13.046573140386219 2398.442011353783 28.07363589479499 0.3149823890025009
1.0920796484585997 13.052706554732884 2115.8047442844113 29.354166970122773 0.3196543476056128
1.118577596002188 13.0585372747399 1868.6955573569085 30.692207842888557 0.3244245999491688
1.1452085233099523 13.063993020664215 1652.1849561235188 32.09116282512321 0.32930123432912306
1.1719710836019346 13.069004315913986 1462.0815618385266 33.552966579764075 0.33428190721817463
1.1988261389795813 13.073458651383671 1295.5306579522878 35.082164279875926 0.3393802049515252
1.2257720226626527 13.07732910542817 1149.1239376211904 36.68078254933502 0.3445929101673315
1.2527672526142692 13.080497379395593 1020.2213955544441 38.35387091878977 0.349934443251715
1.2798092463260713 13.082938468625072 906.7312824268296 40.10366358820911 0.3554013537626223
1.3068532514058284 13.08452332585338 806.7667697739723 41.93564269203005 0.3610082655843685
1.3338905296454293 13.085231653577058 718.625654510328 43.85327648970011 0.3667570226552342
1.3608976923052027 13.08503639772533 640.6475031455899 45.86127210563196 0.3726554838633521
1.3878281223768403 13.083774045667257 571.8352315850227 47.9649528742599 0.3787135532651985
1.4146848417720168 13.081483851758115 510.86089270818064 50.169062649254506 0.3849368187832733
1.4414079034296607 13.078034132932345 456.9007309702272 52.478844614317076 0.39133237481047384
1.4680025464409927 13.073438072925933 409.03964901915265 54.90070233114234 0.39791184931621276
1.4944107299949867 13.067572707931184 366.54469254920974 57.44082468645136 0.40468430167827313
1.5206203792337283 13.060433005210076 328.8437777741531 60.105838588220344 0.41165950122669825
1.5466060763640603 13.051943166082852 295.306646523716 62.90284839614325 0.4188479856971556
1.5723217621477645 13.042066653426152 265.47459956942185 65.83947912717888 0.42626112445629144
1.5977459695830092 13.030737174889666 238.9318017992235 68.92392381940047 0.4339111870576283
1.6228329685420415 13.017919176522588 215.24560187490252 72.16499548500649 0.44181141775496596
1.647585358925298 13.003581275989207 194.10618299677287 75.57218413736548 0.44997611667602017
1.671934010142817 12.987648301299409 175.24413303979435 79.15543283644656 0.458419531600956
1.695872219974488 12.97010305355627 158.37180385146812 82.92491831936509 0.4671548749792508
1.7193515636286154 12.950892278972619 143.28493025746377 86.8933826833033 0.4762037216940623
1.742337225302528 12.929952502533009 129.7823120350796 91.07241697416477 0.4855804707518869
1.7648176545360486 12.907308242877704 117.68500131268401 95.47607898566064 0.49530692089652933
1.7867444680797129 12.88287354642035 106.82653343092339 100.11806692653438 0.5054007175572954
1.8080829576197226 12.856622235493361 97.0887975240765 105.01488820147655 0.5158874960937196
1.8287936287568352 12.828491243172852 88.33715995298245 110.18308133597952 0.5267897901974677
1.8488738935993956 12.798527774644214 80.4700177437284 115.64026183498007 0.5381309228613115
1.868260701557025 12.766622301616126 73.38642127455066 121.4066622416891 0.549940320879983
1.8869301271404715 12.732776448015223 67.01214146053172 127.5036887469478 0.5622477287778981
1.904853639589106 12.696964674681137 61.25903617441456 133.95379071826747 0.5750824826324618
1.9219970962052555 12.659150068184106 56.078035139084434 140.78261403090022 0.5884807560571372
1.9383121447410816 12.619279187500073 51.39530858087409 148.0178539539696 0.6024808881869815
1.9538098618025712 12.57742638262768 47.16566607325963 155.6880358030651 0.6171187439480266
1.968427077648379 12.533503373758887 43.34115016018362 163.82676977928023 0.6324418076159859
1.9821432361659603 12.487506278472095 39.88232268298703 172.4677989321363 0.6484915513868044
1.9949346637842922 12.4394352613571 36.74757642142611 181.65045696300464 0.6653213050510397
2.00677134462991 12.38928017383006 33.90542278504365 191.4167146928364 0.6829853937131538
2.01762028860111 12.33701109508519 31.32985256515555 201.81259764142823 0.7015430395201897
2.0274596768829465 12.282629147673546 28.99330742202432 212.8880706656249 0.7210569874610648
2.0362706202940637 12.226169935688235 26.87202845785338 224.6985586900556 0.741597386434081
2.0440164694961815 12.167580757820913 24.943682453980063 237.30526486825556 0.7632415222873946
2.050677997125093 12.106880377536484 23.18862344482094 250.77501652743786 0.7860718900849984
2.056253976279326 12.04413862099721 21.595449388981326 265.180894418646 0.8101766161690177
2.0607020017672837 11.979295240851881 20.143496054642533 280.6046559690286 0.8356554803160716
2.0640096108130157 11.912403537098541 18.822643824715296 297.1359720346279 0.8626152948104902
2.0661731058070667 11.84350984803969 17.619460110448134 314.8752304497559 0.8911766195358326
2.0671670926873067 11.772626041911355 16.524254340506634 333.93182864614784 0.9214653321985606
