M[M_sun], R[km], Lambda[1], P_c[MeV/fm^3], rho_c[fm^-3]
0.24162668629717493 15.618656898711224 2160425.4255784233 3.5677272577965504 0.1711233750220791
0.25364037629903835 15.277371288711096 1723169.5111988354 3.7847707808775186 0.17388756447148984
0.26603410473005973 14.981398381388189 1383131.838674289 4.011298846953302 0.17666542080815298
0.27880568337866257 14.723698227951255 1116554.7991444075 4.247569065735139 0.17945566833145915
0.29195749157992995 14.498624086747919 906090.47410942 4.4942058632766475 0.18226485949289778
0.30548913543434913 14.301447297458717 738816.6135404857 4.7513609900766784 0.18508862509009094
0.3194004607786234 14.128401918032887 605205.2527719038 5.019723009699666 0.18793372196707958
0.3336969272642311 13.976195603720296 497837.8388959846 5.299507328319262 0.19079660416259678
0.34837263168782573 13.842221198898796 411161.90390297846 5.591452473705968 0.19368376928909495
0.36343163226880487 13.72423202186705 340780.20738228975 5.895713172586733 0.1965900487744128
0.3788800435540883 13.620251927142043 283418.2270197487 6.213158588500321 0.199523230711123
0.3947089254205849 13.528696136124633 236509.94815137458 6.544055358751458 0.20247965800404288
0.4109292089379962 13.448099496726064 197963.89706611974 6.889087343062054 0.20546272922468942
0.42753248980678266 13.377249936325558 166172.31005678506 7.248967560610542 0.20847566559404265
0.444523112795217 13.315110201102367 139873.83647650588 7.623968205586719 0.2115142263391842
0.46189864752541254 13.26074144669733 118052.106045574 8.015011708288792 0.214584164198892
0.4796556904246611 13.213340071236155 99868.34968758927 8.422814744071744 0.2176873214352308
0.497808665514609 13.172141219232465 84696.83777690178 8.84783610750674 0.22082142716959935
0.5163419943324928 13.136538641756173 71986.96814511553 9.290913053346141 0.22398938222852985
0.5352532405348731 13.10597924903982 61318.12579812356 9.75294650123295 0.22719434909541616
0.5545544157863308 13.07994977839104 51853.295977840055 10.23474526861079 0.2304376774701803
0.5742306430625987 13.057942189364201 44763.691123801174 10.736805723776769 0.23371638806630768
0.5942807514704999 13.039606900843367 38356.30080669942 11.260321856665707 0.23703603550913108
0.6147115970332722 13.024573076177175 32928.7992958039 11.806254200338 0.24039854020206475
0.6355063767883038 13.012502779516199 28317.570284169382 12.375580769051798 0.24380553331696592
0.656671991755209 13.003073425101515 24391.618857036723 12.969025012577474 0.24725535841397628
0.6781967052961659 12.996020461787214 21046.02819934567 13.58784425745399 0.2507520286224005
0.700077613183576 12.991088784911552 18188.601317416502 14.233267827921553 0.25429855408961105
0.7223046356670306 12.988013174658288 15744.150241640873 14.90648411839969 0.2578969169642721
0.7448851292544972 12.986646185853415 13647.381169657094 15.608567219080463 0.2615474653580459
0.7677975320940095 12.986745895728083 11846.947325508278 16.340693478613677 0.2652512034957492
0.7910353026292166 12.988129019026697 10300.091751119633 17.10451995097091 0.2690132529419165
0.8146020948652268 12.99064710785858 8966.139761706583 17.90149997677507 0.27283604291652763
0.8384773740834713 12.994098166246772 7815.2330658865185 18.733053398268865 0.27672115055891977
0.862649690812127 12.998360377274965 6821.759115407371 19.60041391920032 0.28066807491325696
0.8871156034843226 13.003308854116852 5961.899469045836 20.50571783322624 0.2846836510204175
0.9118689369964063 13.008797071079815 5216.81387249878 21.45075699253633 0.28877088770810866
0.9368814352465599 13.014689334340668 4570.365614800826 22.437084762392153 0.2929302721308164
0.9621512510973935 13.020880522836359 4009.1800454683485 23.466585304916748 0.29716448084081404
0.9876690254515909 13.02727462590644 3520.5952533069526 24.54174523232556 0.3014801564743475
1.0134084874569544 13.033737110764973 3095.761318061023 25.664588363010093 0.3058795461764617
1.0393596495649877 13.040181170756282 2724.7674403212777 26.836908991358136 0.31036268451872545
1.0655063620223195 13.046522312376565 2401.306724114561 28.061879657399388 0.3149388975683708
1.091826537996078 13.052639474814182 2118.4349316847474 29.34165022280022 0.3196092950005736
1.1183169250085723 13.05848315920696 1870.9747427971197 30.678781180935037 0.3243772365291018
1.1449416355872863 13.063942867714797 1654.0593292405867 32.07686646205796 0.3292521025125352
1.1716961758992328 13.068956687155797 1464.019906165355 33.53764010346623 0.3342302554128251
1.19854478692359 13.073422843214791 1297.1196635082306 35.0657317707857 0.3393258670988271
1.225483804479112 13.07728924872106 1150.5307684985078 36.66329168459519 0.3445364873452085
1.252471865644324 13.080461850307437 1021.5142351678891 38.335125355328636 0.3498750745032203
1.2795078934880086 13.082911210049538 907.9551946789634 40.08370249516623 0.3553396008093179
1.3065450645091985 13.084507744922071 807.9235141330784 41.91438842848904 0.3609440107256772
1.3335763003583474 13.085234939918902 719.5593315231894 43.83049082110233 0.3666892918642815
1.3605782645706834 13.085040965811348 641.5154650809819 45.83700276532607 0.3725849119184833
1.3875046720835478 13.083799381137242 572.5995127703005 47.93909622723693 0.3786399569010639
1.4143553654711452 13.081520264276579 511.55200323105964 50.14133524582124 0.38485912354323026
1.4410814990430532 13.078102871007637 457.52909036488063 52.44929046073912 0.3912512301777332
1.467663589560922 13.073507264163064 409.5935597106685 54.869190599905416 0.3978270254029842
1.4940707701846663 13.067654251424091 367.08681773071874 57.40721395456208 0.4045955508282004
1.5202807272046426 13.060529721093552 329.32544912747824 60.069975888735065 0.41156655655598334
1.5462600379547484 13.05206622968161 295.73550881279533 62.8645681750751 0.4187505594911246
1.571973579094124 13.04220834750271 265.8601659645507 65.79860209524571 0.42615890640589016
1.5973959386976808 13.030906993929289 239.2775074578963 68.88025568679869 0.43380384231852215
1.6224831195131355 13.018107428793199 215.56841047958542 72.11832556594034 0.44169858480984625
1.6472346037314243 13.003797078829683 194.39728896175646 75.5222838094162 0.44985740497838256
1.6715843609342484 12.987892885374139 175.50000225448062 79.1023143108137 0.45829560668836994
1.6955236761785146 12.970374718869166 158.61661464123034 82.86806350499738 0.46702422278142186
1.718995718891279 12.951186556193303 143.50646742707377 86.83249900000551 0.4760658501067349
1.7420014907036763 12.930307970760374 129.98215024080275 91.0074790760501 0.4854360078313628
1.7644799264337734 12.907680100909928 117.86342063498084 95.40646151113539 0.49515416461259426
1.786406310898306 12.883275284332393 106.98323908653339 100.04370926411886 0.5052402569477186
1.8077493891342236 12.85704815652103 97.232011038717 104.93540488872006 0.5157187131124777
1.8284757407878158 12.828982262124898 88.47026517963035 110.0978051435767 0.5266110977241321
1.8485527003762927 12.799029554617974 80.5910883885859 115.54888011894974 0.5379421597693987
1.8679464302736537 12.76716656742879 73.49695691510168 121.30876198922859 0.5497410318424134
1.8866248457990102 12.733362504933426 67.1115807043357 127.39872049349712 0.5620370583307789
1.9045569949212182 12.697586043939177 61.35253397382123 133.84153891488543 0.5748608627187101
1.9217099752484421 12.659819668546769 56.16183499364354 140.66204864450827 0.5882458488357465
1.9380416320329952 12.620003980173701 51.472433979313834 147.8882532416508 0.6022315947687988
1.9535371302336124 12.578158656865819 47.23872136074443 155.5490337382637 0.616855321120925
1.9681732762891622 12.53430341004928 43.404999885340864 163.67723032210753 0.6321620206583868
1.9819056083475264 12.488359859694906 39.94123096093574 172.3069364263818 0.6481945363582713
1.9947068268714419 12.440332555519285 36.80045354520113 181.47739446068286 0.6650060693034131
2.006557180803787 12.390212697774755 33.95758388000286 191.23032877306886 0.6826503255098247
2.0174262140529846 12.338009389185746 31.37591426589794 201.61164906694356 0.7011863756224218
2.0272804244656575 12.28368130911803 29.03623057269601 212.6716974329886 0.7206784554357669
2.0361108955211558 12.227272577348876 26.910008434511386 224.4647589219027 0.7411932579688457
2.043876644509445 12.168739745357724 24.979077701594495 237.05289994156448 0.7628112169047493
2.0505577423303456 12.108097331022435 23.22196063772992 250.50177785226157 0.7856113681652728
2.056147167728869 12.045381297568072 21.624916365673133 264.88517103157386 0.809684515271763
2.06062292557162 11.980618888373076 20.17046069568958 280.28455826014994 0.835129990825753
2.063960174261457 11.913795370509881 18.848086132050604 296.7889991518346 0.862053136569377
2.0661403744201357 11.844942899290189 17.643574614600848 314.4983175966114 0.8905732561910008
2.0671587130375135 11.774116960713215 16.54668274863284 333.522490887937 0.920818815907136
