M[M_sun], R[km], Lambda[1], P_c[MeV/fm^3], rho_c[fm^-3]
0.24162668629717493 15.618656898711224 2160425.4255784233 3.5677272577965504 0.1711233750220791
0.2536449521205005 15.277271333090189 1723284.6099558987 3.7848380037354894 0.17388840237198505
0.26604145211999825 14.981252126510114 1382948.8695854356 4.011440162167674 0.17666712851912014
0.2788171908070552 14.723477788859281 1116312.317579411 4.247789253551048 0.17945822217830773
0.2919735486737494 14.498351124202385 905840.1672716049 4.4945107008979965 0.18226825393056062
0.305510264175081 14.301148214577244 738586.4866559701 4.751760827345081 0.1850929440956906
0.3194284320230526 14.128042922265328 605034.8072341265 5.020220791180353 0.18793888664206773
0.33372556080524585 13.975942348115696 497644.8215627988 5.300116158262949 0.19080273406989812
0.3484097808271229 13.841950506126528 410944.2589644365 5.592173871450477 0.19369074901072275
0.3634740720367186 13.723908145265401 340624.2166411286 5.896563344157822 0.19659803376572396
0.3789276679525301 13.619958979300879 283256.0376597004 6.214147821029024 0.19953225132067126
0.3947627376001721 13.528382986380871 236380.8789694034 6.5451826244052445 0.2024895426009653
0.4109891096497596 13.447801968976584 197836.44358266005 6.890374402041094 0.20547369035904828
0.42759840350099804 13.377016409332821 166054.52484344694 7.250426489098741 0.20848773493553419
0.44459547138535255 13.314862416615737 139780.6602984391 7.625594970562254 0.21152717643439592
0.4619786306171611 13.260514178763957 117956.2912184291 8.016834682272414 0.21459826637646648
0.4797448492099639 13.213105505943716 99787.19125218928 8.424848140610134 0.2177026097345633
0.4979041889394938 13.171930877314873 84627.43056911687 8.850072428583134 0.2208376190896989
0.5164446094621066 13.136350775117847 71924.4801988987 9.293388486749672 0.22400680943401596
0.5353648066519362 13.105801610758734 61261.33451648365 9.75567782895254 0.2272130492107605
0.5546726850700284 13.079793587309489 52292.63711421742 10.237749782257795 0.23045768319759558
0.574357827975512 13.057811444504136 44718.59001557148 10.740071386305292 0.23373735463131645
0.5944169405842913 13.039514679125208 38320.3446888629 11.26389726473911 0.23705837472347538
0.6148558877356793 13.024478244439337 32893.48400413718 11.810160473049363 0.24042229685762193
0.6356622839820244 13.012413269606371 28284.390942964896 12.379840342945451 0.24383075457006329
0.6568346362492513 13.003004783840511 24364.151690432005 12.97361832719493 0.24728161191675238
0.6783683665905891 12.995966439704691 21021.92997676409 13.592836532946459 0.2507798242748319
0.7002586849141378 12.991057085993196 18166.925920664515 14.238685828542323 0.2543279470074043
0.7224953421108725 12.98799204410606 15724.668865952712 14.912356327909318 0.2579279655494956
0.7450851437460876 12.986649914802696 13629.728906321545 15.614866661225328 0.2615796639277054
0.7680083938168367 12.98675622781043 11832.881280072517 16.34750545254955 0.2652851594773175
0.7912548766939261 12.988145836585351 10286.840674106115 17.11187863998889 0.2690490357547498
0.8148330959443135 12.990672988103986 8953.548841791979 17.90944183028509 0.2728737264435629
0.8387173731829958 12.99414188969747 7805.310194292339 18.74154319285007 0.2767601567722827
0.8629013281753772 12.99841235701522 6812.0265234094895 19.60956203087005 0.2807091167209069
0.8873828978731076 13.003366005149536 5953.291181743459 20.515568285501413 0.28472681722962406
0.9121419402055565 13.008861391384443 5209.326770934857 21.461356823301852 0.28881627311387353
0.9371641504755839 13.014752434121558 4563.636174333107 22.448389819724255 0.2929772269028504
0.9624492909780954 13.02096757069138 4003.0789471685116 23.478737442477488 0.2972138342822001
0.98797311130698 13.027354298258635 3515.191147088353 24.554801640771586 0.3015320233869354
1.013717674846682 13.033812474166668 3090.6932947026703 25.67849850691223 0.3059332281007225
1.0396842779961843 13.040267730821926 2720.4112856544707 26.851842903567974 0.3104191021499114
1.0658376727992738 13.046593813250327 2397.279369785824 28.077907232462074 0.31499819053785144
1.0921719435668527 13.052725420750164 2114.8190712527403 29.358714661510806 0.319670716502313
1.1186724032538506 13.058555376992736 1867.7151846148283 30.69708618786443 0.3244418086271801
1.1453057902891033 13.064019203190655 1651.3983565445394 32.09635590066218 0.32931907722517756
1.1720707191700057 13.069017375877209 1461.4324161025013 33.558535305802096 0.33430067439908245
1.1989286655104678 13.073477356892456 1294.8794722470766 35.08813494254791 0.3393999483143312
1.2258769185112215 13.07734739766246 1148.5860984068665 36.68713782091493 0.3446134112896734
1.252874779538348 13.080502830590675 1019.725067517032 38.36063659307395 0.34995574771143406
1.2799190175834585 13.082942689262548 906.3221180699037 40.110916571869765 0.35542379207100305
1.3069653182400074 13.084526558413849 806.4304384359967 41.94336563474899 0.3610316132102286
1.3340043226583638 13.085242177251029 718.2821379185419 43.86155598734145 0.36678163360406507
1.3610130410324055 13.085033012511209 640.3439768987694 45.87009080838926 0.37268112745304016
1.3879461736036511 13.083768838785126 571.5519664417944 47.97434845321326 0.3787402961158587
1.4147969113268752 13.081455829044458 510.60348368226454 50.17913814096186 0.38496505142137943
1.441529435963762 13.07801724770157 456.68189017564396 52.489584022729744 0.39136186120226646
1.4681245757305428 13.07341625558205 408.8243986310354 54.91215321417805 0.3979426730339485
1.494534412074082 13.067542130742893 366.36660088022006 57.453038454528134 0.40471655275519036
1.5207471937837311 13.060391811474037 328.6965079310609 60.118870849206395 0.4116932766876481
1.5467334844200056 13.051896061860818 295.15613029023694 62.91675933472864 0.4188833901418241
1.5724481437240547 13.04201212483944 265.33792491429466 65.85433392250305 0.42629827070065746
1.597862039633396 13.030671883988013 238.80075789543534 68.93979310523504 0.433950196839962
1.622959967874663 13.017849882459423 215.1355218140557 72.18195585732316 0.4418524225134295
1.6477118229340528 13.003502067966458 194.0032116321086 75.59031871471448 0.45001925840577456
1.6720606311177415 12.987562306939218 175.14583875330985 79.17473717470165 0.45846456840124916
1.6959976917985988 12.970001648048811 158.29018657187945 82.94558078490215 0.4672023572648761
1.7194779633016435 12.950783043025256 143.21123946645852 86.91550965359725 0.47625382839510155
1.742457879108989 12.929828416741387 129.71875791930282 91.096017658929 0.48563297358838753
1.7649413983562947 12.907176429731118 117.61853724239509 95.50138076694408 0.4953624386542785
1.7868672785868038 12.8827378194591 106.76856706206269 100.14509183619022 0.5054590361398902
1.8082037304690994 12.856465801433414 97.0388837074784 105.04377639341594 0.515948840229855
1.8289177443886688 12.828332408077305 88.28723555507037 110.2139856851377 0.5268544029707608
1.8489902246238232 12.798343036305987 80.42163762524507 115.67347551122842 0.538199530855282
1.8683636306440836 12.766395989705584 73.34793980259884 121.4422456805385 0.5500127557216048
1.8870395613822448 12.73256654166132 66.97200304335216 127.54173710601071 0.5623239277218445
1.9049620202603117 12.696738302490793 61.22707367866219 133.99459165687747 0.5751630363538569
1.9221004076418067 12.658909923080786 56.04578982683267 140.82643748463337 0.5885661408102266
1.9384122583797472 12.61900851679811 51.366742843407735 148.06496239253224 0.6025715036123478
1.9539057870548746 12.577152560294195 47.14100777185184 155.73856232015382 0.6172144967556853
1.96851887386625 12.533212981258442 43.320958733650514 163.88102060200907 0.6325431486036991
1.9822295405958004 12.487200124481708 39.86039792941927 172.52627364746854 0.6485995185551723
1.9950139328643726 12.439106102349252 36.72691971240959 181.7133675698435 0.6654358975937017
2.006847300050157 12.388935115631783 33.886078834937685 191.48446977820282 0.683107197842717
2.017690152489572 12.336648182182438 31.31321378298126 201.88564792789916 0.701672696572859
2.0275225254013205 12.282253227425324 28.977279599654622 212.96672964842185 0.7211945966454506
2.0363279372536502 12.225769511972869 26.856866171210793 224.78355453562799 0.741744303776617
2.044066791169218 12.16716337854356 24.93047499138296 237.39701170545328 0.7633979590728248
2.0507216749777553 12.106440171107492 23.176484887037063 250.87417729654086 0.7862387398900053
2.0562898189171452 12.04367793739041 21.58463213951364 265.2883763361155 0.8103554206097152
2.060730088574855 11.978814626126029 20.132706878184432 280.7209326161189 0.8358462010804523
2.0640297190679595 11.911905256011554 18.8129766994109 297.26212435790404 0.8628196841783113
2.0661846978988154 11.842989382437294 17.610745447730945 315.01227161047274 0.8913959954802183
2.0671717411730683 11.772084289094646 16.51672557371286 334.080662627344 0.9217004035830855
