M[M_sun], R[km], Lambda[1], P_c[MeV/fm^3], rho_c[fm^-3]
0.24162668629717493 15.618656898711224 2160425.4255784233 3.5677272577965504 0.1711233750220791
0.25364391328384384 15.277300620798869 1723248.871643355 3.784818365889695 0.17388815759571083
0.266039772729438 14.981263747413486 1382984.2345376413 4.011398879317995 0.17666662964024524
0.27881447442526647 14.723520719326586 1116360.2006830554 4.247724928850708 0.17945747610871907
0.29196923606861597 14.498420107271185 905880.5594050247 4.49442164622801 0.18226726228614182
0.3055039087228014 14.301255456404665 738705.2309424249 4.7516440186684274 0.18509168233905002
0.3194214426779423 14.12813078319836 605098.0387662287 5.020075367857703 0.18793737781896697
0.33371840376829043 13.975956572648665 497679.0778571582 5.299938291444632 0.1908009432461721
0.34839924473570494 13.842041457211135 411014.41393374436 5.591963116845103 0.19368870990193918
0.3634612692579163 13.72400973859729 340656.3915460454 5.8963149665762815 0.19659570095091583
0.3789149869666088 13.620009217030177 283308.5295478275 6.213858814469278 0.19952961592883292
0.3947472110907187 13.528463911008322 236411.31719981783 6.544853288729063 0.20248665477199587
0.41097117353301293 13.447884578118112 197865.73783669763 6.889998379066509 0.2054704879896048
0.4275796085295025 13.377058931338924 166085.313766031 7.250000249942509 0.2084842087682304
0.4445738804563922 13.31493694530889 139804.01221296762 7.625119693119713 0.2115233929203509
0.4619554069583539 13.260575195094821 117986.63145852719 8.0163020760813 0.2145941462369846
0.47971931162467785 13.213179336969015 99815.44235776112 8.424254052097366 0.21769814301946777
0.49787614480582165 13.171995405966058 84648.2708614679 8.84941904809227 0.22083288833577705
0.5164140871326862 13.136408261733775 71942.60711445574 9.292665239910948 0.22400171773118216
0.5353324707939034 13.105849186629378 61278.15111238079 9.754879811498853 0.2272075855608573
0.5546378415380663 13.079833764484675 51816.67501746375 10.236872301926052 0.23045184268230154
0.5743209446450411 13.05784407306594 44731.56193534114 10.739117237827715 0.23373122870253218
0.5943772512913016 13.039524548581385 38330.97805580644 11.262852608223032 0.23705184769065848
0.614812374539877 13.024513960843446 32903.13673705503 11.80901913656754 0.24041535562753458
0.6356175325847697 13.012448451152771 28293.41017019564 12.3785957694944 0.24382338535830855
0.6567865149041725 13.003043635888165 24177.934627994277 12.972276232092156 0.24727394105149691
0.6783182644392093 12.995978514650561 21029.114524071996 13.591377856859971 0.250771702757185
0.7002060420105493 12.991055812695963 18173.55293582556 14.23710274951795 0.2543193587264349
0.7224403236734461 12.987989395893615 15616.515162117641 14.910640521385254 0.2579188934336247
0.7450272013783035 12.986640418623505 13634.99149924014 15.613026009865932 0.2615702557389084
0.7679473938583293 12.986754463154599 11837.01861285749 16.34551502831391 0.26527523771171846
0.791190948016048 12.988144302383589 10289.660850003795 17.109728452342623 0.26903858012034065
0.8147637027227905 12.990674936762892 8956.893720210142 17.907121226291768 0.2728627153435457
0.8386453379721763 12.994133068530171 7807.959504352625 18.739062465687063 0.2767487591145314
0.8628272675379903 12.99840251954338 6815.154313505692 19.606888922631065 0.28069712417007975
0.8873025070964731 13.003359287086942 5955.787947397181 20.512689929263804 0.28471420382629464
0.9120627484811524 13.008850494229677 5211.617420301954 21.45825947099121 0.28880301114823226
0.937081474719139 13.014735891808568 4565.602536089927 22.44508637438667 0.2929635062716146
0.9623593943100819 13.02092820464279 4004.656930323655 23.47518644494337 0.2971994126261098
0.9878846007828684 13.027325214659962 3516.9377669209643 24.550986375099946 0.30151686714761367
1.0136254564339962 13.033791642964324 3092.108395597043 25.674433742281042 0.30591754139118127
1.0395893519962616 13.040238283284744 2721.64451091855 26.8474789433239 0.31040261589392565
1.0657398391975657 13.046564186971437 2398.530765880757 28.07322364694171 0.31498086391843255
1.0920708946771511 13.052693633314728 2105.3653915699865 29.353728051173697 0.3196527677668937
1.1185683454919295 13.058534542309111 1868.7114990976847 30.69173701258563 0.32442293906476616
1.1451998094645532 13.06398559776594 1652.2876482366019 32.09066162016097 0.3292995122382395
1.1719612123722374 13.069002726854613 1462.1958589859191 33.55242912106408 0.33428009592694136
1.1988170328629846 13.073463726056197 1295.5565235589609 35.08158803074411 0.3393782994518678
1.225762718744858 13.077330262221052 1149.1796677263305 36.680169182002714 0.34459093153926473
1.252757338151921 13.080491302670994 1020.2573178170212 38.353217944058734 0.34993238709688546
1.2797986338406757 13.082937691355944 906.7775147408568 40.102963584345176 0.35539918818452343
1.306840760547847 13.084525304796534 806.8082893343146 41.93489733341716 0.3610060122523604
1.3338788682019942 13.085238197776853 718.6590179319097 43.852477419651215 0.36675464740580027
1.3608864656924735 13.085036650793084 640.6830176616278 45.86042099846272 0.3726530089593182
1.3878169291249982 13.083779886525779 571.8542326336602 47.964046094652886 0.37871097227772216
1.4146734550176896 13.081486496408054 510.8660974908044 50.168090254113736 0.3849340940249287
1.4413963823411042 13.078034264992093 456.92228423535107 52.47780814728978 0.3913295290603475
1.4679906412630936 13.073440614978617 409.05513737979544 54.89959720288402 0.3979088745096943
1.4943996724515998 13.067577656697273 366.5764511381354 57.43964593587546 0.4046811891273183
1.520611513264283 13.060432486938987 328.8723346586187 60.104580849215154 0.41165624156863123
1.5465940045951698 13.051948444900967 295.3212344166363 62.90150586096784 0.4188445688383979
1.5723094618370803 13.04206990420716 265.4870233380404 65.83804550616819 0.4262575395104723
1.5977338753916157 13.030744638571516 238.9528268117948 68.92239229656471 0.4339074222774684
1.6228207788689768 13.017926238143199 215.26047371059244 72.16335866905926 0.4418074604572539
1.6475714217099737 13.003590183119616 194.11179168793365 75.57043400765632 0.4499719531589172
1.6719215574485726 12.98765641488273 175.250445512673 79.15356982168873 0.4584151852088403
1.6958594003877405 12.970113334137084 158.3825617332095 82.92292424308124 0.4671502925977582
1.719339435082532 12.950902887428446 143.2933598261627 86.89124728061506 0.4761988860576115
1.7423254087102307 12.92996560830423 129.7930713012458 91.07013935622304 0.48557540389032755
1.764804883931818 12.907322892179293 117.69012014306621 95.47363721156606 0.4953015630989442
1.7867320938003641 12.88288817039825 106.83634226897176 100.1154588701713 0.5053950894848112
1.8080718268480438 12.856637080154117 97.09560317720681 105.01210033888178 0.5158815760616561
1.828782252284636 12.828506307497085 88.33965357728559 110.18009891578832 0.5267835547501949
1.848862483124685 12.798545764984874 80.47352953833257 115.63705656892952 0.5381243018877033
1.868249829239647 12.766642045558108 73.38810218886158 121.40322829805119 0.5499333306291361
1.8869199841926991 12.732796608211956 67.01524007650531 127.5000068464415 0.5622403392329602
1.9048435902231513 12.696986318707891 61.26466731283269 133.9498532988195 0.5750747089439137
1.9219875916892857 12.659173940969886 56.081524648032854 140.77838494949202 0.5884725161983158
1.938301819103801 12.619292424420914 51.397118704560825 148.01330788519172 0.6024721435975063
1.9538002018149643 12.577453268930897 47.16650485454919 155.68315990440811 0.6171095036319872
1.9684179589831963 12.53353086505997 43.344200531504505 163.82153450339547 0.632432028077125
1.9821348335887155 12.487536039578448 39.88347530175476 172.46215607585523 0.6484811324696585
1.9949242331791226 12.439467952554613 36.74753805127003 181.64438607076852 0.665310246836654
2.0067640709945276 12.389312593093198 33.906769474898155 191.41017634174338 0.6829736396409781
2.017613299503966 12.337045768066194 31.330785905834293 201.80554834346265 0.7015305277116567
2.0274517431521253 12.282666407784475 28.994775330049947 212.880480172497 0.7210437083474623
2.036264047098589 12.22620879259512 26.87258443220079 224.69035674636052 0.7415832091791436
2.0440117938629703 12.167621220769853 24.945083646869808 237.2964115167457 0.7632264265097877
2.0506743104654954 12.106922069993674 23.190569932204546 250.7654478060852 0.7860557895715969
2.0562501464540515 12.044183998528753 21.59629015313216 265.1705196694878 0.8101593519836583
2.0606987089606315 11.979341806949781 20.14400812870053 280.5934357579532 0.8356370765584268
2.064007267008499 11.912451657545889 18.82245823512336 297.1237989437048 0.8625955722220067
2.0661718936168842 11.843559982217608 17.620508722125358 314.86200673073694 0.8911554509625885
2.067168737280276 11.77267708674018 16.52538769945334 333.91746708344374 0.921442649257463
