M[M_sun], R[km], Lambda[1], P_c[MeV/fm^3], rho_c[fm^-3]
0.24162668629717493 15.618656898711224 2160425.4255784233 3.5677272577965504 0.1711233750220791
0.253643549787887 15.277290367372112 1723316.923165864 3.784809612738067 0.17388804849189846
0.2660382298066748 14.98131569973459 1383089.393697858 4.011380478464681 0.17666640727679236
0.2788126766727899 14.72357684526911 1116439.86777848 4.247696257785123 0.17945714356756465
0.29196669814706044 14.498474536868578 905989.3055071288 4.494381952619166 0.18226682028859492
0.3055013479952192 14.301279209621166 738691.7971358963 4.751591954757945 0.18509111994945135
0.3194170247642462 14.128192266529558 605138.0946499604 5.020010550151487 0.18793670531024764
0.33371426171914004 13.975989349116844 497707.2730430855 5.299859013500265 0.19080014504881823
0.34839454145245213 13.842081136144671 411038.0729065513 5.591869180747919 0.19368780104435798
0.363454280262788 13.724078863107668 340675.2332265257 5.89620426195992 0.19659466118973137
0.3789087123227654 13.620055957491495 283344.87385559827 6.213730001689743 0.19952844131138425
0.39474003886224984 13.528510496711082 236422.8883258906 6.544706501549631 0.20248536764673203
0.41096378129190403 13.447923582054656 197890.80068147322 6.889830783825763 0.20546906067820597
0.42757124290266035 13.377095397851475 166108.2115064016 7.249810273998299 0.20848263714593063
0.44456436747657946 13.314971408539762 139824.6789592091 7.624907861566514 0.2115217066049802
0.46194508852395944 13.260632381474009 117998.58925110797 8.016064694149827 0.2145923098958296
0.47970851877281856 13.213198069448719 99824.72093776529 8.423989268783314 0.2176961522191064
0.4978643994567127 13.172014210392776 84656.22397183317 8.849127839709498 0.220830779862662
0.5164005833757378 13.136434588359549 71948.57747356362 9.292342893907582 0.22399944839522254
0.5353170456498781 13.105880488588356 61285.31612785816 9.75452414236422 0.22720515046169495
0.5546235466304655 13.079841277643215 52308.537948779565 10.23648099135212 0.2304492367065299
0.5743040846864127 13.057863866006542 44737.77054384422 10.73869198606614 0.23372849845449636
0.594359244288694 13.039542896703523 38001.21226323067 11.262387020261597 0.23704893868865004
0.6147947147981252 13.024520507650314 32907.88067592019 11.808510462038553 0.24041226203769364
0.6355950154187462 13.012442829712894 28298.144813445582 12.37804108644607 0.24382010103882026
0.6567658926458255 13.003044100276687 24181.6954691488 12.971678087709988 0.2472705223034891
0.6782965077494331 12.995981204953829 21032.262299784332 13.590727757591646 0.25076808317863103
0.7001829618666412 12.99107019650834 18040.59850302332 14.236397209771615 0.25431553113887717
0.7224146788824777 12.988010972851638 15733.063298841429 14.90987583161898 0.2579148502305784
0.7450010960541761 12.986654229830371 13540.973960242933 15.612205683056748 0.26156606277240413
0.7679199409035317 12.986760180717818 11838.241895570345 16.344627955860563 0.265270815878024
0.7911628825359462 12.988129371787505 10291.565612164784 17.108770182388337 0.26903392037805035
0.8147355088006373 12.990662894368025 8958.373799415396 17.906087011834423 0.2728578080698955
0.8386157258776117 12.994125150227397 7809.536061581452 18.737956893802313 0.27674367958375923
0.8627940085662645 12.998387305056603 6816.187775298976 19.60569761869018 0.2806917795406131
0.8872674121037892 13.003349761929273 5956.787726337192 20.511407159788856 0.2847085825315589
0.9120270621987253 13.008829054305556 5212.386322047073 21.456879109899628 0.28879710084177274
0.9370446757411109 13.01472263210228 4566.468707611782 22.443614171626802 0.2929573915794953
0.9623220104351264 13.020920468844198 4005.846909887801 23.47360392613144 0.29719298554700246
0.9878454138017592 13.027314487195419 3517.6014070701553 24.549286091803996 0.3015101127292412
1.0135852157847434 13.033779346104435 3093.0450736988155 25.672622275888244 0.3059105505935027
1.0395465618714543 13.040232204693291 2722.270703939554 26.845534149226186 0.3103952688120227
1.0656960832211124 13.04655868375447 2398.9971515674756 28.07113642206729 0.31497314236602714
1.0920262967001042 13.052685572284249 2116.3438518227454 29.351505792781037 0.3196447690011538
1.118522327112695 13.05852148587943 1869.1241090150716 30.689353190394037 0.3244145299775175
1.1451513769898414 13.063981751578153 1652.5808547796303 32.088124014196595 0.32929079327409
1.1719130785698875 13.068996581326347 1462.6179339625878 33.54970796698725 0.3342709253571397
1.1987675122756865 13.07345644517363 1295.8416867829249 35.078670486024656 0.3393686519224287
1.225710979375792 13.077320103409573 1149.4253596300048 36.67706371279291 0.34458091377631017
1.2527040062086148 13.080491361616383 1020.4134347567973 38.349889104296565 0.34992184282341515
1.2797448613086484 13.082927751848501 907.007785014897 40.09941948788069 0.35538822393406844
1.3067872311074196 13.084516738951214 807.0093480215489 41.93112361327973 0.36099460372466885
1.3338225455129649 13.085233400568493 718.8004704032909 43.848431768640886 0.36674262163874094
1.360828992942337 13.08503860158431 640.825995875235 45.856111893158065 0.37264047866643996
1.3877595953481885 13.083783324309369 571.9992086401186 47.959455130678556 0.3786979049122558
1.4146149885718573 13.081493445970294 510.9983892666449 50.16316709321131 0.3849202987855365
1.4413372156845605 13.078043571948383 457.0398727110505 52.472560604428466 0.3913151212737348
1.4679299136099944 13.073453670764286 409.150654176037 54.894002043960874 0.3978938133481406
1.4943384929293777 13.067591876022341 366.657528374504 57.43367804486507 0.40466543060703203
1.520550458938591 13.0604501565116 328.9553289606387 60.09821305968327 0.4116397382905814
1.5465321137100205 13.051969697494284 295.3912664472658 62.894708770773136 0.41882726970345974
1.5722477554242127 13.0420965620952 265.5503948980485 65.83078727348155 0.426239389406135
1.5976715389267089 13.030772927301522 239.00888072117854 68.91463841510516 0.43388836173302225
1.6227595931268048 13.017960518665385 215.30971400085804 72.15507172018881 0.4417874252640112
1.6475104418321067 13.003627547984474 194.16869387658343 75.56157338668413 0.44995087395160616
1.6718588920795354 12.987701383341753 175.2985046787799 79.14413769863462 0.45839318017366554
1.6957971411633501 12.970160937302607 158.42418222834402 82.91282859979434 0.4671270928388882
1.7192623608897855 12.95092194467654 143.3357454590765 86.8804361514353 0.47617440416919615
1.7422647603746517 12.930025139938493 129.82357702639862 91.05860824094798 0.48554975140329154
1.7647448377682036 12.907385630289983 117.72105292509309 95.46127503581756 0.4952744377250123
1.7866703279059322 12.882962361557107 106.85733988162096 100.10225487012949 0.5053665958255603
1.808011515645008 12.856713930107475 97.12128871992016 104.99798605031361 0.5158516043402969
1.8287243553721195 12.82859019343315 88.3647581025244 110.16499966108198 0.5267519862251229
1.848805593101461 12.798634972744228 80.49586255597944 115.62082914258022 0.5380907816245201
1.8681940938518289 12.766736119946529 73.4101388268092 121.38584317706585 0.5498979408937461
1.8868661530463482 12.732899830367412 67.03415653816322 127.48136643209496 0.5622029280701013
1.9047908975017331 12.697097070123545 61.27944245902401 133.92991930805832 0.5750353530567018
1.921936119612724 12.659294545684812 56.095351272168436 140.7569744152755 0.5884308003356472
1.938252079659159 12.619417695144396 51.410565767573246 147.99029260257865 0.6024278725563184
1.9537535755949083 12.57758903919835 47.180346502346744 155.65847485949433 0.6170627230008677
1.9683723818593954 12.533674570190717 43.3548140407337 163.79503011893843 0.6323825176666924
1.9820927263810193 12.487689134048052 39.894831919010414 172.43358833656814 0.6484283852625969
1.9948866981555433 12.439626878743494 36.75980106734868 181.61365142431427 0.6652542632519776
2.006720500277441 12.389466121686837 33.917670980469545 191.37707522063639 0.6829141333585759
2.0175798624043466 12.33722316456256 31.34065826991267 201.7698606027121 0.7014671854921298
2.0274203217881483 12.282853095116673 29.00219074305918 212.84205268743423 0.7209764817613884
2.036236027998232 12.226402887421393 26.87932686457198 224.64883387504037 0.7415114359075472
2.0439864383451773 12.167826107021094 24.95113139681076 237.25159098768182 0.7631500033904498
2.050651737745778 12.107138490905195 23.195825118941258 250.7169508979304 0.7859741012827915
2.0562256673703154 12.044386304215198 21.601030155809486 265.11799734211655 0.8100719517794296
2.060685138194442 11.97957640873078 20.149178578212183 280.536633449381 0.8355439075517468
2.063996902926902 11.912697217822563 18.827516926326098 297.06217290241386 0.8624957269928926
2.0661655146307165 11.843814132735826 17.6247285735341 314.79506215380303 0.8910482858619022
2.067166365152973 11.772939134134765 16.528876979886164 333.8447624825411 0.9213278181479398
