M[M_sun], R[km], Lambda[1], P_c[MeV/fm^3], rho_c[fm^-3]
0.24162668629717493 15.618656898711224 2160425.4255784233 3.5677272577965504 0.1711233750220791
0.2536320593638328 15.277603034860313 1723517.2558387807 3.7846067430225485 0.1738855198187621
0.2660161229539839 14.981771322201043 1383636.6322765877 4.0109540231759135 0.1766612538163043
0.278778008973382 14.724207897120543 1117090.4792577743 4.2470318071262625 0.17944943694122764
0.2919178307805666 14.499223524595692 906621.1223994629 4.49346208936233 0.18225657739774093
0.3054387039396879 14.302106820418745 739388.6121745589 4.750385466699382 0.1850780875758018
0.3193389852306885 14.12908143920514 605757.4538382083 5.01850856944382 0.1879211216806943
0.3336230336433698 13.976891680583243 498322.22997231584 5.298022022418773 0.19078164959674704
0.3482849705662093 13.84301894788349 411604.85688010865 5.589692612774613 0.193666742150463
0.36333098352896664 13.72494147529326 341213.1519453704 5.893639247656299 0.19657057003257686
0.37876480160074194 13.62095571601861 283806.8497617728 6.210745529985356 0.1995012265229781
0.3945771507802271 13.52940115748865 236864.1955634723 6.54130569097982 0.20245554713230482
0.41078290598760475 13.448759165148822 198268.55853861355 6.8859480219384075 0.20543599344863547
0.4273719869938926 13.377862692572238 166446.3858512244 7.245409160793001 0.20844622786429187
0.44434379732199597 13.315738153036198 140125.69971555134 7.620000579569193 0.21148264148490956
0.4617022074638106 13.2613381562784 118272.27145391608 8.01056570167133 0.21454977074326398
0.4794442335841783 13.213845461101268 100069.2586762616 8.417855728104756 0.21765003656773624
0.49757870622707895 13.172606434195538 84870.1155933181 8.842382381163269 0.22078193986067463
0.5160892176043136 13.136975692961371 72149.02957452527 9.284876424972682 0.2239468839884408
0.5349843186379599 13.106365186269331 61455.5262539875 9.746286089692656 0.22714874839245006
0.5542653011945 13.080296847845771 52463.02501130061 10.227417710823962 0.23038887879380957
0.5739186352441742 13.058244000140279 44872.244036743556 10.728842865092522 0.2336652640469699
0.5939544455793271 13.039900174158289 38451.85755408159 11.251604043297927 0.23698156645344903
0.6143595598407012 13.024805418265224 33013.8886534263 11.796729994452775 0.24034061713949592
0.6351326352245554 13.012679619628255 28391.05324682179 12.365195526413155 0.24374404152468668
0.6562725236116976 13.003213121505143 24459.497536285893 12.957826419694666 0.2471913518492573
0.6777792850451471 12.996133399234918 21106.296031935613 13.575673428632701 0.2506842647082837
0.6996365032749159 12.991158151762578 18242.276273499596 14.22005958657991 0.2542268987357042
0.7218388271766062 12.98806979122429 15790.672443737503 14.892169103630035 0.2578212280850993
0.7443951125412517 12.986670793215911 13688.539634918916 15.59321117426344 0.2614689754430084
0.7672842542130198 12.986736421403698 11885.202352948061 16.324088643489496 0.26516843255729167
0.7904988334351406 12.988082797643637 10332.793334539416 17.08658309573128 0.26892603208881505
0.814034406577752 12.990558298351328 8995.735573705435 17.882142358002852 0.2727441923995895
0.8378882099576279 12.994000453271704 7842.112333324037 18.712291863358995 0.2766254674058355
0.8620397845473686 12.998251759949488 6844.9804366747285 19.578117622374787 0.2805680454909394
0.8864772615690109 13.003177081045722 5982.795800645244 20.481710634172188 0.28457844775178753
0.9112035661181325 13.008650838926837 5235.416598419512 21.424924387605042 0.28866027997457916
0.9361937886440772 13.014532208684926 4587.052079790518 22.409534291848296 0.2928158431610364
0.9614363598957428 13.020708779592384 4024.092769172222 23.436971602183583 0.2970442107949262
0.9869284173533494 13.027090340270195 3533.8675024840904 24.509929097158505 0.3013537660731573
1.0126382313789346 13.033546685188679 3107.4634713507307 25.63062794515175 0.30574825961233765
1.0385615472253837 13.0399825990827 2735.284733341833 26.800520211874602 0.31022521426234767
1.0646884313743055 13.046324492681691 2410.653883357373 28.02282750407472 0.3147944266720451
1.0909841931404167 13.052447131008543 2126.867017666028 29.300072986158458 0.3194596424772167
1.117450164176607 13.058299636842554 1878.3615053775327 30.634183068416405 0.32421991379730664
1.1440511693878372 13.063777321443805 1660.8481309643344 32.02903852885985 0.32908669491401216
1.1707808346867576 13.068793993155406 1470.0363448124094 33.48673492779137 0.33405869972225755
1.1976057986290436 13.073265871097414 1302.5541248553225 35.01115507144021 0.3391453967498682
1.2245236631981156 13.077171715263036 1155.4592890549823 36.60520167946565 0.34434909798080016
1.2514900694458413 13.080358770476762 1026.0287168268699 38.27285456927902 0.3496778143041287
1.278504703047177 13.08283477430306 911.8894840203293 40.01741308220478 0.35513452351147723
1.3055228935995402 13.084467400541756 811.4491430237744 41.84375558836624 0.3607303450319096
1.3325405202071137 13.085248541735847 722.7761855708777 43.754826619182296 0.3664643787255315
1.359518895877417 13.085067625932437 644.477674138649 45.75641440733838 0.37235057192055604
1.3864271418130818 13.083866896035262 575.2005433890698 47.853143998632405 0.37839508022397816
1.413254063477955 13.081620115075818 513.9339738085052 50.04927103716317 0.38460114948488483
1.4399746640071853 13.078270339106258 459.64500544266997 52.35116426160921 0.3909818123996322
1.4665396941752749 13.073709761912868 411.5259620812336 54.76456854799962 0.3975454016551196
1.4929381048496138 13.067935631152624 368.80169577762933 57.295627075100796 0.4043008999874577
1.519137037584234 13.060878843617417 330.8721639195306 59.95091695383496 0.4112579937969389
1.5451087128151693 13.052471513778757 297.14493646033463 62.73748825005272 0.41842713097864065
1.5708156299406724 13.042687165111204 267.13830700920306 65.6629067370254 0.42581958345826365
1.5962332345523493 13.031455914864443 240.41502048230686 68.73530075535739 0.43344751498390444
1.6213278461616634 13.018747971321037 216.59171069545346 71.96341260492909 0.4413240547918416
1.6460678517178946 13.00450851771866 195.34720782151828 75.35665494666421 0.4494633778390206
1.6704159229672768 12.988679706869775 176.36364692794166 78.92517275217676 0.4578807923778653
1.6943561148449109 12.971268295693385 159.40291017668122 82.67936631243899 0.46659059718249807
1.7178489497990272 12.952189125435295 144.2175905490471 86.63043932563282 0.475608284359532
1.7408539856156104 12.931402823938022 130.6423688036771 90.79197275100573 0.4849565855831658
1.7633334532663754 12.908859533778575 118.45649490425153 95.17543618667008 0.49464724346526917
1.785281882232051 12.884582771889677 107.52393317142696 99.79696389326084 0.5047077911421518
1.8066313590585723 12.858454296846825 97.72837289157158 104.67118248716825 0.5151568414987586
1.8273845503836597 12.830527283469745 88.91031086350584 109.8145581279518 0.5260170838571026
1.8474731280406462 12.800673350442814 80.99788014874497 115.2456851514123 0.5373158635910062
1.8668998738595108 12.76896481817074 73.86647668737139 120.98395453233243 0.5490798428888267
1.8855937031202545 12.735260980566213 67.44758372138915 127.0504802327592 0.5613381429061357
1.9035546340427392 12.699623769826518 61.66428286509537 133.4682740976504 0.5741225557163793
1.9207435757630218 12.662005276845951 56.44544822053487 140.2621021619848 0.5874666009958301
1.9371289973273462 12.622394761330524 51.733502975682036 147.4583573548023 0.6014046686417918
1.9526696956361627 12.580722858523218 47.47395089313393 155.08785388588052 0.6159811536136623
1.967331905335564 12.536977899569596 43.624133201389746 163.18077563316663 0.6312324420045836
1.981119677491152 12.49121741051739 40.1370585164942 171.77342822462558 0.6472094717963084
1.993969839679581 12.443350242237019 36.984766261367646 180.9034562604171 0.6639606329135253
2.005860360525242 12.39337850396081 34.12160883338916 190.6122409152026 0.6815391815548896
2.0167719968760514 12.341307347624145 31.530266473166876 200.9453088054446 0.7000036873873079
2.0266859458245117 12.287161242634589 29.17739253712557 211.95279150344226 0.7194185410056105
2.0355716084258466 12.23091571944588 27.039003417948898 223.68957903875315 0.739853341086406
2.043408738628761 12.172581006265936 25.097713156159873 236.21490439071033 0.7613803138004469
2.0501614140297786 12.112134586595431 23.331766020667583 249.59575009902883 0.7840840101708405
2.0558078977297614 12.04957885383949 21.725376267899552 263.9048733188657 0.80805324292372
2.0603533675277323 11.984992802416283 20.26395916250398 279.2225523130972 0.8333849490823675
2.063771058890072 11.918369269701488 18.933622312037873 295.6378896021418 0.8601863373975674
2.066029067269141 11.849703722833443 17.722926314556855 313.2491508165373 0.8885735858682984
2.067126498387202 11.779065576475316 16.61818045051035 332.16536560018596 0.9186743077834486
