M[M_sun], R[km], Lambda[1], P_c[MeV/fm^3], rho_c[fm^-3]
0.24162668629717493 15.618656898711224 2160425.4255784233 3.5677272577965504 0.1711233750220791
0.25364593517950906 15.277220952814483 1723010.041148408 3.784863669311385 0.1738887222810071
0.266045235833556 14.981152144936246 1382904.9691407674 4.011494117021981 0.17666778053169246
0.2788225432628642 14.72338676087904 1116262.7377062764 4.2478733237722235 0.17945919726618226
0.29198056594754485 14.498225001860714 888605.3752783989 4.494627093288672 0.18226954998684405
0.3055188637231384 14.301026592909004 738490.6652144559 4.75191349481699 0.18509459319575747
0.3194373117176191 14.127970105279562 604949.3962234849 5.020410859091585 0.18794085867000623
0.3337395127338881 13.975731878847874 497528.7551652141 5.300348631577192 0.19080507469042957
0.3484236147839678 13.841836734464254 410888.39210519544 5.5924493313876384 0.19369341416139121
0.3634909002802987 13.723766392879817 340546.5966843001 5.89688798048637 0.19660108281882205
0.378946077398137 13.61989238875835 283213.93800080445 6.214525563444449 0.19953569587666845
0.39478338079522335 13.528270319012975 236320.8725270732 6.545613081501983 0.20249331712818464
0.41101203213233906 13.447717721942952 197786.83519700175 6.890865885308518 0.2054778760367966
0.4276236680028785 13.376898238680232 166008.13804621156 7.250983611913283 0.20849234386980053
0.444623409951333 13.314790086672165 139745.84947719862 7.6262161938201745 0.21153212177097422
0.4620073561048934 13.260422865848358 116603.57020228436 8.017530843617935 0.21460365174729637
0.47977874309876256 13.213020336931258 99761.773367857 8.425624670229505 0.21770844815173246
0.4979396132186036 13.171890006108208 84599.57079538085 8.85092646388809 0.220843802670208
0.5164847996987219 13.136272935285925 71900.99261993093 9.294333851357484 0.2240134648597916
0.5354068479165229 13.105747291747987 61244.56999095273 9.756720934630197 0.22722019086437775
0.5547186860544256 13.07974147626705 52273.272599801676 10.238886268757843 0.23046518257262172
0.5744068680422191 13.057754744076288 44703.572362884275 10.74131859081147 0.23374536207058172
0.5944679869857058 13.039458843181196 38301.49875316926 11.265262785522978 0.23706690652204385
0.6149107445516239 13.024446413882433 32880.18163377995 11.811652379460982 0.24043137013779547
0.6357206138776905 13.012408267260025 28272.455088867395 12.381467207867876 0.24384038735798716
0.6568966529786703 13.00299411871378 24353.15651904907 12.975372679642023 0.24729163907593388
0.6784342391427947 12.995945202571747 21014.649038509484 13.59474329054717 0.25079044059030176
0.7003283778052223 12.991043451768295 18159.268484458073 14.240755218265745 0.25433917354765045
0.7225689075418911 12.987996936621283 15718.416581857971 14.91459923396209 0.2579398246392664
0.7451621591414256 12.98664582237664 13623.228406837421 15.617272778815291 0.2615919624047844
0.7680886433929314 12.986766077264912 11827.095474439486 16.350107373142784 0.2652981293988905
0.7913407721857684 12.988149208104025 10281.398835129336 17.11468942632881 0.2690627036569087
0.814919475615004 12.99069083980134 8948.679818187758 17.91247541133566 0.2728881205687364
0.8388095197853733 12.994163343829674 7801.228094667609 18.744786111838465 0.27677505630710303
0.8629960997344113 12.998432304113248 6808.151701909039 19.61305646415725 0.28072479403924283
0.887483715956051 13.003385617298948 5950.0234154073905 20.519331057300416 0.2847433062790743
0.9122460231897291 13.008880865015506 5206.496692247154 21.465405910143584 0.288833610131167
0.9372726950309898 13.0147840454526 4561.456100220086 22.45270835191422 0.29299516362696815
0.9625623403063727 13.020996387069925 4000.852045099002 23.48337962899519 0.2972326875809765
0.9880884463237009 13.027377566975758 3513.2491500068663 24.559789339391653 0.30155183714578127
1.0138381065401754 13.033849240164981 3072.616977076019 25.683812407371143 0.30595373546599286
1.0398073428480508 13.040298642520046 2718.9360878196553 26.857547987609006 0.3104406549301066
1.0659652693083195 13.046624302773388 2395.9188447422603 28.08403021463948 0.31502084211140235
1.0923049003778806 13.052751605669837 2113.704508427805 29.365233836382433 0.3196941815290571
1.118807480787352 13.05858602874932 1866.486157655166 30.704079410683214 0.32446647767382286
1.145445630548947 13.064040451619817 1650.2820597916075 32.103800341908844 0.3293446555920531
1.1722141216991946 13.069048122992704 1460.490579183955 33.56651831442053 0.3343275779612092
1.1990758760733091 13.073495252882982 1294.109544022142 35.09669421006196 0.33942825149157746
1.2260274574966707 13.0773619240318 1147.8030795601455 36.69624850291672 0.3446428009395079
1.2530278691054386 13.080516458921199 1019.079878576389 38.38784320215169 0.349978136182155
1.261179300692615 13.071417083623931 976.5690622527502 40.983246347604826 1.8186951692397397
