M[M_sun], R[km], Lambda[1], P_c[MeV/fm^3], rho_c[fm^-3]
0.24162668629717493 15.618656898711224 2160425.4255784233 3.5677272577965504 0.1711233750220791
0.25363842700819494 15.277428136628883 1723247.1516516577 3.784730817541749 0.17388706634778842
0.2660293764264247 14.981513811416063 1383213.1379784883 4.011214838119574 0.176664405610976
0.2787982250248497 14.723850815542088 1116668.3853658808 4.247438171388535 0.17945415015429214
0.2919489598710898 14.498738191457019 906165.9224498415 4.49402465085824 0.1822628416505616
0.30547930708199356 14.301517625725708 738953.1204790934 4.751123309148246 0.18508605768244302
0.31938909727111553 14.12847147921634 605331.8470263334 5.019427111771996 0.1879306519118739
0.333678406667462 13.976383770935364 498004.3680376776 5.29914542624454 0.19079296040920846
0.34835239193297257 13.842426900846815 411251.23661644914 5.591023666298887 0.19367962045947057
0.3634089148345882 13.724357594818786 340869.80882996164 5.895207829716086 0.19658530248722975
0.37885372866911415 13.620390182649551 283512.6258684854 6.212570598313226 0.19951786894860296
0.3946760718764223 13.528855789794923 236594.70097523418 6.543385334114661 0.20247378279313713
0.41089410330964715 13.448231999591542 198032.42485863 6.888322354000134 0.20545621425682292
0.4274928619056753 13.377404956292072 166235.24614931754 7.248100432815545 0.20846849206802046
0.4444793600227102 13.315251019816158 139931.95016195872 7.623001337902694 0.2115065294507255
0.46185124759213425 13.260876023718746 118098.41407812276 8.013928242620487 0.2145757827160033
0.47960637657013605 13.21344747809106 99921.79244602969 8.421606236849028 0.2176782351503781
0.49775331349932245 13.17224672972434 84737.87289979229 8.846507016481928 0.22081180398270278
0.5162806925188461 13.136642456478054 72029.38331143749 9.289441878123458 0.22397902506324507
0.5351874989686537 13.106073721074425 61355.53737544017 9.751323273040324 0.22718323561598472
0.5544851688812087 13.080029592421559 52370.72686996571 10.232959413206409 0.23042578436985156
0.5741540104313891 13.058000825464882 44790.207028659075 10.734865001594477 0.23370392802873688
0.5942036393889618 13.039697673890549 38379.493491207926 11.258197094231726 0.23702275995499322
0.6146265324551674 13.024637000478654 32950.39942930008 11.80393285353662 0.24038442254043074
0.635415366770515 13.012555949458488 28334.999333823962 12.373049511511015 0.24379054555324012
0.6565715125350351 13.003099397028157 24410.885272274525 12.966295467705782 0.24723975745479226
0.6780947825211009 12.996041909600741 21061.45483465674 13.58487768246156 0.2507355115276356
0.6999706037210405 12.991106725578835 18066.090705559167 14.230048326839333 0.2542810881391122
0.7221909501872189 12.988034292451314 15755.191754815129 14.902994774343084 0.2578784674869266
0.7447658263136598 12.986660294234854 13657.4848222976 15.60482405964495 0.26152833280994736
0.7676729277250743 12.986751850688666 11856.045828739048 16.336645838070215 0.26523102702282336
0.7909042176437273 12.988106228375349 10307.146036983237 17.10014752854434 0.2689919913322826
0.8144646586388499 12.990628737946816 8973.173470444543 17.896781126335277 0.27281365230860477
0.8383322142168946 12.994078724090471 7821.424243668731 18.72800904448016 0.2766979743632794
0.8624992739407119 12.99833877875034 6827.448623577033 19.59497850739279 0.2806436896484114
0.88696320149984 13.003262215826082 5967.083285279281 20.49986522076005 0.2846580039651287
0.9117070963805187 13.008766123613999 5221.149482454138 21.444459247338006 0.2887439225869145
0.9367138644673788 13.014646834522836 4574.685079675483 22.430368109791864 0.2929023749797969
0.9619766806182651 13.020842219658741 4012.5970220755203 23.459365503125543 0.29713515908052784
0.9874889987814504 13.02722662533666 3523.895421393035 24.533988322396837 0.3014493419535787
1.0132181664558506 13.033688699510213 3098.3681311865957 25.656324359179674 0.30584765379412276
1.0391665605869433 13.040139667168186 2727.3563421416625 26.828036924699624 0.3103291674484786
1.0653067270950216 13.04647323448275 2403.3837892608685 28.052358028212268 0.3149036729216859
1.0916212489795825 13.052603212714413 2120.2798018563412 29.331512762470002 0.3195728063678172
1.1181058489499063 13.058435614538988 1872.623020271782 30.66790693479257 0.3243388769212006
1.1447230873461132 13.063894220981513 1655.858198079986 32.06520444880921 0.32921177073408625
1.171473109956056 13.068918797529504 1465.417653949345 33.52522754338053 0.33418842380554775
1.198320512614746 13.073394443660407 1298.4324332311846 35.052423668534445 0.33928186081251693
1.2252493495778443 13.077259010788415 1151.734572303498 36.64912663888021 0.3444907931004339
1.2522324717208564 13.080436036475803 1022.5589363853736 38.31994050264717 0.3498269722187761
1.2792634352233117 13.082894959848277 908.902483654251 40.06753739722807 0.35528959139670757
1.3062963086452697 13.084494466531094 808.775370024338 41.897176312002955 0.36089197588991556
1.333321753383455 13.08522927197507 720.3137318336205 43.81203885090328 0.3666344430661937
1.3603199639408883 13.085051982579769 642.2617830051853 45.81734958072485 0.37252776312734626
1.3872425497794794 13.08381206452083 573.2637277338797 47.918157944879844 0.378580359790451
1.4140821561389456 13.081530771930964 512.1305479050078 50.118882447985264 0.38479620832934436
1.4408125803903313 13.078139878497174 458.0405037365788 52.42535876694674 0.39118552271301016
1.4673922730260238 13.073555601429756 410.06817783508575 54.84367412405584 0.3977583396390353
1.4937952977687157 13.067724388619334 367.4965337809831 57.379998237613464 0.40452368634091446
1.5200003840059444 13.060618141652952 329.6885722428541 60.040937131542115 0.41149129736568235
1.545979349299407 13.052165323477782 296.0551344004785 62.833572394717166 0.4186716727658399
1.57169273038173 13.042322562862235 266.1788233949502 65.76550419633149 0.4260761410352311
1.5971080600960925 13.031033139745608 239.54760944889273 68.84489843819382 0.4337169273441262
1.622201130072149 13.018255927479888 215.80974109809955 72.08053847219328 0.4416072276967355
1.646950635285427 13.003968784044782 194.62292020658555 75.48188186483014 0.44976128970967033
1.6713047358725908 12.988088761948426 175.7117875083562 79.0591227515259 0.45819450079358137
1.6952279409395077 12.970571031329012 158.80915215458558 82.82203236856152 0.4669184433639567
1.7187056673848726 12.951402112738652 143.68261125385226 86.78320691159827 0.4759542277786614
1.7417222429775423 12.930575556070742 130.14731309069634 90.95490551016093 0.4853190509988934
1.764203375236813 12.907975636183888 118.00746449425394 95.35010048398733 0.4950304959342256
1.7861348786833038 12.88359406287305 107.12712861467872 99.98351171522505 0.5051103532488024
1.8074791469355938 12.857400292165556 97.35082969162481 104.87105893634566 0.5155820743477363
1.8282102855792424 12.8293559069387 88.58172331406126 110.02869865509244 0.5264661704691324
1.8482926070309784 12.799437496035694 80.6892235830743 115.47490477282037 0.5377893522312249
1.8676905536142252 12.76760466648022 73.59099294481273 121.22951132291661 0.5495797065279314
1.8863702800859041 12.73380594512783 67.18921758546425 127.31374998557774 0.5618665231993762
1.9043149463660085 12.698091722741086 61.42860181182119 133.75067414208263 0.5746814674439358
1.9214650874904373 12.660326706929705 56.231966615576525 140.56445638109284 0.5880557019941511
1.9378099407682432 12.620551915046828 51.53462794275829 147.78334964908137 0.6020298074892124
1.9533287031598152 12.578799178201587 47.29713059789746 155.43652268018374 0.6166421014033479
1.9679681308981685 12.53495398826317 43.4614812327974 163.55607746448226 0.6319351699249675
1.9817113956038837 12.489046811627572 39.99133329785293 172.1767371303655 0.6479541375938737
1.9945248649826828 12.441054946931192 36.846474477297704 181.3373239594682 0.6647509289432632
2.006385716550904 12.390978891649967 33.99658709040949 191.07947842550294 0.6823791400308277
2.017275657799404 12.33883720884363 31.415465534487048 201.449016596823 0.700897719030328
2.0271338840245536 12.284521353679757 29.070330225865316 212.49639356695658 0.7203714784293068
2.0359702652392926 12.228127293023332 26.942130143900982 224.2755488176904 0.740866203799261
2.0437625043394796 12.169675057013139 25.00795947400245 236.84867067218448 0.7624629872396361
2.0504639911040528 12.109095014981929 23.247809507673274 250.28061283518727 0.785238533938383
2.0560654987127944 12.04640757856128 21.64897682695615 264.64586709066964 0.8092862996108324
2.0605599782177877 11.981684703871696 20.19436872104093 280.0252977138722 0.8347039852304706
2.0639143996779152 11.91491244489614 18.86916500019189 296.50823957639454 0.8615982557503503
2.066112995596528 11.846102543024424 17.662424706467384 314.1933411981273 0.8900850489612687
2.0671519434808743 11.775322859004225 16.5643502065301 333.19128844465536 0.9202957081042371
