M[M_sun], R[km], Lambda[1], P_c[MeV/fm^3], rho_c[fm^-3]
0.24162668629717493 15.618656898711224 2160425.4255784233 3.5677272577965504 0.1711233750220791
0.2536453151226409 15.277271238825175 1723191.4375776781 3.7848515981398374 0.1738885718196771
0.26604292472764374 14.98121567751539 1382932.0792935865 4.011468740620337 0.17666747387285472
0.27882065021945635 14.723438436993085 1116324.9877199745 4.247833783216026 0.17945873865531672
0.2919770353687916 14.498288299664623 905748.1688765421 4.49457235058858 0.1822689404141734
0.30551440176425354 14.301099196186835 738505.4134183907 4.751841690724744 0.18509381757452104
0.31943305716739545 14.12801161835901 605001.4696319388 5.020321464245085 0.18793993116397054
0.3337342924551451 13.975783395617308 497586.1305831375 5.300239291892298 0.19080397382123004
0.3484171231013849 13.841891529320678 410922.3427253215 5.59231977342345 0.19369216065244751
0.36348309932615847 13.723828966202202 340596.3262019843 5.8967352928770085 0.1965996487444828
0.37893724720447036 13.61988956925062 283229.60283567733 6.2143478978107884 0.1995340757800128
0.39477283124429946 13.52834062680033 236333.7234020711 6.545410621861817 0.20249154183064996
0.4110011816896442 13.447765961206352 197812.32714051197 6.890634722317865 0.2054759073557644
0.4276121311796873 13.376934318611127 166027.42877400006 7.250721575597598 0.20849017611051504
0.4446110190591547 13.31480274220331 139757.03623900644 7.625924008010961 0.211529795784058
0.46199265764048186 13.260465580590077 117936.21441806477 8.017203410747575 0.21460111878932603
0.47976253582870926 13.213063392655702 98705.85794419855 8.42525943610416 0.2177057021016978
0.49792368735218623 13.171934212432944 84609.71697538315 8.850524774845834 0.22084089426991355
0.5164652439910248 13.136316305298944 71910.03578619864 9.293889205306089 0.22401033452386931
0.5353871982377683 13.10576966866752 61253.627850665405 9.756230315647784 0.22721683182712438
0.5546976654725928 13.079737969198808 52280.88820301231 10.23835172762607 0.23046165527650875
0.5743832896657309 13.057785187368497 44710.19172973686 10.740731972727712 0.23374159580077244
0.5944442323400396 13.03949864656766 38310.728405691574 11.264620516440054 0.23706289361319105
0.614884731913492 13.02446304438916 32886.85239864196 11.81095066373769 0.24042710253541102
0.6356925885513189 13.01240226093183 28278.484733356687 12.380702013002049 0.24383585658240686
0.6568676632722468 13.002988521385436 24358.68198444386 12.974547519623139 0.2472869227996387
0.6784027566335933 12.995958342831674 21017.253580799843 13.593846444833323 0.25078544719364637
0.7002952890999854 12.991050471880179 18163.000032177002 14.23978187627395 0.254333893119841
0.7225347896808072 12.987998916342585 15720.241495902274 14.913544275943357 0.25793424667855197
0.7451261006647023 12.986638322044833 13626.607981684296 15.616141051740001 0.26158617776667975
0.7680510338711729 12.98676421457752 11829.42582821417 16.348883546737884 0.26529202893120835
0.7912997420144986 12.988155432253363 10284.22122632622 17.113367356054486 0.26905627487685524
0.8148779918542066 12.9906881666653 8950.882096574684 17.911048545176154 0.27288135019083537
0.8387656845770469 12.994156481018928 7803.0892799811245 18.74326077944279 0.27676804819397305
0.8629498550862471 12.99842948969271 6809.872865860371 19.61141282650367 0.2807174200736792
0.8874365353875113 13.00337561988088 5951.617353105283 20.517561200425355 0.2847355504918271
0.9121970361459025 13.008870412524338 5207.727922757011 21.463501378020034 0.28882545547614163
0.9372204379705644 13.014769018118136 4562.607278257037 22.450677079652714 0.2929867268784249
0.9625095576512224 13.020982465256719 4001.991772046414 23.48119611732899 0.2972238196913155
0.9880337797444955 13.027362791512562 3514.188257094967 24.557443306506705 0.30154251747084343
1.0137819121298415 13.033819130964535 3090.0935518450588 25.681312936470544 0.30594408952641655
1.0397492047841501 13.04028115805285 2719.439873697763 26.854864511758006 0.3104305172415538
1.0659049702283678 13.046608772585039 2396.6540406542385 28.081150167312465 0.3150101875639992
1.0922419409418986 13.052738306161853 2103.730314726206 29.36216742754928 0.31968314434004236
1.1187443698215391 13.058576791771058 1867.0382830999874 30.700790017451283 0.32445487412604984
1.1453801994110788 13.064027292895377 1650.8022102840932 32.10029870308149 0.3293326243059399
1.1721470132201706 13.06902968977072 1461.0736712569037 33.562763341032046 0.3343149233137361
1.199007447012541 13.073489872613678 1294.4307892243407 35.09266817177093 0.33941493847441045
1.2259570851805264 13.077350392414242 1148.1583351442614 36.69196308644561 0.34462897684934035
1.2529564481097584 13.080507597752394 1019.4121128419745 38.36577348201437 0.34997192328225163
1.2800026999705412 13.082949289711706 906.0034621460492 40.1164234856605 0.35544082862253057
1.3070561964722343 13.084549224211255 806.1325499452246 41.94922939819685 0.3610493402554877
1.3340906187578905 13.085241112436035 717.9865916421162 43.8678423607361 0.3668003199568669
1.3611007677467828 13.085029782539884 640.1083502609172 45.87678661669036 0.37270059795402294
1.3880427899552032 13.083780176942389 571.3127627177777 47.98148230385829 0.37876060135765155
1.4148878208522238 13.081451183115584 510.4147359822572 50.186788281127335 0.38498648795718593
1.441620513858427 13.078002307020853 456.49557712562194 52.49773830505394 0.3913842498063831
1.468216600704157 13.073395390867084 408.6723567914523 54.92084775503185 0.3979660771742478
1.494628803012202 13.067520265444871 366.22048719267593 57.462312296253785 0.40474104080678364
1.520841802429639 13.060362825482922 328.57199767496877 60.12876622213756 0.4117189223359648
1.5468266357000244 13.051866480825014 295.0399541473767 62.92732194536006 0.4189102728256458
1.572544484052026 13.041971026952616 265.2321631153047 65.86561327072306 0.4263264760993941
1.5965084588553868 13.030727102667774 240.04599171946617 69.07058164053808 0.7051008106909828
