M[M_sun], R[km], Lambda[1], P_c[MeV/fm^3], rho_c[fm^-3]
0.24162668629717493 15.618656898711224 2160425.4255784233 3.5677272577965504 0.1711233750220791
0.2536402832310341 15.277377237026863 1723306.310605814 3.7847692728396924 0.17388754567452583
0.2660338785976358 14.981386641116593 1383101.4094375637 4.011295676812231 0.176665382498869
0.2788057724270194 14.72370843921789 1116598.4135322473 4.2475641262970525 0.17945561104142094
0.2919574339977503 14.498594094097461 906079.4263389598 4.494199024985947 0.18226478334694374
0.3054886865513463 14.301441631931105 738798.4681081754 4.751352020810208 0.18508852820489496
0.31940208733062064 14.128353093327643 605264.5728397641 5.019711843449839 0.18793360611292786
0.3336966633164217 13.976159714977623 497843.7641253285 5.299493671190546 0.19079646665797187
0.34837195835786017 13.842276678612249 411154.1452273337 5.591436291663952 0.1936836127233869
0.3634306405832939 13.72423238350454 340772.32209536235 5.895694102176531 0.19658986966108447
0.37887915060526745 13.620264707781368 283419.7799691819 6.213136399037156 0.19952302836993677
0.3947076005196467 13.52868366520144 236514.15119148337 6.544030073337415 0.20247943628512066
0.41092758557756537 13.448113488401054 197969.6175390376 6.889058473692992 0.20546248336102793
0.427529558792441 13.37727893845496 166137.77921824905 7.248934836494233 0.2084753948758149
0.4445208445134972 13.315111515502371 139883.20739391292 7.6239317172279275 0.2115139358683863
0.4618969569143166 13.260768797970512 118047.89558805386 8.014970819415177 0.21458384789039736
0.47965593034757664 13.213317545609415 99868.97482563599 8.422769135976152 0.2176869785261109
0.49780704919763535 13.172148531260179 84695.82205895179 8.847785948401405 0.22082106399624538
0.5163397704778142 13.136538970677114 71988.741919523 9.29085753172764 0.22398899135287423
0.5352512926754638 13.105978950366195 61320.44359212223 9.752885240816653 0.22719392967417917
0.5545525101875843 13.079936587916094 52340.97957543243 10.234677870254803 0.23043722862342159
0.5742288977163339 13.057934961774702 44765.39196605308 10.736732480350787 0.2337159178208249
0.5942782038121162 13.03962371457717 38023.57152809211 11.260241667022736 0.23703553448279066
0.6147087521661171 13.024586832841251 32929.65614222687 11.806166590970493 0.2403980073909373
0.6355033916005501 13.012501448699402 28318.555617840106 12.375485236920523 0.24380496766412788
0.6566685178471814 13.003063534147216 24392.432117316584 12.968921996366856 0.24725476961556017
0.678191348342457 12.996024575077147 21046.85439112027 13.587732294778784 0.2507514052442215
0.7000735404114957 12.991089999519115 18189.230822651574 14.233146318734233 0.2542978948963396
0.7223004902649718 12.988010719680428 15743.906411037895 14.90635242411017 0.2578962206469208
0.744880689380217 12.986657667899541 13647.629089211541 15.608425944627593 0.2615467432567539
0.7677932635570417 12.986753002378812 11847.64121045762 16.340540711506435 0.26525044199003495
0.7910299530284732 12.98812822912273 10300.669743571756 17.104354924866467 0.26901245047585315
0.8145965510188646 12.990641756920537 8966.349101976764 17.90132187453808 0.272835197834148
0.8384699147781857 12.994105927477946 7815.3213889183535 18.73286300971001 0.2767202758220015
0.862644026999543 12.99836435194907 6821.983955380699 19.600208769729296 0.28066715453696145
0.8871091129181083 13.00331044365934 5962.066045836366 20.505496935945313 0.2846826830142818
0.9118628602385587 13.008802462333744 5216.815925924933 21.45051929298766 0.28876986994747594
0.9368748211542797 13.014681432384815 4570.57069664749 22.436831250507893 0.29292921918677695
0.9621456051567131 13.020874418099867 4009.4102542759842 23.46631280058584 0.2971633741197573
0.987660929857194 13.027276903733293 3520.7414026066 24.54145245354316 0.30147899340323364
1.013402043508963 13.033733785677626 3095.90084680065 25.664276442766266 0.3058783424161683
1.0393517506916092 13.040180689940215 2724.863614594363 26.836574117994612 0.3103614194274586
1.065498144310019 13.046517218059938 2401.3632317276492 28.061520264200144 0.3149375680166506
1.0918184476654664 13.052635142845892 2118.5340734214615 29.34126758311332 0.31960791773264274
1.1183097902674712 13.058477723883325 1871.0185068054232 30.67837072849969 0.32437578863153943
1.1449331681699928 13.063942990807593 1654.142525624961 32.076426272158905 0.3292505801646262
1.1716874592940543 13.068956102521962 1464.0030610957685 33.53717158120104 0.33422867644448473
1.1985357294713432 13.073414507734995 1297.1852371783596 35.065229442160515 0.33932420603424523
1.2254744675093383 13.077290576434043 1150.5812018570534 36.662757006775934 0.3445347625573299
1.2524636016943336 13.080458728198828 1021.5916112423547 38.334552179629206 0.34987325880825715
1.2794984716700868 13.08290850101639 907.9915459969314 40.0830923151399 0.35533771311616447
1.3065355851966287 13.08450513281161 807.9566027594682 41.91373872316761 0.3609420465680606
1.3335662576181646 13.085232246499954 719.5818504558537 43.82979431004914 0.36668722147322247
1.3605687713713168 13.085041901878355 641.5426548072197 45.83626090731971 0.3725827546961746
1.3874945204278173 13.083796943538847 572.6223352020669 47.93830585524731 0.3786377072472438
1.4143448735414073 13.08152279638442 511.56991437091926 50.14048769798577 0.38485674862079355
1.441071800217567 13.078103013128063 457.54629781087 52.44838708187332 0.3912487498378346
1.467654587182734 13.073507971170432 409.61789189581697 54.86822739214504 0.39782443262092243
1.4940603890275779 13.067658304182045 367.11015594535866 57.40618659631834 0.40459283803641233
1.5202691444654355 13.060532854239444 329.3346666540969 60.06887970572228 0.41156371559948457
1.546249458808772 13.052068921965537 295.74453453547807 62.86339810844692 0.4187475815785315
1.5719632193368573 13.042212356640194 265.87276972102575 65.79735266652082 0.42615578205555615
1.5973853295306182 13.03091049675059 239.28917389880903 68.8789209592137 0.43380056129925587
1.6224721682485912 13.01811304513342 215.57279618243555 72.11689910182473 0.4416951360756189
1.6472238155988872 13.003803976398824 194.40745187974102 75.52075862313526 0.44985377659636455
1.6715727650283532 12.98790102487986 175.50588696598234 79.10069077519239 0.4582918189983399
1.6955124330393805 12.97038275307706 158.62453202330613 82.86632579009014 0.4670202295176261
1.7189852526784049 12.951195942071235 143.50960771016491 86.83063816632469 0.47606163623399544
1.7419901327223628 12.930318253440548 129.992355830854 91.00549434881894 0.48543159254382534
1.7644693453102551 12.907691092789277 117.86438641493552 95.40433378374544 0.4951494959036023
1.7863973988671025 12.883285676870056 106.99610273758263 100.04143668429735 0.5052353528190568
1.8077389624130695 12.857063271799085 97.23389008445342 104.93297567943509 0.5157135546814693
1.8284656593681718 12.828996982960863 88.47781791544195 110.09519618902264 0.5266056263330915
1.8485423785875839 12.799046214048929 80.5928313438934 115.54608732899636 0.5379363908290729
1.8679369254522826 12.7671838709516 73.50037528978623 121.30577001473492 0.5497349412787806
1.8866155110702478 12.733380123168704 67.11612080984187 127.39551254788233 0.5620306200095266
1.9033637458317119 12.698050524862701 61.63147045391441 133.98253033460068 0.7337805119175282
1.916029877057439 12.65979018188402 57.26227722314116 141.341458257667 0.9307430873960078
1.9247925059086513 12.616788307126782 53.72112514502303 149.5298407631281 1.1292678020489928
1.9299337168120267 12.568226331877819 50.799951787408794 158.60654010198152 1.3299494368588274
1.9318924136099223 12.514085146337779 48.34613802416016 168.63500639276322 1.5335228273456851
