M[M_sun], R[km], Lambda[1], P_c[MeV/fm^3], rho_c[fm^-3]
0.24162668629717493 15.618656898711224 2160425.4255784233 3.5677272577965504 0.1711233750220791
0.2536442164006134 15.277271751075418 1723198.2921074028 3.7848230199217214 0.17388821560597487
0.26604069417034937 14.981236775967398 1382995.3653870039 4.01140866303699 0.17666674787071532
0.2788157732207213 14.723492758631563 1116371.1753368138 4.247740173270378 0.17945765292101437
0.29197027594349223 14.49838867812743 905900.8576316086 4.494442751389266 0.18226749729701064
0.30550573510574774 14.301231851791178 738655.8350928038 4.751671701207124 0.18509198136330088
0.31942186466586703 14.128141947328656 605132.2805051097 5.020109831706343 0.18793773539469844
0.3337208841996016 13.97597146404241 497700.10625188187 5.299980443961652 0.1908013676520748
0.34840175126960177 13.842021316521844 411002.99248992 5.5920130632911365 0.19368919314754432
0.36346374998832975 13.724004416196024 340627.39215168706 5.896373829089706 0.19659625380009854
0.37891800159218686 13.619999378625996 283306.9182682436 6.2139273053905235 0.19953024048356624
0.39475195888141196 13.528428069712907 236423.68813441842 6.5449313369631845 0.20248733914957112
0.4109761621582932 13.447881300024912 197865.8831198464 6.890087491356319 0.20547124690725932
0.42758396657031655 13.377070688756735 166080.29064197795 7.2501012625293875 0.20848504441947435
0.4445789499548329 13.314943547225472 139801.58033510295 7.6252323268302975 0.2115242895571104
0.46196071973142455 13.260581574605828 117980.59728924895 8.01642829554906 0.2145951226466118
0.4797257828945579 13.213155904624335 99810.15643183744 8.424394841588317 0.21769920155961964
0.4978826803130442 13.171980595955946 84641.54258625225 8.84957388850616 0.22083400944653184
0.5164208925671927 13.136410968864437 71936.30725827043 9.292836637089378 0.22400292437800368
0.5353413182514476 13.105825880716035 61275.303783941985 9.75506892758921 0.22720888034971687
0.5546469005143793 13.079801395791682 52298.34617999469 10.237080369693976 0.2304532283324684
0.5743288324832052 13.057841112493573 44728.41055381334 10.739343353225522 0.2337326804334279
0.5943870310509264 13.0395162654243 38328.0029291667 11.263100171756202 0.23705339447209373
0.6148230201764883 13.024503432080463 32901.062483746886 11.809289610760773 0.24041700056190565
0.6356283148593376 13.01243017582964 28291.685124469248 12.378890708117215 0.24382513171177958
0.6567982550643788 13.003032594671012 24369.773753971553 12.972594280737166 0.2472757588871298
0.6783302061202194 12.99597501323349 21027.294065532235 13.591723531967551 0.2507736273835722
0.7002188048399819 12.991050969954898 18172.132273653857 14.2374779045901 0.2543213939610108
0.7224528660759928 12.987991917112527 15729.408689679229 14.911047129017112 0.2579210433214462
0.7450412893394215 12.986651912265167 13633.64719385156 15.61346220207633 0.2615724852641502
0.76796079212062 12.986757143922365 11835.617991982734 16.345986712160617 0.2652775889373919
0.7912069650067746 12.988141740261229 10288.703325030823 17.110237995172543 0.2690410578545769
0.8147815704592819 12.990659601577384 8956.210584710127 17.90767115240652 0.2728653247036386
0.838663171293584 12.99413806001956 7807.149773082562 18.739650335925127 0.27675146007410306
0.8628451168089984 12.998405989664 6814.502070708666 19.607522380867273 0.2806999660976844
0.8873250892825816 13.003360695763169 5955.3510832637185 20.513372024397537 0.2847171928729312
0.912081184530535 13.008842828191934 5211.162341643423 21.458993460706775 0.2888061538796405
0.9371011127460301 13.014733508454153 4565.14027988905 22.44586920111989 0.29296675768819047
0.9623849216703305 13.020946254541833 4004.3395345726735 23.476027932779736 0.2972028301582437
0.9879054005582035 13.027334045972294 3516.396379072725 24.551890484942927 0.3015204587468187
1.0136472589370256 13.033789523597559 3091.935369861339 25.675396974404627 0.3059212586894542
1.0396122065551516 13.040245326015974 2721.374840068492 26.848513073630095 0.3104065226520071
1.0657625685749763 13.046577490775498 2398.2714342128825 28.074333516271437 0.31498496980769136
1.0920946985676354 13.052705479696469 2115.744627962664 29.354909725907522 0.3196570210703835
1.1185932815237511 13.05853841040106 1868.5657848052404 30.693004600941684 0.3244274105648298
1.1452240806206764 13.063993115695972 1652.070303862621 32.09201098494558 0.3293041485227323
1.1719872608801358 13.069004628092133 1462.0133517150632 33.553876090398255 0.3342849723627863
1.1988424638908637 13.073467835788426 1295.4183047258534 35.083139434136434 0.33938342952229983
1.2257893640474622 13.077329306265177 1149.0307296314415 36.6818205173469 0.34459625849146386
1.2527849134109779 13.080492073843661 1020.144997670066 38.35497591298476 0.3499379227725031
1.2798270253352626 13.082938956449857 906.694649422975 40.1048481682915 0.35540501845765454
1.3068708762504997 13.08452309532964 806.7212697324762 41.93690402447139 0.3610120787834297
1.3339084142996513 13.085237830694773 718.5616118228365 43.854628716447365 0.3667610421724472
1.3609176496276112 13.085030195536547 640.6066098885776 45.86271239326428 0.37265967202413863
1.3878473818077375 13.08377744171447 571.7802921556594 47.966487374802234 0.37871792094908957
1.4147043055294408 13.081482649340959 510.8049532955478 50.17070818938058 0.3849414297680488
1.44142774185776 13.078031191980413 456.8554506943292 52.48059858172437 0.3913371905478195
1.4680219447400327 13.07343364402096 409.0020830060906 54.90257249237638 0.39791688345391363
1.4944310129899143 13.06756861445306 366.5161429546206 57.442819437166456 0.404689568919172
1.5206432979276618 13.06042320848691 328.82811134270287 60.107967009506666 0.41166501741534106
1.546626589281156 13.051936615578494 295.2824399427477 62.90512031647375 0.4188537679150224
1.572343114656136 13.042054327031103 265.45906881148454 65.84190519060253 0.426267191126536
1.5977668750073981 13.03072745668794 238.91400416367256 68.92651556068483 0.43391755806035787
1.622854032194061 13.017906900476083 215.23250248752245 72.16776541251612 0.44181811455420916
1.6476057525991674 13.003567855877241 194.08975227186008 75.57514582456332 0.44998316245967684
1.6719541869434515 12.987633258511476 175.22366401553387 79.1585855577631 0.458426886863718
1.695891807982144 12.970085031473248 158.35743272412202 82.92829283520494 0.4671626296068226
1.7193721230704326 12.950874422371395 143.27262966479333 86.89699636514106 0.4762119049054595
1.742353792855878 12.929932458990375 129.7765348708393 91.07627132615463 0.48558904526632835
1.7648369259308747 12.907287945829257 117.67119430508309 95.48021113897535 0.49531598776356683
1.786763963322978 12.882853054982673 106.81565144264641 100.12248047918287 0.5054102418124342
1.8081030126104312 12.856596741795311 97.08409492112247 105.01960604041925 0.5158975144346034
1.828812935496659 12.828462593989183 88.32716409261812 110.18812842537837 0.5268003423188358
1.848893515972039 12.79849844083329 80.45978731841782 115.64568604811772 0.5381421274139019
1.8682698659309331 12.766559546762418 73.38285695970957 121.41247344771864 0.5499521503658896
1.8869478003238696 12.732742181005488 66.99619200165067 127.50991957291984 0.5622602339959073
1.9048724431238078 12.696926899587906 61.254393351270075 133.96045396160093 0.5750956379437208
1.9220142427980902 12.659111702339592 56.07294829810571 140.78977085808583 0.5884947002780987
1.9383276849667566 12.619224330597792 51.39060491366648 148.02554722436818 0.6024956865753573
1.953824824062505 12.577381646233942 47.16032110448178 155.6962872504695 0.6171343812668394
1.9684414446782437 12.53345393967258 43.33702526265821 163.83562940809992 0.6324583574762497
1.9821569353520527 12.48745605322988 39.87831194419267 172.47734831939007 0.6485091832862601
1.9949476543513074 12.439382363766153 36.74495307856241 181.66073072657312 0.6653400188538335
2.006783830889015 12.389223353849205 33.903221624233765 191.4277795503999 0.6830052851402987
2.0176320910114964 12.336951300515164 31.326535914511723 201.8245271904494 0.7015642132929493
2.027468828829986 12.282567800747385 28.991386674339324 212.90091609688776 0.7210794597745415
2.0362795102268683 12.226104807723354 26.868946921087495 224.71243890186005 0.7416213787106261
2.0440251419709656 12.167511730848389 24.941925399048902 237.32024748273219 0.7632670690214037
2.050685110244594 12.106807679306463 23.187313936725126 250.7912097922228 0.786099137181771
2.056258461762318 12.044064072303346 21.592901850732154 265.19845176174454 0.8102058326079938
2.060706229758433 11.979217080293648 20.140880540728556 280.62364412709945 0.8356866253147629
2.0640127847770606 11.912323185507523 18.820567474212503 297.15657280056814 0.8626486717425815
2.0661743024591592 11.843425170616205 17.617366384027758 314.89760925167514 0.8912124435961336
2.0671684121954654 11.772536727518366 16.522534489329402 333.9561330865185 0.9215037191207011
