M[M_sun], R[km], Lambda[1], P_c[MeV/fm^3], rho_c[fm^-3]
0.24162668629717493 15.618656898711224 2160425.4255784233 3.5677272577965504 0.1711233750220791
0.25363908804809115 15.277444846206606 1723295.534494069 3.7847500950149664 0.17388730663219232
0.26603135616684176 14.981468797264403 1383264.3676427535 4.011255362058106 0.17666489531885757
0.2788021714814996 14.723771020697933 1116553.0958562265 4.247501311588863 0.17945488248546568
0.2919535244876661 14.498655835483758 906110.663651197 4.494112062934724 0.18226381500432054
0.3054829691726633 14.301509978909507 738863.7406479985 4.751237959715715 0.18508729612738556
0.319394494292373 14.128455362792838 605259.6185406497 5.019569844076279 0.18793213281462046
0.3336873911146442 13.976253642043682 497889.5926731389 5.299319996344042 0.19079471804044626
0.3483627728600451 13.842346302109842 411207.7336667132 5.591230508716012 0.19368162171675665
0.36341872220128874 13.724315243396203 335905.22818769346 5.895451589433381 0.19658759193007963
0.3788660742897828 13.620325086276672 283469.3035957279 6.212854223211349 0.1995204552661672
0.39469252336512006 13.52875032507163 236555.98232159432 6.543708528389269 0.20247661677031137
0.41091078936317543 13.448184033897755 198000.07219410822 6.888691354217712 0.20545935681752073
0.42751096195443394 13.37735672551526 166216.04777778528 7.248518699258563 0.20847195227911103
0.44449941832952117 13.315195654408615 139913.16232470374 7.623467713302778 0.21151024209878858
0.46187405368036827 13.260805291750046 118075.89946866446 8.014450858122178 0.21457982556942537
0.47962996218854187 13.213409895250566 99908.44455887015 8.422189164871932 0.21768261795419191
0.4977804633195166 13.172189572373956 84717.06706497428 8.847148106676414 0.22081644574962764
0.5163101041060775 13.136596149508524 72012.11253251655 9.29015150062864 0.22398402084992136
0.5352204732585364 13.106008338185264 61335.76687272192 9.752106235841872 0.22718859619377046
0.5545180612349918 13.079964655095774 52355.50668294782 10.233820816290425 0.23043152097835667
0.5741897283907356 13.057983073026293 44775.72277894303 10.735801101666466 0.23370993808116655
0.5942413053044333 13.039687153019727 38368.74951480273 11.259221962103247 0.2370291633480008
0.6146673468982164 13.024604765816337 32939.16391042543 11.805052539203674 0.2403912320974407
0.6354597133543196 13.012508755038112 28326.93441797566 12.374270442224805 0.24379777477459316
0.656621924485882 13.003101417837575 24401.82325652144 12.96761203705251 0.24724728242529348
0.6781439107268203 12.99603214805982 21053.279613622686 13.586308576361134 0.25074347836150906
0.7000217258086068 12.991103246394138 18196.06450695528 14.231601211766364 0.25428951261562993
0.7222466097955605 12.98801195062608 15749.645225830041 14.904677809117997 0.2578873663262063
0.7448237566062835 12.986659492211915 13652.58572712781 15.606629513779128 0.2615375610938762
0.7677329140393401 12.986761100323212 11851.461676606423 16.33859814757175 0.26524075879603237
0.7909665884934894 12.988120117078347 10303.304225382748 17.1022564841397 0.2690022464691906
0.8145307916503248 12.990636130883285 8970.052432486054 17.89905716755168 0.27282445196143185
0.8384012007156031 12.994101463079444 7818.2995382578665 18.730442079124746 0.27670915289858533
0.8625724500203767 12.998352382050413 6824.674594980724 19.597600151817407 0.28065545131356007
0.8870363411096829 13.003285243654986 5964.461350178966 20.502688082934682 0.2846703741848697
0.911784857601682 13.00877836382524 5219.11624256802 21.447496798177966 0.288756928499976
0.9367949416353181 13.014671394430323 4572.513740860218 22.433607700848412 0.2929158303967023
0.9620611356580103 13.020854467643572 4011.024752612704 23.46284776260204 0.297149301570942
0.9875778629523734 13.02724322472726 3522.368765454347 24.5377296276222 0.3014642043831581
1.0133112212474549 13.033721454214072 3097.2479801350396 25.660310234577373 0.30586303605491877
1.0392581273836656 13.040160921795128 2726.0353289437876 26.832316064956103 0.3103453332698248
1.06540228325126 13.04649694022543 2402.3034008873296 28.056950447080126 0.3149206622760149
1.091719363228642 13.052621199239596 2119.3626427699396 29.33640219191226 0.31959040531168437
1.1182073749520547 13.058464924514796 1862.747546298501 30.673151707243058 0.3243573781958725
1.1448279170001965 13.063918231597881 1654.9548335020968 32.07082915032328 0.3292312231399846
1.1715803694420825 13.068934948666689 1464.6895049527743 33.53121422360765 0.33420859953516574
1.1984307843753796 13.073410004213695 1297.7810419760347 35.058842252864224 0.3393030853308133
1.2253629449341297 13.07727284461059 1151.201381255121 36.65595851239577 0.3445128316668438
1.2523486188945616 13.080446874899259 1022.1088368589058 38.327264207032165 0.3498501721087522
1.2793818734617297 13.082897304647192 908.4421235502209 40.07533385335928 0.3553137110273498
1.3064161240992673 13.084507977577278 808.3147363672673 41.905477721370694 0.3609170723080923
1.3334435451665239 13.085230042262037 719.9638484334995 43.820938207709986 0.36666089655703166
1.3604436205718269 13.085044827277608 641.9420122410179 45.82682825101648 0.3725553258129743
1.387369167382905 13.083804149202361 572.9327645620398 47.92825638089961 0.3786091031992094
1.4142169365053099 13.08153497608491 511.8439670506764 50.12971128396819 0.3848265519211309
1.440942233100352 13.078122569057424 457.78059750984346 52.4369008255542 0.39121721288151057
1.4675233214044936 13.073533301573676 409.8365261522393 54.8559804674217 0.39779146610212857
1.4939297406563192 13.067687849627696 367.2878017150944 57.39312406176757 0.40455834574837457
1.5201352306667273 13.06057535893186 329.516179523451 60.05494213631 0.4115275938680426
1.5461144510461569 13.05211727400283 295.9085569913685 62.84852119050552 0.4187097186396032
1.5718283153180572 13.042269512898695 266.01814396940404 65.78146675190709 0.42611605737047353
1.5972439321967844 13.030965772835383 239.4105031238073 68.86195057405905 0.4337588448012418
1.6223361323929322 13.01819277291751 215.69743721891186 72.09876240472947 0.4416512873398818
1.6470880990961994 13.003886680778539 194.51186559426316 75.50136680701893 0.44980764392537714
1.6714415735573165 12.987994471100963 175.61041144952515 79.07996557678818 0.45824331430402443
1.6953763152507961 12.970490629719592 158.71571082268744 82.84423197164242 0.46696945798718087
1.7188398822236048 12.951277707523714 143.59401573093297 86.80697908244034 0.4760080600494881
1.7418568633257006 12.930445485970656 130.06886543411366 90.9802601482181 0.48537545573586377
1.7643369578388017 12.90783635036745 117.93833763127734 95.37728157555152 0.49509013731836027
1.786265166649626 12.8834405970721 107.0551331027733 100.01254291952169 0.5051730013281914
1.8076094881765106 12.857228256662694 97.29712995899517 104.90209064351258 0.5156479702429502
1.8283385866791746 12.829179962552287 88.52860507859195 110.0620260305586 0.5265360632555927
1.8484174902599269 12.799240418319052 80.64220667954645 115.51058005102571 0.537863045045405
1.8678160190235207 12.767393765112057 73.54567352838423 121.26773049681331 0.5496575067602204
1.8864962924049868 12.733606424467709 67.1546549313481 127.35472739821432 0.5619487645395734
1.9044317308193233 12.697846660281584 61.38946953587798 133.79449390307084 0.5747679812580415
1.9215706980889258 12.66003479301395 56.197286117172986 140.61152025325788 0.5881474003146147
1.9379247162305997 12.620303505925657 51.50705773864086 147.8339391461338 0.6021271189037771
1.953428312036181 12.578485505321334 47.26619847446947 155.49078059761987 0.6167449255881834
1.9680675424056784 12.534641633421277 43.43737802702632 163.61450252324457 0.6320445669931843
1.981805214460957 12.488714314661399 39.96599176930014 172.2395244405999 0.648070067497199
1.9946127434144547 12.440706752483097 36.825646345672 181.4048711957541 0.6648739671707534
2.0064688464572207 12.390610323537565 33.97936604973501 191.15222369990698 0.6825099150830721
2.0173514925095133 12.338446397269598 31.39789345645901 201.52744316428425 0.7010369184514289
2.0272066603611627 12.284120387424519 29.05370824985786 212.58102964527697 0.7205198375656469
2.0360314583031554 12.227699854421132 26.926938769465274 224.36679089371245 0.7410239178998309
2.0438175906853435 12.16922506302897 24.99339672084608 236.94715479192342 0.7626309117106964
2.0505076899429575 12.108603003852757 23.23647982349784 250.38726305065293 0.7854183220945606
2.055455334042742 12.047637675526536 21.714887307835735 265.0893242353639 1.0549565992161292
2.056767193152126 11.986875796746908 20.54311362257183 281.7840285554079 1.376508015526504
