M[M_sun], R[km], Lambda[1], P_c[MeV/fm^3], rho_c[fm^-3]
0.24162668629717493 15.618656898711224 2160425.4255784233 3.5677272577965504 0.1711233750220791
0.2536441406296483 15.277267849113715 1723280.192771764 3.7848213479893755 0.17388819476614475
0.26604007289802056 14.981259511583112 1382976.7655278118 4.011405148294214 0.17666670539712315
0.27881471476868314 14.723523225571277 1116408.151464963 4.247734696800456 0.17945758940221615
0.2919698267290023 14.498410625129578 905804.0057809956 4.494435169477705 0.18226741287066575
0.3055047760968577 14.30125027276481 738684.6035146507 4.751661756404068 0.1850918739404479
0.31942138618036964 14.128144320291312 605100.2993911424 5.0200974507479375 0.18793760693747638
0.33372101762061024 13.975931720898664 497684.2785010382 5.299965300881242 0.19080121518638202
0.34840085247076696 13.842028899276968 411007.7190242763 5.5919951202720934 0.19368901954389914
0.3634637242995229 13.723984675230557 340641.08781835117 5.896352683005858 0.19659605519160406
0.3789167902064691 13.620003489618805 283307.8510235059 6.2139027003335885 0.1995300161150734
0.3947481334419647 13.528472184032319 236409.49238980832 6.5449032984714455 0.20248709328987674
0.4109744334998125 13.447863192938398 197866.94254342729 6.8900554781344265 0.20547097426922786
0.42758207864797265 13.377063364363638 166085.69895051813 7.2500649741571 0.20848474421507032
0.4445769273739216 13.31493214872189 139799.68796341593 7.625191863597492 0.21152396744375948
0.4619586341688965 13.260567385828207 117982.6792974546 8.016382951662644 0.2145947718749914
0.4797234267624238 13.213154944873935 99814.19978441748 8.424344263449523 0.21769882128272283
0.4978810204662174 13.171981174095182 84645.45644312515 8.849518262598268 0.22083360669119156
0.51641839317182 13.136404962878617 71938.04128436047 9.292775063189188 0.22400249089390767
0.5353381903131996 13.105854445947072 61279.279071807556 9.755000988193178 0.22720841520064922
0.5546444371477277 13.079798478221145 52299.29611337798 10.237005621928557 0.23045273054150991
0.5743268009654502 13.057855227502248 44729.55193639415 10.739262121866457 0.23373215890294036
0.5943835372677786 13.039519639294193 38329.083823565335 11.263011235169552 0.2370528387946909
0.6148201894932905 13.024502503554219 32902.44189807452 11.809192443530783 0.24041640962302738
0.6356241106757885 13.012434394882828 28292.10991568718 12.378784752047842 0.24382450433803055
0.6567944136684735 13.003028605286541 24371.338783497078 12.972480022396862 0.24727510583331047
0.6783263327119438 12.995973415250292 21028.25469473123 13.591599348818031 0.2507729359650663
0.7002143186490963 12.991053474500607 18172.312447373763 14.237343130754569 0.2543206628063754
0.7224476298934286 12.988005296348316 15729.657194201249 14.910901055833742 0.25792027097746306
0.7450364987639407 12.9866512687798 13634.257800439837 15.613305500616983 0.26157168431023425
0.7679563645927978 12.986757681504196 11836.361849839172 16.345817260300134 0.26527674426236736
0.7912005020025216 12.988138499262927 10288.896469103736 17.110054942431805 0.2690401677310855
0.8147757549604717 12.99066679527602 8956.632354015925 17.90747359191933 0.2728643872932532
0.8386568015207658 12.99412832912112 7807.444133083611 18.739439143963068 0.27675048975631106
0.8628375934496215 12.99840546894277 6814.902293670191 19.60729481134218 0.28069894513674587
0.8873180517337682 13.003355034167276 5955.401173872586 20.513126981977464 0.28471611905905203
0.9120727715181783 13.008847549826118 5211.116989673624 21.458729775051943 0.2888050248540264
0.9370947542638396 13.014735609873558 4565.386978254488 22.445587970667713 0.2929655896170005
0.9623776674280513 13.020943154094807 4004.6041089761043 23.475725628184485 0.297201602409459
0.9878976852473997 13.027332009829635 3516.665253906409 24.551565683227437 0.30151916846379373
1.0136397244774495 13.033786965560589 3091.866910845708 25.675050932857182 0.3059199232484788
1.0396050753964274 13.040241814576524 2721.4940129907613 26.848141561697716 0.31040511914682456
1.065754294678016 13.046568514850152 2398.3344295483944 28.073934794851237 0.3149834947637807
1.0920866330065249 13.052702640288489 2115.8579926036764 29.35448520816906 0.3196554930671803
1.1185843408243765 13.058538552507466 1868.6235920629867 30.692549218424695 0.3244258041734931
1.1452146303260762 13.063997268575257 1652.1094523783715 32.09152622395707 0.3293024829317228
1.1719776525112795 13.06900444260783 1462.0640252803357 33.55335626458461 0.334283220496198
1.1988336545516376 13.073458635537204 1295.4280743318413 35.0825820899457 0.3393815865361574
1.2257795088047805 13.077330344144482 1149.0877565271403 36.681227272186845 0.34459434477440987
1.252775097061048 13.080497266612335 1020.2098749841191 38.35434435924711 0.3499359340703281
1.2798167164895657 13.082939203725383 906.7230461654985 40.10417112749575 0.35540292391961725
1.3068612435311415 13.084522250584193 806.766394367365 41.93618311611502 0.36100989936825123
1.3338979703145462 13.085234298184142 718.6055669699113 43.8538558577162 0.3667587448366051
1.3609048559731323 13.08503404813827 640.6260982513161 45.86188920359553 0.3726572783004038
1.3878364926445401 13.083777949419952 571.8053923672412 47.965610338011395 0.3787154246192692
1.4146930406772202 13.081486073292309 510.8333522151416 50.169767688191094 0.3849387943800705
1.441416338740563 13.078033445020727 456.8907202314767 52.479596109195334 0.39133443813384877
1.4680104207586409 13.073435509125366 409.03036344107073 54.90150360954129 0.39791400621355594
1.4944195119204584 13.067571679392714 366.53977384820234 57.44167934549031 0.4046865584490117
1.5206315661570535 13.060426566444189 328.84303358769847 60.1067505186921 0.4116618646594189
1.546614879241073 13.051940124337579 295.29229181685304 62.903821809054705 0.418850463110405
1.5723308676899026 13.042060123200143 265.46596999529464 65.84051858296833 0.4262637237434522
1.5977551046936784 13.030733919154073 238.92586445246585 68.9250342601318 0.4339139167363092
1.622841137316196 13.017914974399957 215.2396528001615 72.16618226987829 0.4418142870214012
1.6475937279513675 13.003574735241274 194.0942068905646 75.57345308191405 0.4499791354650294
1.671944134202293 12.987640256167332 175.24178048989978 79.15678362981012 0.45842268298641914
1.6958797926287366 12.97009620082223 158.3645439776743 82.92636414079354 0.46715819747268245
1.7193603885996975 12.950884551977307 143.2792493970799 86.89493097557626 0.47620722781428626
1.7423463575950886 12.929945521166978 129.78172684753025 91.07406838174444 0.4855841445258904
1.764825957225304 12.907301065736224 117.68103417567181 95.47784941731769 0.4953108056189031
1.7867525138435347 12.882863970695073 106.8212711864866 100.11995792383956 0.5054047982474413
1.8080914167877924 12.856611990050922 97.08430691031758 105.01690957029945 0.515891788474652
1.8288018415361262 12.828478486937254 88.33182547205433 110.1852437721568 0.5267943112762896
1.848882226901318 12.798515676700672 80.46680865386854 115.64258584967087 0.5381357234737069
1.8682592279470593 12.766578380042485 73.39021170161065 121.40915206331643 0.5499453892443984
1.886938948998687 12.732759951411305 67.01061169605575 127.5063583544695 0.562253086658893
1.9048612437891672 12.69694913596648 61.25738230648205 133.95664559472254 0.5750881190450153
1.922004460914893 12.659133847352305 56.07578704843193 140.7856803828334 0.5884867304767778
1.9383184496945158 12.619250689729151 51.39149272175406 148.02115014430626 0.6024872285730899
1.9538156049110769 12.577406864148378 47.16164202515856 155.69157114359132 0.6171254437722163
1.9684321252278607 12.533481029851572 43.340992733920764 163.83056569417923 0.6324488984165635
1.9821498287431756 12.48748496676291 39.88198036232242 172.47189037267455 0.6484991057844094
1.9949400344710237 12.439412169925705 36.74571403876373 181.65485876107894 0.6653293229872664
2.00677604897732 12.38925651464183 33.90442166397202 191.4214554333009 0.6829939161991434
2.0176253094316245 12.336985875568415 31.328904509928222 201.81770885672262 0.7015521114231574
2.0274627801168386 12.282603432158314 28.992892053801643 212.89357428820787 0.7210666157195025
2.036275251643815 12.22614115806922 26.870827394670954 224.70450566115676 0.7416076659152067
2.0440201511782408 12.167550957981337 24.94282245598094 237.31168416021387 0.7632524677698698
2.050680800656984 12.10684944004261 23.18844426357277 250.78195451826122 0.7860835640809395
2.0562545219948447 12.044108237774086 21.593554170584383 265.1884168434476 0.8101891339209313
2.0607039397861655 11.979261889005208 20.142352546926272 280.61279142079286 0.8356688243504748
2.064010917900934 11.912370653336733 18.8216674538739 297.1447984011065 0.8626295951057037
2.0661734039957 11.843473681870769 17.61931424430911 314.88481860732253 0.8911919682902513
2.067168165057816 11.772587078270359 16.524013414036773 333.9422418339656 0.9214817789969192
