M[M_sun], R[km], Lambda[1], P_c[MeV/fm^3], rho_c[fm^-3]
0.24162668629717493 15.618656898711224 2160425.4255784233 3.5677272577965504 0.1711233750220791
0.2536445991790682 15.277257573518261 1723184.2415065947 3.784830456147664 0.1738883082949439
0.26604043111954767 14.98127178340746 1383049.1706565446 4.0114242955271555 0.17666693678013332
0.27881701030025424 14.723465336439821 1116400.3098245661 4.247764530957074 0.1794579354334738
0.29197163549155153 14.498372052668211 905852.7385154624 4.494476473499624 0.18226787280053597
0.3055080671583818 14.301193105671556 738614.2099985756 4.751715932835243 0.1850924591493019
0.3194247742518894 14.128113153171837 605068.3589716327 5.020164898738702 0.1879383067364131
0.33372520040476233 13.975880508475536 497637.25682172104 5.300047796245439 0.1908020457778149
0.34840574909943695 13.841987584110695 410981.98027833854 5.592092869055039 0.1936899652902639
0.36346935324648594 13.723985743089363 340655.06210047944 5.896467881377783 0.19659713715909174
0.3789234698010089 13.619962263134347 283288.8598051023 6.214036742461045 0.1995312384178786
0.3947566050568559 13.528415345118496 236391.4169261534 6.545056045258863 0.20248843267285158
0.41098239106879814 13.447851768175703 197848.26243722203 6.890229878486463 0.2054724595358101
0.42759051667791903 13.377036338147885 166063.77808772522 7.2502626647450965 0.20848637965864106
0.4445871194967657 13.314891595109511 139788.61406311917 7.625412298093868 0.21152572224408955
0.46196953292600434 13.260539196366421 117969.99039614586 8.016629975148474 0.2145966828013642
0.4797352958767702 13.213137500151586 99797.54432952667 8.424619802317835 0.2177008929498163
0.49789376428470805 13.171953024150707 84635.31821945359 8.84982130095124 0.22083580081834542
0.5164320783804115 13.136382306576687 71929.19903998957 9.293110505361874 0.22400485242771576
0.5353523391193918 13.105820944936776 61267.80489982596 9.755371108738641 0.22721094924181967
0.5546613533038225 13.079793912064556 52299.58429659162 10.237412833618746 0.23045544241251278
0.5743437893244706 13.057820563389427 44321.93067850064 10.73970465539602 0.2337350001052799
0.5944012190246535 13.039506300805417 38323.5236179024 11.26349574592956 0.2370558660266873
0.6148402721754819 13.024497047964505 32897.439887444256 11.809721793993809 0.24041962895704433
0.6356460691204274 13.01243024626991 28288.77066610818 12.379361983278004 0.24382792216697663
0.656816603733902 13.003011307690944 24367.45760601511 12.973102483642894 0.24727866356654052
0.6783490863182466 12.995972433176059 21024.62702637489 13.59227587962872 0.25077670270736674
0.7002383493403925 12.99104824929996 18169.322606052872 14.238077358855374 0.25432464602965626
0.7224744887040803 12.988003744264041 15726.276359804602 14.911696842049919 0.25792447859916184
0.7450630440954535 12.98663927460507 13631.918544470687 15.614159189010902 0.2615760477990301
0.7679844811586672 12.986758136751886 11834.372012451333 16.346740412230947 0.265281345943208
0.7912311897290842 12.988147014422001 10287.028230913647 17.11105219137047 0.2690450170149774
0.8148058782408972 12.990665419630382 8954.736352546184 17.90854987854523 0.2728694941963349
0.8386903854876903 12.99413585444648 7806.174313414017 18.740589694383615 0.2767557759401827
0.8628710087344177 12.998419304743619 6812.844633851909 19.60853458637012 0.28070450722541107
0.8873545122907354 13.00336286783255 5954.288795740223 20.51446194909258 0.28472196909194036
0.9121111070096003 13.00885855202248 5210.154880152964 21.460166310392996 0.28881117568235487
0.937132557909585 13.014752110381666 4564.476790412188 22.447120089938654 0.2929719531681955
0.9624174080822554 13.020960846098038 4003.8461719353736 23.47737255954963 0.2972082910870838
0.9879386713567195 13.027339434803926 3496.653705754115 24.553335179254862 0.3015261978314915
1.0136828396697561 13.033800225390628 3091.4993615515873 25.67693614378548 0.3059271986405222
1.0396473366475634 13.04025269460975 2720.847409380152 26.850165536044567 0.3104127653574508
1.065800403760697 13.046582545408507 2397.7022180720187 28.07610700752042 0.31499153072299446
1.0921331705878987 13.052709860268548 2115.2176640743664 29.35679796010328 0.31966381755410656
1.1186325761876932 13.058546387201895 1867.986654589198 30.695030123297805 0.3244345557261916
1.1452648576586353 13.064008048773795 1651.7200636810019 32.09416718421983 0.3293115570110616
1.1720282885272135 13.069012030033953 1461.7596431444088 33.55618826038987 0.3342927646140528
1.1988858542915934 13.073475462607044 1295.0997358492034 35.08561848873031 0.3393916270837685
1.2258331525224404 13.077341418897698 1148.807232284883 36.684459262096745 0.34460477067355794
1.252829933915252 13.08049556793427 1019.9125331806067 38.35778505737528 0.34994676849888584
1.2798728159400847 13.082942825069708 906.4755091043775 40.10785964362696 0.35541433495627356
1.3069168047748236 13.084518578935258 806.6167897730946 41.94011062695353 0.3610217728285314
1.333955931970489 13.085237162632124 718.4542429149699 43.85806640020386 0.36677126074641064
1.360964456222942 13.085031727956512 640.469304679931 45.866373954728196 0.3726703193474902
1.3878966778325788 13.083769423317401 571.6830941967362 47.97038845477649 0.3787290246819923
1.4147464397226277 13.081460247860274 510.7302666966404 50.174891567923154 0.38495315205574293
1.441477978522431 13.078024047428036 456.7730199919311 52.48505761736964 0.3913494333890451
1.4680737077566515 13.073424994025041 408.9186861415517 54.90732693081273 0.39792968154711716
1.4944825438428202 13.067555555451632 366.44674329651565 57.44789062358661 0.4047029596452993
1.520694542445233 13.060405815732711 328.7511921102834 60.113378031822975 0.4116790410581409
1.5466785894240733 13.051916506695362 295.2149419968581 62.91089616282551 0.41886846790318777
1.5723948466373987 13.04203402094456 265.398607965973 65.84807292274553 0.42628261430002096
1.5978085624534368 13.03069575063758 238.85196875145616 68.93310450504818 0.433933754963489
1.6229066151235456 13.017875783029538 215.18259759353478 72.17480737093236 0.4418351397585252
1.6476580132741057 13.003537318142913 194.04910155897036 75.58267530692461 0.4500010749197783
1.6720069961396749 12.987598158594027 175.18475841105064 79.16660071904856 0.4584455861432976
1.695944048973047 12.97004465568464 158.32525112647903 82.93687188280089 0.4671823442332118
1.719424912729165 12.950828792163763 143.24358812860473 86.906183465605 0.4762327091678709
1.742403453696263 12.929875648061676 129.7532811309009 91.08607030340195 0.4856108443838298
1.764888609519786 12.907234674255447 117.64583647417828 95.49071639880282 0.4953390386493388
1.7868156659654448 12.88279216902972 106.79764741026918 100.13370116908857 0.5054344555744549
1.8081529000198662 12.856531543630357 97.06017573695598 105.0316003503332 0.5159229843768468
1.828862312286518 12.828392526366365 88.3067159815419 110.20095982672157 0.5268271693657921
1.848941760081486 12.798420654801818 80.44421506370757 115.65947626010939 0.5381706132332403
1.8683165070496612 12.766479203569345 73.36576281677071 121.42724756241726 0.549982225049307
1.8869953851613692 12.732654153551241 66.99126314328862 127.52571293309646 0.5622918566084505
1.904916955548074 12.696833420774185 61.24234622471998 133.9773943291263 0.5751290834891533
1.9220572253085229 12.65901112103019 56.06056085496526 140.80796613983546 0.5885301516062629
1.9383697857948148 12.619119313910241 51.378985939091116 148.04510639279738 0.6025333096089602
1.9538641849793905 12.577270775102699 47.15261285531639 155.717265564015 0.6171741372709669
1.968479999050322 12.533333688796457 43.3289497779809 163.85815400629838 0.6325004336128769
1.9821944018420874 12.487324926649025 39.870003352515376 172.501626619855 0.6485540105135341
1.994980947309547 12.439246296672584 36.73644163773704 181.68685074725872 0.6653875968336869
2.0068156093788283 12.389081346983932 33.89491825878456 191.4559109276846 0.6830558572546286
2.01745014443337 12.337442160110175 31.3607797947231 201.96731246378891 0.9491162802025808
2.018299727845274 12.294498861698063 30.189922331190438 216.01136531653034 2.011753581769454
