M[M_sun], R[km], Lambda[1], P_c[MeV/fm^3], rho_c[fm^-3]
0.24162668629717493 15.618656898711224 2160425.4255784233 3.5677272577965504 0.1711233750220791
0.2536435416675846 15.277306946651894 1723202.9602583037 3.7848116327318078 0.17388807367014594
0.26603862867264283 14.98131916036407 1383067.4183360033 4.011384724885083 0.17666645859227686
0.2788135232423744 14.723536370658213 1116499.3440607938 4.247702874285302 0.17945722030899589
0.2919668402224469 14.498476254525295 905977.4227989153 4.494391112810904 0.1822669222894559
0.30550312162812504 14.301235147360384 738709.1024247494 4.75160396966014 0.18509124973332583
0.31941816256135636 14.128177709616528 605125.9780095451 5.020025508257893 0.1879368605063749
0.3337154494861447 13.97597595666293 497710.74269211915 5.299877308602084 0.19080032925013649
0.3483956238434624 13.842072047545184 411033.0789493055 5.591890858512071 0.1936880107826895
0.36345772324293313 13.724031019885611 340682.30870063277 5.89622980938931 0.1965949011365946
0.378909102880497 13.620059192615928 283327.50230343937 6.213759727926557 0.19952871237887126
0.39474278540504404 13.528472396302755 236411.67641802345 6.544740375719033 0.20248566467743592
0.4109648049626503 13.447946036876107 197885.16736471694 6.889869459841352 0.2054693900593845
0.42757237062650727 13.377121642193195 166100.12437429675 7.2498541147684215 0.20848299982938642
0.4445659185959935 13.314976213886753 139812.60757792162 7.624956745909402 0.21152209575578212
0.46194833387898915 13.260588220939248 117998.01619138318 8.01611947469072 0.2145927336676016
0.4797114943424401 13.213179710715025 99829.44412709371 8.424050372664766 0.21769661163487325
0.49786662302218876 13.172019442927906 84655.19118296813 8.849195041623528 0.22083126643323275
0.5164038663643101 13.13642797775432 71946.34833904289 9.29241728134439 0.22399997208741518
0.535321897014559 13.105859968797438 61284.491179755016 9.754606219656063 0.22720571240628096
0.5546281346757251 13.07983578285634 52306.67170536441 10.23657129347511 0.23044983808344205
0.5743078158517761 13.057859288157687 44736.925168561545 10.738790120653581 0.23372912850894603
0.5943642515381775 13.039536622841108 38335.00829666941 11.262494463048125 0.23704960999312458
0.6147987817385628 13.024518378742492 32906.36395797123 11.808627847700691 0.24041297593837307
0.63559993301663 13.012436101852282 28298.686627840176 12.378169089254463 0.24382085895294694
0.6567707754808584 13.00304279998361 24374.16639893855 12.971816119858342 0.24727131123864632
0.6783007949923685 12.995990966589313 21031.307556130625 13.590877779069935 0.25076891845802896
0.7001881044358607 12.991070969328787 18175.956969392024 14.236560024913357 0.2543164144189673
0.7224200069095625 12.988002148738907 15732.863274210267 14.91005229643524 0.2579157832665809
0.7450065160480203 12.986642021228366 13636.198444469275 15.612394986876417 0.26156703036796014
0.7679260889789231 12.986759648722423 11838.05578203251 16.34483266211319 0.26527183628735124
0.791169552558 12.9881302783093 10291.163400052812 17.108991318377363 0.26903499568748207
0.8147422494605905 12.990660651065653 8958.023246377123 17.906325672969164 0.27285894049991477
0.8386229654634303 12.994128239709603 7809.155760154645 18.738212021556755 0.2767448517637842
0.8628014753637151 12.99839662036706 6815.88948805177 19.605972530145337 0.28069301289493476
0.8872765114160805 13.003332196193522 5956.6602280416555 20.511703177986625 0.28470987972919987
0.9120348050877795 13.008834438413606 5212.279160477567 21.45719764847619 0.28879846473171294
0.9370533025446225 13.014722208716801 4566.2319885493125 22.443953903719294 0.29295880263319335
0.9623295661454437 13.020929646652547 4005.290498368578 23.47396911485219 0.2971944686869056
0.987854152715618 13.027323360322978 3517.396956682368 24.549678455924056 0.30151167140562624
1.0135945250437794 13.033786292912021 3092.535336797835 25.673040296689948 0.3059121638162828
1.039555943494136 13.04023858191277 2722.080430447258 26.84598293673192 0.3103969642504064
1.0657061997749078 13.046560313852636 2398.8766663160136 28.07161807685804 0.31497492421653767
1.0920362167764783 13.052693802455273 2116.207998687099 29.352018607878737 0.31964661482063544
1.1185332750158452 13.05852812655318 1869.0548950053144 30.689903287816254 0.3244164704818198
1.1451621587780023 13.06398005138695 1652.5322985177268 32.08870959864522 0.3292928052845777
1.171923119104887 13.068995641831995 1462.4795230510488 33.55033590673588 0.3342730415788359
1.1987777040242467 13.073461077758019 1295.7759458982964 35.07934374453281 0.33937087820579437
1.225722070833983 13.077326102460834 1149.3474972674592 36.6777803364451 0.3445832254932812
1.2527172451043576 13.08048814702462 1020.4484743225901 38.35065733750039 0.3499242764177914
1.279756842888314 13.082935683103402 906.928539345581 40.10023732814482 0.3553907540586229
1.3068000653282321 13.084522050763558 806.9562386658796 41.9319944409201 0.3609972363685555
1.333835522450784 13.085240636221934 718.7919577044989 43.84936534616113 0.36674539671394185
1.3608424927065232 13.085037387240256 640.8038261986725 45.85710626455525 0.3726433701633878
1.3877727138001958 13.083780142282135 571.9711248030425 47.960514542804276 0.37870092034115127
1.4146284002063407 13.081491859386281 510.9674270258377 50.16430316169676 0.38492348217463007
1.4413508080562045 13.078042551398298 457.01838325402116 52.4737715259501 0.3913184460105401
1.4679441829263489 13.07344904233288 409.1383734378227 54.89529317981368 0.39789728885365067
1.494352699583213 13.06758666727151 366.646658770021 57.4350551905897 0.40466906703048566
1.520563482905784 13.060446563714477 328.9316238315207 60.09968248394272 0.4116435465692636
1.5465462838881563 13.051964009291998 295.37344498200196 62.896277258108675 0.418831261628429
1.5722623250771341 13.042088696399118 265.5422258887829 65.83246217137834 0.42624357769450955
1.5976859202016689 13.030767660216075 238.99175507843796 68.9164276858548 0.4338927601075432
1.6227730845116788 13.01795139061413 215.30306648553784 72.15698399808961 0.44179204854066895
1.6475247848118637 13.003619056871349 194.1546918549139 75.56361804119346 0.449955738136229
1.6718733009105162 12.987689736736275 175.28390034839487 79.14631422907627 0.45839825799428474
1.6958112446500995 12.970148264032858 158.4122834782935 82.91515823909789 0.46713244634322276
1.7192765949817248 12.950911132243892 143.32733081955027 86.8829308905099 0.4761800535257651
1.7422782832590964 12.930012765017569 129.81691193366714 91.06126911826458 0.4855556708758872
1.764758885969036 12.907370943228422 117.71393044902332 95.46412768131292 0.4952806970661939
1.7866865925356807 12.88294500467662 106.8530918414671 100.10530176758274 0.5053731708980785
1.8080258464278869 12.856696178195138 97.11537445156489 105.00124299755939 0.5158585204746001
1.8287379790087 12.828571318600392 88.3583786891106 110.16848388962791 0.5267592708201806
1.848818571012589 12.798614761159822 80.48642069655438 115.62457369618741 0.5380985165801264
1.8682066995344158 12.766714561859846 73.40349852521574 121.38985486807539 0.5499061072265208
1.8868786244717186 12.732875918597335 67.02955903482797 127.48566778078904 0.5622115608426093
1.9048032160761283 12.697071013604846 61.27645308564825 133.9345191481688 0.5750444345693175
1.9219477805900276 12.659266755651739 56.092901387519 140.76191496497404 0.5884404264052561
1.9382638099302885 12.61938781102132 51.40700191440608 147.99560344411665 0.6024380882242476
1.9537635262175503 12.577558322910397 47.17466402764238 155.66417099448276 0.617073517746862
1.968383445964453 12.533643967937758 43.35295341082578 163.80114606104812 0.6323939422973803
1.9821024255152904 12.487653528629556 39.89238075315672 172.44018038978007 0.6484405567680925
1.9948961851601101 12.439589479908726 36.75779279714158 181.62074348250002 0.6652671815342999
2.0067284650815647 12.389426796588895 33.91486465215122 191.38471333189386 0.6829278644827887
2.0175869581258103 12.337182626047126 31.338188609531326 201.77809556303225 0.7014818017343862
2.0274278307668476 12.282810006194774 29.00018991429577 212.85091982888736 0.7209919942948565
2.036242092054255 12.226358565085869 26.877635498007507 224.65841525729627 0.741527997554877
2.0439927949795966 12.167777976830502 24.949756908056344 237.26193328261326 0.7631676379533673
2.050657646193427 12.107088406896908 23.194920088210903 250.7281512649937 0.7859929825699417
2.0562352485788207 12.044357073490586 21.599341505449274 265.13011676752865 0.8100921192074391
2.0606886284267643 11.979521816238663 20.14784305537181 280.5497404450803 0.8355654060753201
2.064000507694792 11.912640692886905 18.826965393983716 297.0763929300947 0.8625187659856959
2.0661671916548063 11.843755326462045 17.623730638435873 314.8105093810067 0.8910730138344195
2.067167295385813 11.772877831422512 16.528411172566855 333.86153877562754 0.9213543149627891
