M[M_sun], R[km], Lambda[1], P_c[MeV/fm^3], rho_c[fm^-3]
0.24162668629717493 15.618656898711224 2160425.4255784233 3.5677272577965504 0.1711233750220791
0.25364579037986246 15.27722867601111 1723095.834047693 3.7848533385512786 0.1738885935130661
0.26604313195400864 14.981201720073608 1382910.8414047575 4.011472399361701 0.17666751808658485
0.27882083989032574 14.72339873275344 1116352.7761484224 4.247839484118762 0.1794588047771974
0.29197775259393394 14.49827977863805 905770.5591814735 4.494580243301026 0.1822690283013583
0.3055147655690538 14.301116865688158 738586.9181614587 4.751852043301515 0.18509392940210834
0.3194337639159426 14.128003565151404 604995.4254052094 5.020334353000643 0.18794006488978407
0.3337350275890061 13.97580215995073 497582.50941541843 5.300255056223098 0.19080413254188344
0.34841805650306135 13.841883671859792 410917.48538187303 5.5923384527453885 0.19369234138002578
0.363483337027818 13.723832751124966 340562.8550944119 5.896757306930757 0.19659985550513426
0.3789396468001151 13.619866820051392 283220.1827626767 6.214373513078378 0.19953430936041044
0.3947741016786895 13.528338469793207 236344.77128161158 6.545439811804056 0.2024917977870097
0.4110027973515079 13.447757141863738 197808.7960969058 6.890668050554422 0.20547619119301258
0.427613852130086 13.37693609240038 166031.6394239588 7.250759354973165 0.20849048864960706
0.44461185882960214 13.314818313186409 139750.79140472322 7.625966134158859 0.21153013113528232
0.4619947922557635 13.260459690253839 117930.05684391502 8.017250618592643 0.21460148398017354
0.479764639684918 13.213058924776135 99770.44927996288 8.42531209388171 0.21770609801457075
0.49792530057274387 13.171891973837452 84609.27992539752 8.85058268844089 0.22084131358908632
0.5164685452945927 13.136306518509107 71911.70537249696 9.293953312130721 0.22401078583991132
0.5353898913877466 13.105766951195227 61248.03261069848 9.756301050501682 0.22721731611537632
0.5547000130025275 13.079752832883626 52280.21623220373 10.2384287948343 0.23046216382271384
0.5743867536698135 13.057781095095837 44709.84766446937 10.740816547967903 0.2337421388000126
0.594447635860024 13.039468445217745 38311.099321509326 11.264713114972869 0.23706347217049978
0.6148884769928331 13.024462300050022 32886.75279658311 11.811051832769383 0.24042771781192052
0.635696593658197 13.01239933731075 28046.169739717418 12.38081233388528 0.2438365098005426
0.6568697476869507 13.002997037207294 24357.96241312636 12.974666485735211 0.24728760276115097
0.6784077541905035 12.995967312486254 21016.364044148715 13.59397574590632 0.250786167107379
0.7003011238689167 12.991035065032666 18162.011710024748 14.239922205830164 0.2543346544145323
0.7225396608178707 12.987998412723577 15721.016248441516 14.91369637207488 0.2579350508681324
0.7451313431935715 12.986652169713395 13626.384142751229 15.616304215654633 0.2615870117523804
0.7680548765561315 12.986769341004033 11828.79855353819 16.349059988557617 0.2652929084494266
0.7913055403535337 12.988142941654536 10283.359959339665 17.113557961606244 0.269057201727109
0.8148844323002968 12.990674588172222 8950.557592078641 17.911254259028762 0.2728823262883568
0.8387721715673163 12.99414322715601 7802.630943785206 18.743480689056994 0.27676905856486606
0.8629578233917728 12.998418843155552 6809.799499944033 19.611649791989233 0.2807184831883667
0.8874426596703329 13.003388622696361 5951.337564512832 20.51781636268933 0.28473666865243136
0.9122041889993991 13.008870672282724 5207.670813069449 21.46377595611297 0.28882663114002133
0.9372284634062632 13.014772122431221 4562.540366882411 22.450969929591707 0.292987943210348
0.9625174150161372 13.020992485770563 4001.7854088712224 23.481510915203735 0.29722509817902043
0.9880419152470795 13.02736384424461 3514.093024865157 24.5577815345708 0.30154386109037773
1.013789666205252 13.033828389230424 3090.000622043472 25.68167328523556 0.30594548018170004
1.0397583119503488 13.040284340124279 2719.449412552173 26.855251387859923 0.3104319787898022
1.0659135645945952 13.046614646959382 2396.5594188367095 28.081565382364207 0.31501172362502494
1.0922496529790062 13.05274244877995 2114.1504644119495 29.36260950963377 0.3196847355641067
1.1187533857218417 13.05857229848477 1866.9639723044922 30.701264246213924 0.3244565469987393
1.145391313283162 13.064026454307166 1650.7304633825484 32.10080353037499 0.3293343588427969
1.1721555769701009 13.069036537936924 1460.9688291411965 33.563304690312556 0.33431674771662684
1.199016885036514 13.073494010061975 1294.3674021911577 35.093248599048785 0.33941685779006414
1.2259665311181873 13.07735528438898 1148.128662147381 36.692580906932506 0.3446309698425945
1.2529664862317782 13.08051991402323 1019.3551124391794 38.36643120380717 0.34997399438512367
1.280013308067338 13.082950975848004 905.994390466592 40.11712858700783 0.35544300997054007
1.3070669362366176 13.084552589085634 806.1056743660222 41.94998019204678 0.3610516100190408
1.3341015860472483 13.085235628577284 717.9509474670648 43.86864726769728 0.3668027125566228
1.3611118327461151 13.085027216511724 640.0721449835306 45.87764394971569 0.3727030909620007
1.377738618638069 13.078157686740925 593.9888184278119 48.44048768770235 1.096543748674949
