M[M_sun], R[km], Lambda[1], P_c[MeV/fm^3], rho_c[fm^-3]
0.24162668629717493 15.618656898711224 2160425.4255784233 3.5677272577965504 0.1711233750220791
0.253644572351608 15.277260532129864 1723144.7529968694 3.7848415120654115 0.17388844610162507
0.26604214663631903 14.981239906258526 1353374.1781672833 4.011447537441242 0.1766672176449486
0.2788179472943825 14.723470052035264 1116379.0834618644 4.24780074535103 0.17945835546586977
0.29197428378955254 14.498322750875468 905801.4777563486 4.494526610845947 0.18226843109152355
0.30551117438943354 14.301157369674357 738586.9166797617 4.751781695735948 0.18509316951413987
0.31942900781929473 14.128065128549885 605038.639791492 5.020246771807031 0.1879391562010971
0.33372679763448065 13.975909287057402 497633.7584132275 5.300147935215766 0.1908030540110855
0.3484117081501811 13.841937186441841 410948.6090343464 5.592211524141553 0.1936911133108668
0.3634759833475709 13.723889898189217 340617.74502469884 5.896607718615146 0.1965984505400178
0.3789304315955464 13.619968140024511 283243.97327329183 6.214199454350327 0.19953272215439097
0.39476468790374786 13.52838671680542 236359.85382575766 6.545241463054484 0.202490058536432
0.4109921902976815 13.44781235592768 197833.23027706394 6.89044158203538 0.2054742624920706
0.4276022627991115 13.37697621241375 166040.1721551098 7.25050264097055 0.2084883649204536
0.44459874812141814 13.314856236062793 139775.67597118876 7.62567988390258 0.211527852399184
0.46198095665135097 13.260495208459213 117958.39876650812 8.01692983835697 0.21459900248571093
0.4797513848103838 13.213068679993677 99782.41479634543 8.424954281599303 0.21770340776641947
0.4979086287968064 13.171925100743454 84618.25232434485 8.850189163173658 0.22083846429801116
0.5164496038058791 13.136346435481508 71923.04396895383 9.29351770431279 0.22400771913371612
0.5353697373628244 13.105801336220425 61258.77564647462 9.755820405793704 0.22721402536728544
0.5546781594584532 13.079789272956143 52290.938810497835 10.237905122379466 0.23045870824613682
0.5743632609103987 13.057823210403264 44716.109424717746 10.740241859271704 0.2337384491205667
0.5944231467124585 13.039496920345416 38317.563020097536 11.26408390900484 0.23705954088022524
0.614863397825513 13.024473272116328 32891.2327597729 11.810364391446605 0.2404235370217075
0.6356702059437928 13.012408967846438 28282.750602600947 12.380062707118945 0.24383207120483463
0.6568429776381282 13.00301119183092 24363.17810806383 12.97385811599822 0.24728298245122196
0.6783770167877439 12.99597719719513 21020.86066924792 13.59309715192544 0.25078127533148287
0.7002688552805119 12.991040424374729 18165.68783011068 14.238968675387516 0.25432948146534384
0.7225049968653213 12.988000620633013 15724.67803609343 14.91266289012771 0.2579295864595037
0.7450957587576319 12.986655039164802 13628.986894354603 15.615195530386716 0.2615813448887108
0.7680190987747185 12.986756650327248 11831.943481388671 16.34786108291585 0.2652869322054983
0.7912677569300645 12.988142267331702 10286.374718503886 17.11226281677959 0.2690509038763898
0.8148462176172802 12.990658437503729 8952.835494854537 17.909856457093454 0.2728756938181214
0.8387298346047426 12.994134154639594 7804.620787178486 18.74198643049431 0.2767621932199207
0.8629129255002748 12.998426051838871 6811.407252879488 19.610039643464113 0.280711259467402
0.8873972523803576 13.003367119155534 5952.808409393822 20.516082572288557 0.28472907091406674
0.9121565587655366 13.008860064895034 5178.261510245414 21.461910240993415 0.28881864268816626
0.9371794264078558 13.01475601840314 4563.227769421782 22.448980062744308 0.2929796784363223
0.9624662623906791 13.020962101778743 4002.7663934746847 23.479371919253254 0.2972164110809079
0.987988897629218 13.027354222422453 3514.95256279086 24.55548333839604 0.3015347314479803
1.013734058704085 13.033809068768125 3090.398885423695 25.67922478630778 0.30593603095278343
1.0397011613517193 13.0402698345462 2720.116682400131 26.85262264527729 0.3104220478736815
1.0658557239012267 13.046596064946618 2397.0984228303714 28.078744087260244 0.31500128642764225
1.0921901666180849 13.052728672973174 2114.6650900734694 29.359605663033587 0.3196739235607173
1.1186914403414738 13.058557861330245 1867.5128539711027 30.69804197580833 0.3244451802310857
1.1453245526662885 13.064015653901372 1651.1440695993651 32.09737335508015 0.3293225730983425
1.1720913541880207 13.069025340075482 1461.3378875759674 33.55962636367135 0.33430435137659464
1.1989493725944291 13.073479986843356 1294.7971149080824 35.08930475462302 0.33940381656572677
1.225897256184902 13.077349951857624 1148.4577091098963 36.68838299195178 0.34461742801868994
1.2528954691491392 13.080510897684615 1019.6365074182272 38.36196217731732 0.34995992184913727
1.2799406491684011 13.082944048322046 906.2423290340284 40.11233763914277 0.35542818837839785
1.3069933149883894 13.08455171091988 806.350322621291 41.944878785318956 0.3610361876936429
1.334025532628524 13.085237477188143 718.150386313741 43.863178189810434 0.3667864556287443
1.3610368753446302 13.085031053163164 640.2833432267354 45.871818663083296 0.3726861518197791
1.3879752981000097 13.083782500954518 571.4534735991983 47.97618934189245 0.37874553587929144
1.414820588861364 13.081458470416946 510.58461200872694 50.181112254149596 0.3849705831040832
1.4415525626853456 13.078014823427178 456.6241899499261 52.49168822596102 0.3913676385559627
1.4681479643040896 13.073409929504452 408.78336669332793 54.914396826719475 0.3979487124354051
1.4945590031802367 13.067537365144153 366.32575626923386 57.455431550622166 0.4047228718473586
1.5207715620900748 13.060385660313832 328.6636500797068 60.121424325676365 0.4116998944836614
1.546755814360577 13.051889422643857 295.1267867514322 62.91948498533132 0.41889032713930674
1.5724725824353676 13.04200152070953 265.30992329734323 65.85724451977825 0.426305549007445
1.597886824780493 13.03066114243698 238.77784316722665 68.94290249069816 0.4339578403124769
1.6229959967559489 13.017847329722052 215.10527190837075 72.18527904094294 0.4418604569090851
1.647737750665219 13.003485922606151 193.97387318390201 75.59387198474515 0.450027711550971
1.6720857738354922 12.987545150777994 175.13798422700236 79.17851965996766 0.45847339289610034
1.6960228580665597 12.969980875124453 158.26715246400673 82.94962939894623 0.4672116609681579
1.7195024176357931 12.95076183599929 143.19550972132836 86.91984524297973 0.4762636463719023
1.74248418140907 12.929816011414166 129.7021985209411 91.10064202810564 0.48564326110763645
1.7649654034517366 12.907152505113148 117.60396827656523 95.50633847613665 0.4953733169752496
1.7868768655613796 12.882674588076386 106.76216596616464 100.15038720258893 0.5054704633108457
1.8082279610665397 12.856436437873997 97.02899037674472 105.0494368830462 0.5159608602914497
1.8289407020398207 12.828299718943434 88.27880092148794 110.22004125718524 0.526867063561083
1.8490136323993895 12.798305711561214 80.41736532584692 115.67998362003223 0.538212974362295
1.8683865814163065 12.766356704212821 73.34295925991397 121.44921816948596 0.5500269491539697
1.8870615318816608 12.732525806882308 66.9680409814948 127.54918661492356 0.562338837324128
1.9049830275801338 12.696693161068904 61.219740064692466 134.0025865769486 0.5751788208084779
1.9221224852113925 12.658861773494165 56.041410966359656 140.8350247097196 0.5885828719902513
1.9384316030420592 12.618957245123898 51.361748354250246 148.07419336171506 0.6025892598408403
1.9539245926081628 12.577098105331002 47.136011505538804 155.74846311628264 0.6172332597554331
1.968538616133872 12.533155341408104 43.31630680452932 163.89165124015096 0.6325630067240949
1.9822473155216458 12.487139383563852 39.85648393020514 172.53773204033504 0.6486206752247655
1.9950306706972796 12.439042472974862 36.723584246445334 181.7256952651492 0.6654583526616341
2.006862939600073 12.388866789698332 33.88308990423716 191.4977468539195 0.6831310662009674
2.0177041076379765 12.336576680021151 31.309213654662265 201.89996272087083 0.7016981039183459
2.0275360628558707 12.282180758436908 28.97422627257395 212.98214359890463 0.7212215624296329
2.036339350722807 12.225690835841355 26.855074010794354 224.8002103605364 0.7417730937664901
2.0440775694856064 12.16708051147266 24.929009602059043 237.41499056969178 0.763428614687918
2.050730260837027 12.106353780180866 23.174681432918575 250.89360913343964 0.7862714362701041
2.0562961357315253 12.043587944035174 21.58195253933805 265.3094052927597 0.8103903502099663
2.06073571678264 11.978720997462421 20.131019867751505 280.743718845347 0.8358835757998349
2.064033276716429 11.911806957895184 18.81159748248043 297.2868460613761 0.8628597377675985
2.06618715648403 11.842887049547521 17.609677933773032 315.0391273719426 0.8914389862722099
2.06717243463819 11.771978304701234 16.51428676223575 334.1098296296624 0.9217464705334036
