M[M_sun], R[km], Lambda[1], P_c[MeV/fm^3], rho_c[fm^-3]
0.24162668629717493 15.618656898711224 2160425.4255784233 3.5677272577965504 0.1711233750220791
0.2536418720311401 15.277355686450287 1723189.6088396425 3.7848009970957883 0.17388794110207378
0.26603764476470015 14.981311782096952 1383111.772408704 4.011362366742134 0.17666618840731418
0.2788110451732479 14.723613381738298 1116611.5599534465 4.2476680373138365 0.17945681625262508
0.29196499061513775 14.49851835334681 905993.6805765425 4.494342882954608 0.18226638523881247
0.3054989984875939 14.30131638695162 738732.7737558878 4.751540709399901 0.18509056640178123
0.3194138471033585 14.128229015173334 605153.177147662 5.019946751701224 0.18793604337670222
0.33371050698549937 13.976030794506713 497728.68224326 5.2997809824349424 0.19079935940546738
0.34838989256501945 13.842114068343646 411061.6099073067 5.591776722333533 0.19368690648376435
0.3634517136226885 13.7240612995174 340696.34962975135 5.89609529912986 0.19659363778777245
0.3789029835909161 13.620109899510112 283355.1255592797 6.213603215976349 0.19952728517833804
0.39473328603315455 13.528531382397416 236452.4712935576 6.54456202467872 0.20248410077975285
0.4109560315111652 13.44795230371615 197903.01266753048 6.889665826870395 0.20546765583555257
0.4275629723459888 13.377123087784982 166120.01034168297 7.249623289192077 0.20848109026854886
0.444555554612567 13.315015616532156 139836.78558338477 7.624699365798586 0.21152004684460515
0.46193529776236886 13.260628315014067 118007.1558124751 8.015831051012311 0.21459050247726857
0.47969775216854094 13.213211037430948 99838.38301885212 8.423728656568908 0.21769419277958327
0.49785158609407215 13.172059984109188 84665.08162819933 8.848841219403361 0.22082870460918214
0.5163875167553793 13.136457884978213 71957.06220517744 9.292025627441213 0.22399721481952004
0.535303692001799 13.105892707258104 61293.66382588076 9.754174078838668 0.22720275374149962
0.5546082525043287 13.079868257135484 52315.74042338345 10.23609584918196 0.23044667180992107
0.5742883826599531 13.057889753882304 44743.364769514104 10.738273438726734 0.23372581125092765
0.5943417602507349 13.039561415844016 38339.98827381919 11.261928773902564 0.23704607555710625
0.6147763918078263 13.024528741072482 32911.80770248874 11.808009809883318 0.24040921723727013
0.6355756128620622 13.012451056506677 28071.650479094416 12.377495152863066 0.24381686852556542
0.6567451237691483 13.003035441024581 24379.616458780976 12.971089379691223 0.2472671574898649
0.6782740884861478 12.996004557362957 21035.33864007149 13.590087916062737 0.2507645207124219
0.7001594427999499 12.991073430710324 18179.070224627823 14.235702804426989 0.2543117639559921
0.7223896553607455 12.988001315144762 15734.250881200387 14.909123211766795 0.25791087084571773
0.7449740672912909 12.98665490576749 13639.367077740646 15.61139830615338 0.2615619359972284
0.7678922956837864 12.986749217410182 11840.070081641697 16.343754889348126 0.2652664638604321
0.7911344228096991 12.988126974002368 10293.180377591993 17.107827045076416 0.2690293342206756
0.8147056764823084 12.990650948103674 8960.196462620146 17.90506913208804 0.2728529783032808
0.8385835020277231 12.99412122891416 7810.152237853683 18.736868786100253 0.2767386802918703
0.8627625730210796 12.998392077206644 6817.5766976431805 19.604525136419813 0.2806865193521118
0.8872325879656754 13.003330207281989 5957.589880602821 20.51014466055433 0.2847030500641596
0.9119913433307616 13.008823502596227 5213.493938028603 21.45552056495782 0.2887912839457489
0.9370091703169732 13.014711103435193 4567.2882814085815 22.442165239808013 0.2929513735416167
0.9622845111606958 13.020913947398974 4006.519932364617 23.472046426383937 0.2971866600777496
0.9878056137952985 13.027308090476083 3518.203006775497 24.547612694118747 0.30150346511463694
1.0135450119669074 13.033767331777616 3093.634251095285 25.67083945726184 0.3059036703530719
1.0395049581051174 13.040225314065186 2722.792020127008 26.843620116918988 0.31038803794262504
1.0656564520898084 13.046559733590131 2399.449667232862 28.069082217829482 0.314965542971315
1.0919826023449315 13.05267694609197 2116.966537969588 29.349318696432345 0.3196368967971825
1.1184770797996457 13.058514674846855 1869.5352542805215 30.687007093530642 0.3244062539688086
1.1451059803754593 13.063967182788868 1652.996094567277 32.0856265732548 0.32928221231300203
1.171864446567868 13.068984478636045 1462.903441019109 33.54702989117491 0.33426189996553096
1.1987180471724983 13.073446635859074 1296.0997780332914 35.07579913735251 0.33935915715079434
1.22565991873109 13.077312918049037 1149.62031841975 36.6740074228022 0.34457105465790366
1.2526530576749066 13.080482042148798 1020.7174745743482 38.346612713742495 0.3499114639363961
1.2796919136103624 13.082923616657396 907.2147315288108 40.09593153669248 0.3553774333783413
1.3067340174964082 13.084516665792885 807.2126485834581 41.92740968575912 0.3609833759591165
1.3337682173504213 13.085230172820287 718.9365233290245 43.844450231778744 0.3667307864520874
1.3607728823731422 13.08503678116675 640.9787940876123 45.85187108855093 0.3726281469827121
1.3877028801018234 13.083783322394343 572.1448726241922 47.95493694733526 0.3786850447039595
1.414557140732881 13.081499063157315 511.12222405895875 50.158321995720975 0.3849067222884278
1.4412785278105265 13.078053134420404 457.12182368285187 52.46739628319724 0.3913009419825378
1.4678721421220768 13.073461128345826 409.25532392104714 54.88849563556194 0.3978789910870366
1.494278949915919 13.067603728958456 366.74611490078 57.42780483408169 0.4046499220947093
1.5204894990781648 13.060469558066172 329.03297390816937 60.09194631373066 0.41162349688523886
1.5464724762404742 13.051991158243311 295.47847683451033 62.888019556980865 0.41881024512254234
1.5721886858161263 13.042120240428355 265.62292403687303 65.82364425859342 0.4262215274180864
1.597610152823433 13.030802507798027 239.06862237549754 68.90700764413282 0.43386960381803025
1.622691370510296 13.017963521255766 215.3784504845076 72.14691637249834 0.4417677082403522
1.647448842882066 13.003667612053933 194.21733002272987 75.55285350670772 0.44993012956378875
1.671797982135031 12.98774392416331 175.34252754836857 79.13485542113118 0.45837152472644616
1.6957362206173174 12.97020757395377 158.46022048371427 82.90289337863 0.4671042617295886
1.7192002005784972 12.950969016971392 143.3792795793453 86.86979685247323 0.47615031139168174
1.7422044863132682 12.930086153794342 129.86745493026334 91.04726043529377 0.485524506712688
1.7646847963163983 12.907449526484577 117.75210425202671 95.44910942775395 0.49524774366447244
1.786614053819931 12.883030705681673 106.89100345967698 100.08926086738829 0.5053385553313736
1.8079547896633488 12.856788908375348 97.14585953659714 104.98409628492169 0.515822109394373
1.8286669185168385 12.82867202020943 88.38692293814738 110.15009977448706 0.5267207678502706
1.8487493811800375 12.798720039521225 80.51503892278632 115.60485997994606 0.5380577948450522
1.8681394721782432 12.766834082911743 73.43019739949304 121.36873481063165 0.5498631145292029
1.8868124932539336 12.73300256849314 67.05205597546966 127.46302282826284 0.5621661126035764
1.904739376207404 12.697204511965149 61.29783950869387 133.9103027959177 0.5749966239708633
1.9218851560042993 12.659411836075519 56.10902291143745 140.7359049652538 0.5883897490346981
1.9382040634592685 12.61954010603893 51.42518201609788 147.96764406809163 0.6023843069733977
1.9537071077147143 12.57772779505059 47.195976749302936 155.63418326847912 0.6170166880042715
1.9683286277122254 12.533813969279034 43.36716711779089 163.7689217856158 0.6323337068748974
1.9820539263226766 12.487839272767713 39.90366925619938 172.40547619113676 0.6483764792597763
1.9948464751887816 12.439784104968467 36.76942548483791 181.5834070661406 0.6651991727342024
2.0066859295318777 12.389633490455056 33.928388765944064 191.34450229164014 0.6828555766134657
2.0175450857595227 12.337398368654577 31.34790139676374 201.7347424998766 0.701404854323712
2.027390240266428 12.283038063861381 29.009016338540793 212.80423874680505 0.7209103285345939
2.035763343959254 12.22768220505921 26.949287541274096 224.7788144545699 0.9706815197769507
2.0383131246403408 12.175621717159386 25.594172367297848 239.16498785330853 1.5276390459156528
