M[M_sun], R[km], Lambda[1], P_c[MeV/fm^3], rho_c[fm^-3]
0.24162668629717493 15.618656898711224 2160425.4255784233 3.5677272577965504 0.1711233750220791
0.2536444363890496 15.277257271280511 1723180.9668501595 3.784827252279232 0.1738882683602695
0.2660408196372366 14.981239601110783 1383041.6561323898 4.011417560325472 0.1766668553891958
0.27881627576914114 14.723498250079869 1116361.6269324545 4.247754036528063 0.17945781371391203
0.29197144572503714 14.498397111149306 905899.4626331177 4.494461944428697 0.18226771101595918
0.30550847995888075 14.30112692885321 738615.0164149227 4.75169687575543 0.18509225329646892
0.31942453884862926 14.12809528809833 605078.0250491343 5.020141173236692 0.18793806057517254
0.3337243924439141 13.975917100393831 497677.60306754604 5.300018777650178 0.19080175360871118
0.3484040265942837 13.842002119051939 410991.0311845745 5.592058484879394 0.19368963261390576
0.3634667533725693 13.723965463741 340631.1146817984 5.896427359082552 0.19659675656511952
0.3789216080593534 13.619975231020577 283288.88948616537 6.213989591620299 0.1995308084589843
0.3947525469845325 13.528460759721334 236394.7808324406 6.545002314792511 0.20248796152924797
0.4109794561305302 13.447869586122069 197857.73585395314 6.890168531065811 0.20547193707543235
0.42758798509075985 13.377035662647868 166073.42069114215 7.250193124636238 0.20848580437114209
0.4445838227003319 13.314915339963658 139796.52680987434 7.625334757466411 0.21152510497083654
0.46196565517563926 13.260549207312613 117974.81663884377 8.01654308142385 0.21459601060815367
0.47973123244530536 13.213133558798885 99803.44574908004 8.424522877844108 0.2177001642132718
0.4978886794010818 13.171965617177548 84634.5447796738 8.849714703077552 0.22083502900419413
0.5164280930056796 13.136383891520039 71932.8940589641 9.292992508891695 0.22400402172520947
0.5353464249363605 13.10583495318562 61273.43593588469 9.75524091354435 0.22721005785660323
0.5546544045741725 13.079792409939214 52300.00434199251 10.23726959095 0.23045448847221808
0.5743373654717181 13.05783028569581 44726.7016132099 10.739548987628636 0.23373400066999345
0.5943946598077902 13.039514792010916 38323.709723407905 11.263325311887586 0.23705480115170882
0.6148329286393819 13.024505876427552 32622.012992615786 11.809535586730789 0.2404184965062052
0.6356379995666086 13.012423955521848 28057.97444543069 12.379158933022278 0.24382671989134552
0.6568087748109759 13.003008197023819 24368.7170124648 12.97288352284017 0.24727741207638126
0.6783413154652416 12.995972577317328 21025.962627570512 13.59203789876375 0.2507753776936695
0.7002292576660054 12.991068404556616 18171.049262709203 14.237819081779524 0.25432324486391455
0.7224643449640314 12.987997182395388 15727.901311265005 14.911416910614019 0.2579229984961393
0.745052866918841 12.9866442391295 13632.332007820803 15.613858889262705 0.261574512865914
0.7679751295171804 12.986758383966217 11753.603374913275 16.346415677175212 0.2652797272204015
0.791221003983859 12.988141812604548 10287.758145583823 17.110701391054057 0.26904331119182967
0.8147960381593583 12.990657521111345 8955.4496719056 17.908171274943832 0.2728676977493177
0.8386787437501185 12.994136969273864 7806.615204845706 18.740184966820348 0.27675391642644115
0.862860502351136 12.998411569149027 6813.576229110498 19.60809847198036 0.2807025506551872
0.8873414083495379 13.003368925179759 5954.786184257942 20.513992348639185 0.2847199112299409
0.91209836318738 13.008847290696298 5210.463430996398 21.45966098087832 0.28880901200770986
0.9371186614423226 13.014739366011861 4564.699282067629 22.446581136486927 0.29296971466239063
0.9624034519336169 13.020953411440198 4004.0682484394515 23.476793218105733 0.29720593820934105
0.9879249630197675 13.027340900658329 3516.186785179307 24.55271272261181 0.30152372510674263
1.0136674592427475 13.03380217571032 3091.696095036754 25.67627298152866 0.3059246393696553
1.0396325707742502 13.040250795037847 2721.1321385149326 26.849453560167504 0.3104100756407924
1.0657844251659645 13.04658335018306 2397.8649919089808 28.07534288491939 0.3149887039012273
1.092115992284356 13.052711552177646 2115.422789997415 29.355984399139622 0.31966088923416636
1.1186153242202448 13.058547327778864 1868.3174708965623 30.694157409993842 0.3244314771734615
1.145247092732857 13.0640055279532 1651.905188133247 32.09323816712714 0.32930836499983557
1.1720107965438047 13.069009819445478 1461.8553523330002 33.55519204123514 0.33428940725278683
1.1988683068564987 13.073472233513028 1295.2082114176471 35.08455036505682 0.3393880950883493
1.2258139619758157 13.077339214159647 1148.8783194802245 36.683322333749054 0.344601103118701
1.2528101516383054 13.080494077505396 1019.998592213773 38.35657470997286 0.3499429572309475
1.2798541947569075 13.08293970710566 906.5708231851124 40.10656211895455 0.3554103208484121
1.306896997797081 13.08452618797927 806.6462067680436 41.93872902889624 0.361017596048293
1.3339358368022693 13.08523396967273 718.4912227937524 43.856585237202104 0.3667668579639683
1.3609437965828861 13.085031050491288 640.5320037074406 45.86479633057482 0.3726657318307562
1.3878757970174351 13.08377330538414 571.7242909728943 47.96870763030782 0.37872424051297254
1.4147329664284478 13.081480494463726 510.7526793800424 50.17308911042858 0.3849481013712082
1.441456366352816 13.078025187763394 456.81839401019784 52.48313638846066 0.3913441584142833
1.4680507221283075 13.073428447561321 408.9448379542406 54.9052784226234 0.39792416733148767
1.4944602331377512 13.067561566589891 366.46835414591015 57.44570563905929 0.4046971900823265
1.5206727859451892 13.060414606638695 328.78497290610864 60.11104662299897 0.4116729987905883
1.546656229756368 13.05192441530242 295.2446629829466 62.90840756297773 0.4188621342187227
1.5723721693956423 13.042042930671423 265.4248661652409 65.845415471667 0.42627596901646103
1.5977975695874764 13.030713389116478 238.88920661339583 68.93026556672827 0.4339267763025037
1.622883570251589 13.017891387004981 215.1996238614194 72.17177324275583 0.44182780420652773
1.6476355905246998 13.003551092040723 194.06623209128995 75.57943111942264 0.44999335707459287
1.6719844721959922 12.987618260555434 175.1966438215344 79.16314726724714 0.45843752927975495
1.6959219199446727 12.970061334921528 158.3402492650094 82.93317546896068 0.46717384988497274
1.7194011560206113 12.950849952035885 143.25186693291926 86.90222505936543 0.4762237453253112
1.7423842733813089 12.929906749113343 129.756300465303 91.08184825718877 0.4856014518850848
1.764866358599244 12.907257545578947 117.65750882260207 95.48619003519627 0.4953291067968982
1.7867936181677646 12.882821382447087 106.8106102030383 100.12886654670251 0.5054240226690899
1.808131585979097 12.856558976590742 97.06929369782975 105.02643239638938 0.5159120102158147
1.8288410343380257 12.828422643471251 88.31644040718811 110.19543119272332 0.5268156104627613
1.848920127037364 12.798454040248863 80.45003785457592 115.65353449957813 0.5381583396063266
1.8682961472005115 12.766513725667082 73.37654512269378 121.42088186376331 0.5499692668196159
1.8869748333912677 12.73269087841119 66.99832778049885 127.51891175733228 0.5622782445936331
1.904897367803102 12.696873227408762 61.2469938374269 133.97009524719178 0.5751146728350697
1.9220378493056056 12.659054964223438 56.065213069351145 140.8001263459547 0.5885148767064602
1.9383518786792293 12.619164335752242 51.38355121213306 148.03667893260334 0.6025170989699847
1.9538501143727414 12.577317219344492 47.15803016228736 155.708226627771 0.6171570075819743
1.9684631611852084 12.533387989687881 43.331171284358504 163.8484488116877 0.6324823042286883
1.9821775086273643 12.487382278259277 39.873178034884035 172.49116579360816 0.6485346957416325
1.994966775333921 12.439305275099109 36.739457719966474 181.67559636395305 0.6653670968184447
2.0068024422454545 12.389142628538002 33.89873618986549 191.4437898934254 0.6830340671259708
2.017647924697867 12.336865507347689 31.322533379198983 201.84178873718693 0.7015948508356973
2.0274837882639614 12.282479169157055 28.98621234986518 212.91950292157074 0.7211119763123099
2.0362931721804656 12.226010893134113 26.86590073324115 224.7325230560462 0.7416560946492726
2.044036840433832 12.167412538540628 24.938383225472677 237.34192681799507 0.7633040342795246
2.0506952377557117 12.106703816652713 23.184029586936365 250.81464094826492 0.7861385628926855
2.0562674360662347 12.043955106201233 21.590819833270437 265.22385675845317 0.8102481079985161
2.060713394229033 11.979103754290632 20.13939805835768 280.651119534437 0.8357316913776415
2.064017377559971 11.912206880148547 18.818903422339037 297.18638168554287 0.8626969674774297
2.0661744452019817 11.843303777936702 17.615076372978084 314.92999100046774 0.8912642804069508
2.067169728456053 11.772405844479323 16.52156305143229 333.991301289737 0.9215592644884685
