M[M_sun], R[km], Lambda[1], P_c[MeV/fm^3], rho_c[fm^-3]
0.24162668629717493 15.618656898711224 2160425.4255784233 3.5677272577965504 0.1711233750220791
0.25364487603143837 15.277245029514638 1723217.7329653935 3.7848364141565543 0.17388838255865047
0.26604106085715795 14.981249516227983 1383013.890945219 4.011436820529754 0.17666708813739795
0.2788173029936715 14.723485822613613 1116393.163553659 4.247784046774839 0.17945816178755017
0.2919731495294792 14.498373770298459 905857.684016362 4.494503492326317 0.18226817366144196
0.3055104466137958 14.301149836435808 738582.3070613996 4.75175137218189 0.1850928419618827
0.31942828194250417 14.128049004204156 605035.5704271093 5.020209019747901 0.18793876450891267
0.33372449264275766 13.975933120018688 497656.44891038444 5.300101760614832 0.19080258910947162
0.3484088714810598 13.84191557954201 410966.70331741706 5.592156811609968 0.19369058395207284
0.36347311713310587 13.723919494710188 340622.1652949249 5.896543238808502 0.1965978449320284
0.3789275134710405 13.61994241411535 283269.6268900086 6.214124426825934 0.19953203799370753
0.39476082888724157 13.528409284523061 236377.34220784402 6.545155965608351 0.2024893088393308
0.41098763039089453 13.447813131356229 197845.01139066464 6.89034396394757 0.20547343113547098
0.4275963957160931 13.377010706491104 166060.03749760508 7.250391986031692 0.20848744950050285
0.44459349481426197 13.314871553548759 139781.01891871964 7.625556497857621 0.21152687016692917
0.46197653258967447 13.260518087114143 117961.32344188172 8.016791568800562 0.21459793285890597
0.4797426904649651 13.213111855146504 99796.09158497634 8.424800050119611 0.21770224816130382
0.4979013767842164 13.171947886933578 84628.43718257046 8.85001953836885 0.22083723614194922
0.5164415959445161 13.136364321314982 71927.76902275525 9.293329940786402 0.22400639726678465
0.5353619796546176 13.105813270061267 61263.43710392213 9.755613230212639 0.22721260693359302
0.5546698695530774 13.079777134972453 52295.3033270779 10.237679219614028 0.23045721643932385
0.5743549055633541 13.057816470116448 44720.27657017641 10.739994148499987 0.2337368587406811
0.5944132745189541 13.039500614634237 38321.156755699514 11.263812700117347 0.2370578463621883
0.6148528593440958 13.02450133550854 32894.914978744186 11.81006808195293 0.24042173496560448
0.6356585970697552 13.012431369218437 28285.133238796425 12.37973959453988 0.24383015803127805
0.6568308387537882 13.003014755655444 24365.32828947943 12.97350968413879 0.24728099095759465
0.6783641405665164 12.995968412680401 21022.914824360934 13.59271845228769 0.2507791668333596
0.7002548498254985 12.991044703232607 18167.774479280462 14.238557677034066 0.2543272517792176
0.7224911709692787 12.988005366915854 15725.028111807816 14.912217431612516 0.25792723115241706
0.745080684300307 12.986646099269828 13630.189822602037 15.614717658263455 0.2615789023234018
0.7680029766183821 12.98676669148145 11832.983865111213 16.347344324837035 0.2652843562960828
0.7912511734240223 12.98814626056254 10287.343081821955 17.11170457870537 0.26904818935367014
0.8148280997246066 12.990671596057966 8953.892181594894 17.90925397298009 0.2728728350740831
0.8387116850646512 12.99413398719169 7805.543008028996 18.741342372804045 0.2767592341080783
0.8628943470573989 12.998409503615582 6812.051399791625 19.609345636556412 0.2807081458960944
0.8873772964306056 13.003366967128722 5954.001186461205 20.515335275217538 0.2847257961424313
0.9121357061331835 13.008861433196355 5209.632480346276 21.4611060840032 0.28881519952080753
0.9371577016386656 13.014759017203335 4563.733374873927 22.448122395994922 0.29297611617692676
0.9624433783972894 13.020962579838889 4003.3162081778987 23.478449977823118 0.2972126668028246
0.9879638716244589 13.027356567692614 3515.332101212597 24.55449278185522 0.3015307964370829
1.01371011776784 13.033810119514015 3090.8412404072837 25.678169449411776 0.30593195820445535
1.039676111889475 13.040260188698225 2720.4948624447757 26.8514896240402 0.3104177675234704
1.06582980941987 13.046588443297995 2397.316355317513 28.077528076886498 0.3149967878765079
1.0921638776195777 13.052724374232051 2114.9507734715817 29.358310973841895 0.3196692634745704
1.118663657493771 13.058558979967973 1867.6954189933058 30.69665314766948 0.3244402810498321
1.14529695803412 13.064012454982796 1651.5053254462032 32.09589492147459 0.3293174933460936
1.1720600080391819 13.069019272980972 1461.4681223538735 33.55804097945487 0.33429900846832517
1.1989206570981796 13.073478843545965 1294.946808652142 35.08760493545166 0.3393981957245491
1.2258674117845902 13.077341959206553 1148.6310210556305 36.686573671323934 0.34461159143042136
1.2528654871951923 13.080502868016396 1019.7838357129394 38.36003601111946 0.3499538565364351
1.2799096133869141 13.082939531411222 906.3738942115607 40.11027273005176 0.3554218002395118
1.3069540893944036 13.084525495184328 806.4794645489904 41.94268007334869 0.36102954065425336
1.3339936268658679 13.085238855945661 718.3297074246354 43.860821018622396 0.36677944889693426
1.3610028058238188 13.085029210831921 640.3774841457054 45.86930797260128 0.3726788510729089
1.3879357237278245 13.08376735397535 571.5811061005403 47.97351440600719 0.3787379221482739
1.4147859235609428 13.081463220939956 510.6274678089406 50.17824373492556 0.3849625451971001
1.4415189220107874 13.07802046665767 456.69768773092994 52.48863067795165 0.3913592436746932
1.4681135974077093 13.07341560360977 408.8570546037784 54.91113670852663 0.3979399367835494
1.4945253242880319 13.067545815545797 366.3969979839196 57.45195422383285 0.40471368978879624
1.5207363807643015 13.060394926199898 328.71760330390805 60.117713956629764 0.41169027839133654
1.5467204057843145 13.051904140879799 295.1723665953205 62.915524437082695 0.4188802472291364
1.572436942631339 13.042017375376723 265.3508127724885 65.85301523316734 0.42629497315563997
1.5978501318459728 13.030678650999539 238.8121662749087 68.93838435329758 0.4339467338544808
1.6229482634554482 13.017854884680839 215.1453209856108 72.18045024251198 0.4418487824181227
1.6477010558872094 13.003509519602872 194.0158879089314 75.58870885764145 0.45001542859394866
1.6720498107173998 12.987568870831682 175.1561607834761 79.17302347002186 0.45846057034783727
1.6959867811310556 12.970009338720072 158.29832647095657 82.94374650899961 0.46719814210419436
1.719466974699394 12.950792985084211 143.21873842046458 86.91354536198688 0.47624938024105395
1.7424481036840975 12.929849221573724 129.72091961386894 91.09392253406861 0.4856283127067609
1.7649304705457234 12.90718799616815 117.62889451753817 95.49913462100105 0.4953575101085394
1.7868557029705228 12.882750128453278 106.77791712905429 100.14269271323444 0.5054538589366346
1.8081935784700909 12.856479651588993 97.04444141665593 105.04121185006909 0.5159433944166825
1.8289074932529754 12.828347694062083 88.29572031004726 110.21124214852816 0.5268486669655122
1.8489799893518444 12.79835915375031 80.42904373807997 115.67052695207066 0.5381934401495316
1.868355006710564 12.766411995258617 73.35295498304852 121.43908673321052 0.5500063252624701
1.887030482025604 12.732585346699036 66.97870798694824 127.53836204402772 0.5623171728025019
1.9049523371325898 12.696758077553595 61.23013328123564 133.99096949620355 0.5751558850840157
1.922091217396427 12.658931641078656 56.04765342360131 140.8225469804164 0.588558560628528
1.9384032127599482 12.619032771552527 51.36741418185097 148.06078024079113 0.6025634590353988
1.9538972711629463 12.57717803391802 47.14371778699001 155.73407670419797 0.6172059960644325
1.968510474578818 12.533234909029401 43.32102567928775 163.8762043326294 0.632534151772472
1.9822220060353726 12.48722714117941 39.861796985042886 172.52108236659262 0.6485899334226378
1.9950073382514482 12.439132736397132 36.7294031475122 181.7077824546739 0.6654257242289782
2.0068414193797612 12.388966019961302 33.88951268951872 191.47845455047317 0.6830963841956856
2.017684612822127 12.336679531382675 31.314569304639626 201.87916256785928 0.7016611856985162
2.027517126277339 12.282286823517962 28.978889603907863 212.95974632127758 0.721182379732411
2.0363225628659336 12.225804908733112 26.858719941606605 224.77600858594576 0.7417312604229477
2.0440629574494045 12.167199516918904 24.932382117716422 237.38886636263203 0.7633840705150706
2.0507183082604863 12.10647887473736 23.177890789049343 250.86537369657296 0.7862239267844667
2.0562861726488393 12.04371875737695 21.58552829368218 265.2788491758654 0.8103395957685358
2.060727222253447 11.978858033885945 20.13394446174331 280.71060934153286 0.83582926850741
2.06402702570211 11.911949694928936 18.81376645122439 297.25092423847804 0.8628015379779913
2.0661845962836503 11.843035134902411 17.611888005896404 315.0001046822707 0.8913765186212175
2.067171465647673 11.772130530746656 16.51728837993631 334.0674486214652 0.9216795331163272
