M[M_sun], R[km], Lambda[1], P_c[MeV/fm^3], rho_c[fm^-3]
0.24162668629717493 15.618656898711224 2160425.4255784233 3.5677272577965504 0.1711233750220791
0.2536440923980814 15.27726931197469 1723275.8827531782 3.784823085991526 0.1738882164295031
0.26604066969899076 14.9812523482214 1383028.7031761277 4.011408801929244 0.17666674954914624
0.27881576743139835 14.723495445153684 1116366.1889999325 4.247740389684361 0.17945765543109046
0.29197024917916387 14.49838191619962 905840.7094718844 4.4944430510041995 0.18226750063329247
0.3055057054490958 14.30121538625051 738621.492371501 4.751672094196732 0.18509198560833867
0.3194219123279589 14.128138331304296 605129.6881840889 5.0201103209658475 0.18793774047095463
0.33372279986612663 13.975893593002693 497672.2785088947 5.299981042372375 0.19080137367707786
0.34840178678785577 13.842021016863674 411002.80576815736 5.5920137723475305 0.19368920000786
0.3634648277461781 13.723976279662102 340642.7921056351 5.8963746647222575 0.1965962616485363
0.37891770853067236 13.620000592500913 283303.53415755404 6.213928277712028 0.1995302493499676
0.39475065154100825 13.528456881948433 236413.8308286747 6.544932444964521 0.20248734886524603
0.4109759605904255 13.447882760585294 197861.7846298988 6.890088756428033 0.2054712576811409
0.4275840554591944 13.377046585652753 166072.4419587045 7.25010269654332 0.2084850562827041
0.4445790849792682 13.314926181382488 139804.22284105895 7.625233925823341 0.21152430228612318
0.46196071974133396 13.260563005499662 117978.60312170828 8.01643008741229 0.21459513650812254
0.4797257566156231 13.213146665916646 99810.79089144417 8.42439684029508 0.21769921658710034
0.4978827754181796 13.172000931501197 84638.77418120277 8.849576086687195 0.22083402536230173
0.5164210106399681 13.136410599566034 71936.25907286207 9.292839070319195 0.2240029415080933
0.5353403618523501 13.105838961486189 61274.82234711965 9.755071612366528 0.22720889873112352
0.5546467185192564 13.079821584073338 52297.79336847831 10.237083323520055 0.2304532480037978
0.5743289965134984 13.057853997091195 44729.14382418124 10.73934656326615 0.23373270104288307
0.5943873592666135 13.03951940459329 38328.215048750906 11.263103686287254 0.23705341643094735
0.6148234272253568 13.024501041319102 32899.74578379221 11.809293450545427 0.2404170239142029
0.6356283968279897 13.012430107145473 28291.57416418522 12.378894895214007 0.24382515650389036
0.6567986134362307 13.003013707161186 24369.579936626582 12.972598795918262 0.24727578469405342
0.6783302979161006 12.99597594283692 21027.18976592169 13.59172843935161 0.2507736547065718
0.7002190427995139 12.99106554863326 18172.44383613533 14.237483230491051 0.25432142285428333
0.7224527895848478 12.988008100234916 15728.958157579806 14.911052901439582 0.25792107384241975
0.7450412088698184 12.986640935442244 13633.92077402011 15.61346839450132 0.2615725169157192
0.7679615985973159 12.986751760814967 11836.188841698864 16.345993408449353 0.26527762231671176
0.7912068285852869 12.988143368206263 10288.655956128665 17.11024522893404 0.2690410930299095
0.8147817608003176 12.990665660789766 8956.259601926222 17.907678959478027 0.2728653617476347
0.8386642586518545 12.994132462506524 7807.259724287548 18.739658681678574 0.2767514984185219
0.8628452665743094 12.998409561570085 6814.547885156783 19.607531373821576 0.2807000064433988
0.887324960906117 13.00336035118992 5955.158486483068 20.513381707837784 0.2847172353072678
0.9120813436003748 13.00884860412977 5210.987737207672 21.45900388088215 0.2888061984958139
0.9371012917857445 13.014733579100191 4565.195987034721 22.445880314622837 0.29296680384735463
0.9623853232178815 13.02095201650662 4004.35696798284 23.476039879081828 0.29720287867572615
0.9879062042139806 13.027336269881324 3516.5237666595044 24.551903320277198 0.3015205097355086
1.013647567995171 13.033789860948355 3091.8794366770667 25.675410649085922 0.3059213114626829
1.0396123098233476 13.04024773234964 2721.382938972115 26.848527754840372 0.3104065781149759
1.0657632155806356 13.046581678264133 2398.1685756577663 28.074349272736303 0.31498502809770634
1.0920950513281895 13.052707467823181 2115.7421467215245 29.354926501781723 0.3196570814532302
1.1185933580185463 13.058538475268715 1868.56468866874 30.69302259651968 0.3244274740453973
1.1452244254718253 13.063993218826107 1652.0674480288542 32.092030141491946 0.32930421434273877
1.1719874742919745 13.069008730829166 1462.0157707723547 33.55389663262526 0.33428504159220934
1.198843085213767 13.073460538461761 1295.4503516395619 35.08316145900339 0.33938350235256387
1.2257882596333203 13.077333746893784 1148.9038069224766 36.68184396093745 0.34459633411685797
1.2527848272744362 13.080494921467203 1020.1417467031854 38.35500087044233 0.3499380013611444
1.279827064986402 13.08294032245636 906.6803469751873 40.10487492329473 0.3554051012286963
1.3068718587868484 13.084520131471047 806.7117968058756 41.93693251302121 0.3610121649086318
1.3339092510372637 13.085232743351584 718.5898579385811 43.854659257959995 0.36676113295761764
1.3609176334996615 13.085033092453893 640.6190526324629 45.86274492374286 0.37265976661835143
1.3878476937623652 13.083774267700015 571.7964978072434 47.96652203319926 0.3787180195980755
1.4147048825735304 13.081481864244495 510.8014384613551 50.17074535575147 0.38494153391231584
1.441428307622671 13.078031063948163 456.86984198576386 52.48063819706657 0.3913372993167066
1.4680224459030973 13.073433038398543 408.9976536330433 54.902614732109 0.3979169971556772
1.4944314744468115 13.067567297730829 366.5171047061116 57.442864490918254 0.4046896878858992
1.5206433828166297 13.060421136888525 328.8269150959605 60.10801508238791 0.4116651420049057
1.5466270704332719 13.051935864799606 295.27824237550004 62.905171630475934 0.4188538985132376
1.5723437170522212 13.042054381412418 265.4577210144105 65.84195998613832 0.42626732814951873
1.5977672962463585 13.030727187563398 238.91005285767292 68.9265740982853 0.43391770195713286
1.622854497510804 13.017906541097823 215.2338030537078 72.16782797470285 0.4418182658095771
1.647606420110819 13.003568989215985 194.09314508294398 75.57521271791546 0.4499833215973763
1.6719547839187352 12.98763277278617 175.22418861806193 79.15865676589159 0.45842705299146713
1.6958925656766117 12.970084602056529 158.35583825558803 82.92836905288516 0.46716280475482974
1.7193725574142982 12.950873874023959 143.27214923757617 86.89707798473722 0.4762120897336872
1.7423545105019547 12.929932936348605 129.77102077668397 91.07635838163945 0.48558923893273814
1.7648376490662214 12.907288009164356 117.67262091782828 95.48030446902139 0.49531619255052745
1.7867644942820902 12.882853837660114 106.81669159011301 100.12258016505596 0.5054104569302237
1.8081034255758348 12.856596559501746 97.08269701728582 105.01971259906165 0.5158977407121039
1.8288133741016344 12.828461965717477 88.32705348579938 110.18824242064971 0.5268005806526246
1.8488932871453 12.79849818414503 80.4592653450556 115.64580856132332 0.5381423804839085
1.8682704406782873 12.766559831540366 73.38414244738686 121.41260470177015 0.5499524175510393
1.8869495370392093 12.732740851621399 67.00834810841933 127.51006030475924 0.562260516443586
1.9048726293278349 12.696925936030402 61.254989215380945 133.96060446027906 0.5750959350748408
1.922014627557473 12.659110823366227 56.07282964557155 140.78993250516422 0.5884950152280787
1.9383280089269046 12.619222921036085 51.389375657527204 148.02572098790733 0.6024960208181702
1.953825479537506 12.577381249884544 47.160507469132476 155.69647362136598 0.6171347344583442
1.9684415905031947 12.533453057269833 43.33711191983434 163.83582951580001 0.6324587312790965
1.9821572431697552 12.487454910018068 39.87818201636079 172.4775640064748 0.6485095815288793
1.9949477679030478 12.43938071058579 36.7437762026668 181.66096277495242 0.665340441533174
2.0067841063833036 12.389222614976683 33.90289911722327 191.42802946702764 0.6830057344184177
2.017631981679387 12.336950316981158 31.325605064694845 201.82479663767452 0.7015646915351951
2.0274689390493026 12.282566593005216 28.99114149094648 212.90120623095515 0.7210799673467342
2.0362800658039 12.226103329763458 26.8691545778036 224.71275240834078 0.7416219206140415
2.044024958532626 12.167510243374517 24.941171455280315 237.32058588901035 0.7632676460351945
2.050684951287129 12.106806741155737 23.186804151014865 250.7915755433039 0.7860997526015294
2.056258623442699 12.044062302830945 21.592942676103505 265.1988483231402 0.810206492509196
2.060706883139775 11.979215453965441 20.14149274805871 280.6240730061929 0.8356873287762968
2.0640129369306606 11.912320584409667 18.82067162654745 297.1570381035646 0.8626494256168092
2.066174964985048 11.843423143096185 17.61824767930451 314.8981147151459 0.8912132527437333
2.0671687379307566 11.772535217986244 16.523110306841858 333.95668204439767 0.9215045861558208
