M[M_sun], R[km], Lambda[1], P_c[MeV/fm^3], rho_c[fm^-3]
0.24162668629717493 15.618656898711224 2160425.4255784233 3.5677272577965504 0.1711233750220791
0.2536451376916737 15.277262883365735 1723087.154102427 3.784855558223979 0.1738886211802155
0.2660434143633779 14.981186967975761 1382887.7907631558 4.011477065622833 0.17666757447559678
0.278821463085478 14.723412612564193 1116346.5409926595 4.247846754903272 0.17945888910734087
0.2919781275187041 14.498261216420456 905748.0402965834 4.494590309470204 0.18226914039048833
0.3055155245416702 14.301099693103364 738541.5681001036 4.7518652467298255 0.18509407202433323
0.3194348767013956 14.127976907753471 604974.2220765286 5.020350791021622 0.1879402354405962
0.33373622927036845 13.975792785340788 497573.42954135756 5.300275161700167 0.1908043349706765
0.3484192507169535 13.841873586951102 410911.2344569715 5.592362275952698 0.19369257187611003
0.3634854005546982 13.723819279057322 340553.8810190036 5.8967853832026025 0.19660011920342102
0.37894071822844755 13.619859233779074 283229.8238811062 6.214406182286269 0.19953460726425012
0.39477671501728717 13.528308157892994 236337.5639892673 6.545477040104362 0.20249212422891041
0.4110047455698955 13.44775200561876 197805.51996955695 6.890710556784967 0.20547655319390895
0.4276159597795394 13.376927431597823 166026.16842162792 7.250807538137407 0.20849088725657655
0.44461458795944325 13.314800842075778 139753.97519484378 7.626019861152981 0.21153055883670185
0.46199685080307806 13.260451240698067 116610.55960838412 8.017310826738202 0.21460194973885563
0.479768386366487 13.213040972913111 99767.24810176186 8.425379252828641 0.2177066029559652
0.49792832189015873 13.171899890668755 84606.68099059814 8.850656550620847 0.22084184838282808
0.5164713861764678 13.13631321756732 71909.93273912174 9.294035073119664 0.2240113614423707
0.5353925481566314 13.105776013453946 61248.290554421445 9.75639126484741 0.2272179337705404
0.5547043510220958 13.07974926503604 52279.35242404908 10.238527085438779 0.23046281241651984
0.5743907356966583 13.057777318344534 44709.11249815553 10.740924414294504 0.23374283133524218
0.594451139150735 13.039470432731443 38306.56866104437 11.264831214191656 0.2370642100565559
0.6148927027615438 13.024460288004912 32884.832106435104 11.811180862794611 0.24042850252975576
0.6357018201429483 13.012411340253378 28276.581095635745 12.38095303618255 0.2438373429092853
0.6568766275881965 13.00299807961281 24357.030624825416 12.974818214161509 0.24728846997861653
0.678413483825627 12.995951327109045 21015.53131320829 13.594140655560809 0.25078708528015325
0.7003046479862606 12.991044296687342 18161.03758992594 14.240101181243112 0.2543356253648824
0.7225450023183874 12.987991467495178 15719.272745202217 14.913890354622245 0.2579360765269826
0.7451379351498029 12.986649728197275 13625.508018266495 15.616512314096733 0.2615880754135793
0.7680628513119648 12.986765628848403 11828.166552662711 16.349285021712845 0.26529403018326514
0.7913129393058874 12.988147741313366 10283.04879884328 17.113801059276703 0.2690583838287606
0.8148915384429477 12.990689887828973 8950.11575306035 17.911516625938052 0.2728835712005812
0.8387790481245475 12.994149372849982 7802.118531452266 18.743761161346388 0.27677034718991556
0.8629658953822851 12.998427643727496 6809.31408074666 19.6119520174926 0.2807198390835966
0.8874522346084052 13.003383473431528 5951.139864975319 20.51814179654753 0.2847380947540573
0.9122130835434885 13.008873505686404 5207.425255136964 21.46412615313409 0.28882813058225326
0.9372373010117623 13.014772341791783 4562.312458161283 22.451343430725355 0.29298949452141787
0.9625260178392057 13.02098687261212 4001.505977292167 23.481912409015496 0.2972267287646854
0.988052469310497 13.027369724513234 3514.0347410765503 24.558212911569207 0.3015455747464081
1.0138006994305728 13.033827614084311 3089.79434160251 25.682132875276306 0.3059472538281793
1.0397691871409223 13.040291420624385 2719.3151488916287 26.855744811279152 0.31043384285462955
1.0659248066616287 13.046614992581793 2396.3771013441706 28.08209494974964 0.3150136827250572
1.0922621093507816 13.052739255975483 2113.9319358838043 29.36317334367073 0.3196867650204439
1.1187659848700626 13.058573866079286 1866.8641647895006 30.701869080715912 0.3244586805916374
1.145401939701032 13.064032723405345 1650.6358996911924 32.10144739079745 0.3293365710837908
1.1721684470865863 13.069034283008433 1460.8855121426086 33.56399513161789 0.3343190745750133
1.1990292756066907 13.073490167156189 1294.39676217511 35.09398888126625 0.3394193057026663
1.2259796600512944 13.077358698406979 1148.0218810606366 36.69336888123496 0.34463351172571843
1.2529790999143693 13.080517675712576 1019.2301918491182 38.367270069108606 0.34997663589153877
1.2800266695182247 13.082951029559414 905.9111564926814 40.11802788134001 0.355445792086769
1.3070806053751578 13.08455481585363 806.0676700625414 41.95093776368801 0.3610545049031837
1.3341148281266417 13.085239813169403 717.9097589716226 43.86967385662147 0.36680576410981813
1.3611262864012064 13.085027071437693 640.0258529921648 45.87873740420282 0.3727062705791147
1.3880673291367756 13.083777781401599 571.2484020814502 47.98356071839579 0.37876651719635207
1.414914155604953 13.081447299098492 510.3468062520274 50.18901712189299 0.38499273341463464
1.4416471300786498 13.07800091597867 456.44819405435277 52.50011403265743 0.3913907726642741
1.4682440821731497 13.073391161834394 408.6180960951097 54.92338089290287 0.3979728959258217
1.4946564216566527 13.06751187637222 366.1869837549961 57.46501422042856 0.40474817537523433
1.5208690314023077 13.060354017477962 328.5278333726212 60.131649237615484 0.41172639419190726
1.546853777450757 13.051858897027437 295.01743662540457 62.93039937008025 0.4189181051162248
1.572572564365363 13.041960836887778 265.2053005564859 65.86889952801029 0.4263346937902863
1.5979873035548644 13.03061195064475 238.6701069749357 68.95535355432057 0.43398844744166953
1.6230953609942431 13.017793038346477 215.00955189102692 72.19858627153829 0.4418926295386826
1.6478376140191582 13.00342537843128 193.89518409262547 75.60810061347331 0.45006156112152074
1.6721860363867467 12.987475288869446 175.06189962166968 79.19366619700862 0.45850872959372924
1.6961223524711044 12.969908314085686 158.2012788779899 82.96584167717936 0.4672489167363198
1.719601924646075 12.950675541624951 143.13651500233428 86.93720674994586 0.47630296164315666
1.7425863591458393 12.929748497526171 129.6447690604261 91.72787058461306 0.4870345966583534
1.7430448856290996 12.909090237353224 127.42814344047223 98.40180036244196 2.6915279511197205
