M[M_sun], R[km], Lambda[1], P_c[MeV/fm^3], rho_c[fm^-3]
0.24162668629717493 15.618656898711224 2160425.4255784233 3.5677272577965504 0.1711233750220791
0.25364372952356623 15.277278704764052 1723210.8931286233 3.784814870210436 0.17388811402375526
0.26603924284724273 14.981281578961033 1383043.3219120307 4.011391530702612 0.1766665408365652
0.27881393798918874 14.723535798603388 1116402.2275251294 4.247713478684218 0.1794573433040428
0.2919675544518081 14.49848844964343 905948.9984938969 4.494405794049436 0.1822670857684543
0.30550409052517985 14.301199425283569 738684.7802718016 4.751623226223331 0.18509145774096
0.3194194735346342 14.128156035702698 605113.8080016897 5.02004948198428 0.1879371092430392
0.333717136549642 13.975983951753065 497700.991326553 5.299906630640275 0.19080062447440702
0.34839736475933364 13.842057349774683 411024.0859463882 5.5919256020613695 0.19368834693608658
0.3634590152835627 13.724026701849803 340650.7220994642 5.896270754994292 0.19659528570638163
0.37891259905402763 13.620028711506363 283316.5579560049 6.21380737106956 0.19952914682696937
0.394744292510334 13.52847764698805 236414.07043218773 6.544794666923777 0.2024861407379577
0.4109682967362721 13.44791963528705 197884.26530852457 6.889931447171158 0.2054699179694971
0.4275761820564614 13.377076551770816 166089.17622804828 7.249924379882102 0.2084835811146645
0.44457022434461957 13.314950819249948 139814.74058762164 7.625035094591843 0.2115227194616724
0.4619502990900516 13.260597934089956 117987.08145755487 8.016207273495194 0.21459341286233646
0.47971501450079473 13.213177247256251 99819.17245581116 8.424148306204737 0.21769734795818527
0.4978726462640371 13.171987286282507 84649.05367683995 8.849302748795065 0.2208320462791744
0.5164085861437856 13.136417565389113 71941.56865527711 9.292536505137981 0.2240008114303548
0.5353267841827765 13.105862698824271 61282.649938305505 9.754737768405292 0.227206613058651
0.5546327955109766 13.079836669595174 52303.85033323819 10.236716024629771 0.23045080193647227
0.5743138996965815 13.05785349120803 44734.66462025483 10.738947405353308 0.23373013832543899
0.5943685631922815 13.039546907217032 38331.420856957884 11.262666666557593 0.23705068592376796
0.6148061745354487 13.02451233818682 32905.53824881444 11.808815987270611 0.24041412014086214
0.6356092822799632 13.012463486145265 28063.21048326751 12.378374245597229 0.24382207369887568
0.6567778867904341 13.003027723259649 24373.59975204352 12.972037350866545 0.24727257570436917
0.6783092087614856 12.995982113219295 21030.53167473025 13.59111822617228 0.2507702572030752
0.7001963499746495 12.991067409921884 18174.339712757388 14.236820977289113 0.2543178300983416
0.7224299330092588 12.987995588597382 15731.861944053673 14.910335126093289 0.25791727869359643
0.7450167111660931 12.986641329065188 13635.834004543463 15.612698394502498 0.2615685811864864
0.7679362562347956 12.986753081956328 11838.057960522769 16.345160756333865 0.2652734717547524
0.7911792840873875 12.98812856218821 10289.77955561854 17.109345745752414 0.26903671914778776
0.8147520614080709 12.9906696278898 8957.432195650827 17.906708189219973 0.27286075551217365
0.8386345849620253 12.994130014994868 7808.598149304298 18.73862093010486 0.27674673048698784
0.8628147368421014 12.99839447637069 6815.543692110257 19.60641314758311 0.2806949896674952
0.8872886374301701 13.003343522130505 5956.060256931258 20.512177624890786 0.28471195882909806
0.9120478295948602 13.008843290873585 5211.933885307499 21.45770819063111 0.288800650725374
0.9370666280637608 13.014726307389308 4565.969561729302 22.444498414449274 0.2929610642207683
0.9623447854223335 13.020930231256822 4005.1136387688966 23.474554427073826 0.29719684581375083
0.987868446724959 13.027321908759435 3517.1325709180987 24.550307324501652 0.3015141696019471
1.013609580886673 13.033778363012889 3092.337477775561 25.673710287435014 0.3059147494396009
1.0395717884900253 13.040241117339704 2721.8823928503402 26.84670224001804 0.31039968164869675
1.0657227509675142 13.046566699587034 2398.758837632958 28.072390059528782 0.31497778011612054
1.0920542101079675 13.05269112680851 2116.2236574396825 29.352840533991337 0.31964957324997556
1.118550000921387 13.058531313860993 1868.924360373407 30.69078496981277 0.32441958067219406
1.1451799294040819 13.063991657416858 1652.3436273582276 32.0896481590151 0.3292960300855642
1.171942268283129 13.069001451801496 1462.3327975057878 33.55134235405659 0.33427643341007574
1.1987970177133722 13.07345871311027 1295.6812138994362 35.080422828709345 0.33937444644462583
1.2257416191830979 13.077325152018574 1149.2850476217093 36.678928926200925 0.34458693066603563
1.2527357778561323 13.080488304605149 1020.3762648756327 38.351888647154624 0.34992817693684614
1.2797769109789725 13.08293673668643 906.8563133760613 40.10154814807338 0.35539480929756523
1.3068202676712461 13.084522387606023 806.8963195511008 41.9333901891783 0.36100145592699495
1.3338561707062735 13.08523895328949 718.752388096264 43.8508616703683 0.36674984456332743
1.3608646348629154 13.085031628093756 640.758446728098 45.85870002958534 0.3726480046155987
1.387793202367778 13.083778272207848 571.9094203804782 47.96221255564345 0.378705753433822
1.4146499519269173 13.08148958422568 510.92714924099437 50.166124040286775 0.38492858447710426
1.4413723256457127 13.0780391175199 456.97402089439004 52.475712379869975 0.39132377486822895
1.4679667662427065 13.073444235480862 409.09128768683763 54.89736260234804 0.3979028593669356
1.4943749727241746 13.067581750137776 366.60920597443135 57.437262471061395 0.40467489546703556
1.520586038011505 13.060439200441591 328.90256009639506 60.10203767002755 0.4116496504598872
1.5465690240231276 13.051957407809336 295.3459807909482 62.89879122436814 0.4188376598724285
1.5722850137988005 13.042080183985679 265.51029080402844 65.83514669470316 0.4262502906755539
1.597708983021714 13.030756013962776 238.9690502576006 68.91929552859332 0.43389980982119525
1.6227959777575605 13.017939969352147 215.2824511014091 72.16004899973699 0.44179945873484944
1.647548066995701 13.003604410995495 194.13947178112855 75.56689521961802 0.44996353446603743
1.67189657016133 12.98767302307543 175.27053921429263 79.14980278170242 0.45840639674764994
1.6958341509617592 12.970131329772103 158.39581671570969 82.91889219931382 0.46714102697292387
1.7193152553095399 12.950923757803197 143.3077892738852 86.88692947807569 0.4761891083592591
1.742300347245152 12.929990441331926 129.8056612759644 91.06553399762515 0.48556515866261885
1.7647811057492595 12.907347614157915 117.70222043385343 95.46869993384301 0.4952907296091793
1.786709237308582 12.882917073092786 106.84893767102812 100.11018537435699 0.5053837095096281
1.8080476535767833 12.856667670120416 97.10592798098479 105.00646328039466 0.5158696057561429
1.8287598798482358 12.828538964289317 88.35044883654639 110.17406846837441 0.5267709466887982
1.8488392125134818 12.798582483653796 80.4783641963384 115.63057553596256 0.5381109143100261
1.8682275006845785 12.766679944861401 73.39596178807894 121.39628488810837 0.5499191963909684
1.8868985050944478 12.732837630029955 67.02303321424527 127.49256207834948 0.5622253976428024
1.904822752641419 12.697029985708271 61.26942226355919 133.9418918824501 0.5750589906360025
1.9219662902172059 12.659221896109363 56.08646309615034 140.76983380694426 0.5884558553207975
1.938282477947844 12.61934251525376 51.40328917218283 148.00411581079655 0.602454462185073
1.9537812886617234 12.5775061405754 47.1734550526564 155.67330093154243 0.6170908198915096
1.9683993324202673 12.533588116208437 43.34782491482876 163.8109488901015 0.6324122540635193
1.9821172318932245 12.487597428243832 39.887800469044514 172.45074636048747 0.6484600656777445
1.9949106635402836 12.43953060938522 36.75426679926995 181.63211089403785 0.665287887432034
2.0067488237457995 12.389379685307176 33.908800378828225 191.39695599478654 0.6829498732646996
2.0175989374602503 12.33711712189997 31.33336362095307 201.79129489839212 0.7015052292526429
2.027439364725791 12.282741529744346 28.998131675446317 212.86513247030666 0.7210168584607042
2.0362532396628303 12.226285887815315 26.87553087907545 224.6737727394805 0.7415545433284422
2.044001910744228 12.167702285199764 24.947027400046967 237.27851041611675 0.7631959034887922
2.050665036722788 12.107008517848199 23.19182386681511 250.74610028865337 0.7860232350690445
2.056241679975061 12.044274138636014 21.596977832666617 265.1495424376022 0.810124444651049
2.060691905308212 11.979435984475698 20.145598125806355 280.57074908009264 0.8355998651264573
2.0640032322744046 11.912550736836089 18.824895545040363 297.09918563673693 0.862555694254479
2.0661694078895882 11.843661840311372 17.620508521754115 314.83526916228953 0.8911126493743792
2.067166911506426 11.772781613566318 16.526654078758504 333.8884289162396 0.9213967857919165
