M[M_sun], R[km], Lambda[1], P_c[MeV/fm^3], rho_c[fm^-3]
0.24162668629717493 15.618656898711224 2160425.4255784233 3.5677272577965504 0.1711233750220791
0.2536410819847059 15.277363810687213 1723254.274809376 3.7847824258379763 0.17388770962030423
0.266036075863564 14.981318654028046 1383077.9428481178 4.01132332661676 0.17666571663043895
0.27880841021632186 14.723636317989632 1116548.5415794735 4.247607207908418 0.17945611072319018
0.29196054590260334 14.49854359487211 906033.4769248099 4.494258668448023 0.18226544749073648
0.3054932050286948 14.301391162695374 738818.0999047684 4.751430250771712 0.18508937323778332
0.319406594575129 14.12832147180284 605198.5197834326 5.0198092356967985 0.18793461659508
0.33370143611427494 13.976167945082638 497810.2922871455 5.299612789173259 0.1907976659784053
0.3483805824081242 13.84218664024135 411108.56341888645 5.591577432301258 0.1936849782978793
0.3634394860568889 13.724164428607509 340762.0276733039 5.895860435646166 0.19659143190023118
0.37888989030630754 13.620161372241206 283398.0984188653 6.213329937488993 0.19952479320758207
0.39471815970542057 13.528624532359354 236495.2555574981 6.544250615342201 0.20248137014056497
0.41093956125068737 13.44805249951737 197942.37877784477 6.889310275811677 0.2054646278135353
0.4275437041700618 13.377207138342337 166143.92422038643 7.249220260731145 0.2084777561173789
0.4445357798474887 13.315059462906975 139865.07036593807 7.624249974252029 0.21151646939893676
0.4619120296723025 13.26070287872524 118035.20727618053 8.015327459073227 0.21458660678648314
0.4796730157060146 13.213285917693476 99859.64824757658 8.423166938232544 0.21768996944296162
0.4978244407169993 13.172110725796154 84684.839825016 8.848223446130108 0.22082423166672957
0.5163596199129462 13.136500139298978 71975.67522034154 9.29134180326468 0.22399240065468579
0.5352732867331057 13.105937673469743 61308.40704009879 9.753419568374245 0.2271975879634745
0.5545753278337847 13.07991061339097 52330.75729184127 10.235265735429513 0.23044114357615822
0.5742537689166003 13.057920879557974 44756.676195071064 10.737371328686754 0.23372001942503226
0.5943045642154219 13.03958731851132 38351.49288891167 11.260941103359825 0.23703990457368201
0.6147377851850717 13.024566940198008 32922.19495284387 11.806930745599916 0.24040265472604802
0.6355328699389858 13.01248580965875 28310.500053994674 12.376318497741853 0.2438099014632814
0.6566972548170891 13.003084142283395 24385.937987296737 12.96982053702317 0.24725990530548775
0.6782266677313283 12.996019459505213 21042.4813760637 13.58870887116127 0.25075684255987873
0.7001094066661914 12.991069893130149 18184.734295746388 14.234206164954966 0.2543036446138129
0.722338118389003 12.988007633136302 15741.076340913427 14.907501110493786 0.2579022941848316
0.7449195061643342 12.986646163397804 13644.13223374362 15.609658194600367 0.261553041701231
0.7678344995918552 12.986751610040612 11844.53212291742 16.341873207243882 0.26525708414708465
0.791073434567285 12.988123069799364 10296.685516986772 17.10579435110217 0.26901944991820675
0.8146403705164079 12.990653941789759 8963.214275629161 17.902875359079257 0.27284256900721643
0.83851676605203 12.994114981707748 7813.247702894016 18.734523663336443 0.2767279056661697
0.8626934861959091 12.998384014443285 6820.143317408855 19.601998177886625 0.28067518248284273
0.8871618874470134 13.003319118174753 5960.598555615629 20.507423707318736 0.28469112642519073
0.9119148608121941 13.008817055312923 5215.566968239321 21.452592625609245 0.28877874735735143
0.9369306496831684 13.01471124888962 4569.252701966133 22.439042509453365 0.2929384034975365
0.9622024106711619 13.020892232198669 4008.1641513003487 23.468689725732734 0.29717302751903213
0.9877220075561198 13.027284687516884 3519.7382575291513 24.54400622788884 0.3014891383363754
1.0134586207000125 13.033744327386994 3094.659815185456 25.666997183429956 0.30588884227837454
1.0394149109126993 13.040201268582738 2724.0121766198527 26.83949507406232 0.3103724542735071
1.065563809668012 13.046533194935519 2400.4066858481287 28.064655102313328 0.3149491651459634
1.0918859478338594 13.052654785875012 2117.7207790074885 29.3446051959627 0.3196199310895958
1.1183784841388724 13.058491555599282 1870.4045660911918 30.68195094789595 0.32438841808745217
1.1450042472831605 13.06395404959947 1653.6617574634922 32.080244281503624 0.3292637192886794
1.1717609828401654 13.06896986147478 1463.5918840481459 33.5412583362849 0.3342424492304794
1.1986115793529373 13.073425525923975 1296.7574775241528 35.06961108718928 0.3393386949464887
1.2255525979329953 13.077303571668539 1150.1538587903444 36.66742083080531 0.34454980733170426
1.2525410731533781 13.080468328501798 1021.2137560381544 38.339551818843276 0.34988909656925743
1.2795787583567682 13.082914176420385 907.6405771852828 40.088414741099854 0.3553541789239769
1.3066184079353924 13.084514237590604 807.6044545076332 41.919405926861884 0.360959179383406
1.333649934283807 13.085235727437112 719.3364152190242 43.83586980069916 0.3667052809734467
1.3606531273723024 13.085040421140441 641.3139300935687 45.842731959703386 0.3726015716374803
1.3875806609980934 13.083790090118422 572.4288760124216 47.94520009632885 0.3786573304828713
1.4144329053460793 13.08151446997519 511.39154081424937 50.14788068823141 0.3848774645941862
1.4411609515817707 13.07809138199203 457.3774676156576 52.45626709006511 0.3912703853879453
1.4677443120699758 13.0734875942675 409.4685384607591 54.87662929317285 0.39784704902744034
1.4941510861544423 13.067635963375842 366.9463192467902 57.415148089152375 0.4046165013148426
1.5203600557848518 13.060507653755899 329.2079356481944 60.07844156617744 0.41158849688991117
1.5451923838350408 13.051596375411275 296.861720384351 62.92664790286627 0.5211133670490572
1.5654439928186143 13.037468706585326 271.6954049214628 66.09683692207349 0.6641649089873787
1.5816487728355155 13.016589328695686 251.43525318351575 69.61319078330257 0.8040556705187172
1.5944473573568454 12.988723294524656 234.56580537608457 73.4872938373833 0.9415736183959786
1.6042911449149122 12.95393406979243 220.26186444917033 77.73632857935475 1.0767334554763957
1.6116475858616897 12.912450897439768 207.77264745454076 82.37609836618942 1.210250541360865
1.6169097680674274 12.86475302856252 196.63465339183853 87.42538253910126 1.3425732625431979
1.620346336292531 12.81107767276417 186.5656137882564 92.90469330776081 1.474153522671502
1.622215522851534 12.751761100231892 177.32565444953525 98.83668308038558 1.605362251132205
1.622773242741145 12.687201923008919 168.7093207340437 105.2446789199247 1.7354800154746022
