M[M_sun], R[km], Lambda[1], P_c[MeV/fm^3], rho_c[fm^-3]
0.24162668629717493 15.618656898711224 2160425.4255784233 3.5677272577965504 0.1711233750220791
0.25363053594187934 15.277645354041212 1723624.6274713723 3.784578534497737 0.17388516821310857
0.26601236243422777 14.981848461054446 1383642.5798244698 4.010894728206651 0.17666053727159425
0.2787723338597399 14.724304353430387 1117081.7828429842 4.246939424796575 0.17944836544542048
0.29191129665285603 14.499334770139292 906694.3197416562 4.493334200790433 0.18225515332881148
0.30543068690720687 14.302199638755923 739457.4581720112 4.750217735621341 0.18507627576003938
0.31932947503227294 14.12917395875886 605863.4240879529 5.018299765889226 0.1879189552632246
0.3336078458082768 13.977059777426756 498426.06108735414 5.297766656416782 0.1907790784848358
0.3482711144493376 13.843110091937382 411683.4710449948 5.589390052473528 0.19366381479631856
0.3633128057322293 13.725082379362698 341283.626857009 5.893282704260209 0.19656722130154816
0.378745359130088 13.621069271514168 283870.855113099 6.2103306971788355 0.19949744374727385
0.39455560102173126 13.529492775153269 236917.78756110198 6.540833005168684 0.20245140231630843
0.41075805684310224 13.448884310264681 198331.12605890122 6.8854083693811035 0.20543139754100107
0.42734243918219644 13.377999352600535 166496.584435329 7.244797487557172 0.20844116764837028
0.4443132990291705 13.315817123688374 140171.33537052947 7.619318581504613 0.21147721234179218
0.4616685239205191 13.2614194547813 118316.05603919664 8.009801498242238 0.214543859011908
0.479407384082083 13.213943799242442 100109.02610505465 8.41700337232455 0.21764362804384063
0.4975386931651687 13.172690961745122 84900.23684453541 8.841445020104988 0.2207751529661091
0.5160462801723824 13.137081071137745 72175.8881880819 9.283838909190468 0.22393957981265242
0.5349385856097622 13.106440252539198 61480.65183862715 9.745141399179433 0.22714091123527655
0.554215772920997 13.08034985057857 52483.70078970176 10.226158399656603 0.23038049227269383
0.5738655551596045 13.058311171657591 44890.313887124415 10.727474407117452 0.2336564781228747
0.5938969229467953 13.039940204757462 38467.94090440907 11.250105887680773 0.23697220595004198
0.6142985808985734 13.024846451514877 33028.165018809894 11.795093309636226 0.24033066336506298
0.6350682853823146 13.012722492039122 28404.93325632633 12.36341093066196 0.24373347480082155
0.6562018706698279 13.003258407847337 24471.028939579333 12.95590210690171 0.24718035326643437
0.6777067968546893 12.996152264695763 21117.686788848263 13.573582114111113 0.2506726208293242
0.6995606887124359 12.991182406698133 18250.82415583225 14.217790081434321 0.25421458655952617
0.721758800746826 12.988075096251016 15800.176417738849 14.88970950107313 0.2578082232392267
0.7443118907787429 12.986679056299412 13696.108848992646 15.590572767710514 0.26145548965883403
0.7671961114570329 12.98672542363903 11891.719971769031 16.321235761080125 0.26515421165400854
0.7904090394356915 12.988079746389442 10338.502495494295 17.083501451317588 0.26891104709556357
0.8139372996117483 12.990547887163093 9000.817123959074 17.87881671960756 0.2727284124831984
0.8377870316206113 12.993983916142785 7846.710200370663 18.708705982747674 0.27660885972390853
0.8619341492586978 12.998232693698903 6849.096312195469 19.57428733018172 0.28055086138550794
0.8863670143154726 13.003144310181726 5986.327680949593 20.477586551188207 0.28456037538070256
0.9110905564249324 13.00861064777829 5238.734018303912 21.42048686313829 0.28864127977986187
0.9360759072893055 13.014496250630383 4589.647255992041 22.40480179038861 0.2927961870442506
0.9613110512672942 13.020680756317082 4026.2698083414366 23.43188484545758 0.29702355196443925
0.9868001140895272 13.02706179612139 3536.0642705972327 24.50446419872589 0.3013320566259936
1.012505505681837 13.033505945654904 3109.4847443100543 25.62475933088617 0.3057254483120038
1.0384268915874486 13.039949937844815 2737.3892951575676 26.794270249709253 0.3102016030307148
1.064547772330011 13.046292238222152 2412.1707684977473 28.016120308376653 0.3147696138386457
1.0908389027262941 13.052415123077832 2128.323675689225 29.292932293394784 0.3194339403676752
1.1173012482260452 13.05827029499625 1879.701042702403 30.626523804292376 0.3241928952468012
1.1438989741013796 13.063732875210087 1662.1234855077607 32.02082484726115 0.3290582888078431
1.1706244446011553 13.068763080836371 1471.1747799500931 33.477993013316215 0.3340292385691472
1.1974450549327054 13.073238085997476 1303.5439117164842 35.001782964227836 0.33911440573210094
1.224358489876756 13.077147807808684 1156.341939971927 36.59522652904335 0.3443169196896579
1.2513209417191558 13.080337465441144 1026.7735938292114 38.26216186892348 0.34964394217347533
1.2783317176541789 13.082822151582107 912.5683884102136 40.00603065385654 0.35509931008079143
1.3053471748927294 13.084456021286805 812.010664725643 41.8315546588443 0.3606932486816952
1.332361928522332 13.085243093038628 723.3253609508785 43.74183530416083 0.36642576181867437
1.3593352047932525 13.085072384293765 644.9608893907009 45.74257804139997 0.3723103376479354
1.3862420468788659 13.0838778848385 575.672638576297 47.83830971300141 0.3783526330208828
1.4130662308772737 13.08163831364584 514.3126965262957 50.03346543386713 0.3845568604426358
1.4397837789119092 13.078295520163193 460.01023388382487 52.33431846482122 0.390935560153227
1.466346743567769 13.073748780574585 411.85748042362667 54.7466081538863 0.39749705550427294
1.4927429235332312 13.067983314304557 369.0964247078196 57.27647166222804 0.40425031914376913
1.5189400332914644 13.06093175957424 331.1576418924655 59.930479545315066 0.4112050265570933
1.544910025076434 13.052544213596335 297.389636725471 62.71567472211456 0.41837161381578564
1.5706173006082746 13.042768082471623 267.3591454650139 65.63961516805308 0.42576134002280513
1.5960335658264846 13.031548041134023 240.61701767393714 68.71042070871637 0.43338635500392575
1.6211265419722312 13.018854867766857 216.77139161940607 71.93682433807989 0.44125977286219065
1.6458676914875396 13.004629702991492 195.50767099121654 75.32822853813701 0.4493957520867924
1.6702156506048567 12.988820310526407 176.50785750175794 78.89476713692389 0.4578095829905103
1.6941562224489242 12.971424586670155 159.5326689377712 82.6469830659073 0.4665161805762836
1.717650989213586 12.952360160332137 144.33464245019027 86.59576427880985 0.4755297624389256
1.7406547591882247 12.93159164800711 130.74396805060007 90.75483691276972 0.4848737027503149
1.7631379675481078 12.90906547892158 118.55666892328092 95.13579348129451 0.49456025851788915
1.7850884306741561 12.884810293675043 107.61611786071289 99.75462529723237 0.5046164262887304
1.8064416238294 12.85870380473518 97.80993288728673 104.62574409044815 0.5150600461635314
1.827196878181427 12.830792828703721 88.98846875241858 109.76596039085244 0.5259151667029903
1.8472879315034991 12.800958564313463 81.06763325837024 115.19366701296359 0.5372084120670508
1.8667202411952006 12.769272874314634 73.93091579882996 120.92823078258277 0.5489664097548126
1.8854183287675776 12.735594951722046 67.50941154398191 126.99073899169598 0.5612182427120055
1.9032079491653648 12.700099093770078 61.76218398041623 133.4269986094944 0.6169829506117619
1.919543222971301 12.662402612376601 56.69381596940712 140.31215413712502 0.6853198046375313
1.9343723368817987 12.622053852584724 52.207840709050394 147.68123973754425 0.7553859093877111
1.9477064720643098 12.578880855164629 48.212103827032294 155.5706024560073 0.8274660476118577
1.9595471888600438 12.532753231406836 44.64307067589558 164.02044637428193 0.9018784370656584
1.9699346431060765 12.483568064014907 41.439749074504064 173.07535864096678 0.9789731334275655
1.9788446701201816 12.431290508333353 38.5559849117183 182.78334621830834 1.0590844185090968
1.9863434419874793 12.375962172338724 35.95066245381369 193.19862360327141 1.1426161250388933
1.9924304385210014 12.317614618561898 33.59429241704061 204.38055810400235 1.2299843129794015
1.9971337663860669 12.256240982287865 31.456475020325975 216.39433524420141 1.321628214573034
2.000470355983954 12.191971734330558 29.510411070377746 229.31336723134535 1.4180545406418403
2.0024647376805533 12.124847211480754 27.74062058838563 243.21829352612195 1.519794395043198
2.0030901445376057 12.054825422069463 26.126749012359173 258.1989783014945 1.627434091512399
