M[M_sun], R[km], Lambda[1], P_c[MeV/fm^3], rho_c[fm^-3]
0.24162668629717493 15.618656898711224 2160425.4255784233 3.5677272577965504 0.1711233750220791
0.25364097303107996 15.277378097808418 1723269.4222434778 3.7847804888741137 0.1738876854769841
0.2660356842484323 14.981343723223539 1383129.874389726 4.011319254785881 0.1766656674247658
0.27880840892539677 14.723638081458779 1116522.1654572946 4.247600863509426 0.17945603713772268
0.29196007548355535 14.498551068310825 906040.0738329819 4.494249885056268 0.18226534968563077
0.30549223722876867 14.30137832108502 738761.41480307 4.751418730216846 0.18508924879380348
0.31940599969038486 14.128320195825209 605232.249143123 5.019794893175961 0.18793446778589062
0.33370041593680344 13.976140791495986 497788.62321878615 5.299595247166113 0.1907974893595008
0.34837780009647396 13.842229610205832 411123.06042918254 5.591556647071975 0.19368477719506816
0.36343796265383965 13.72418058939013 340749.1579227067 5.895835940320215 0.1965912018349461
0.3788887741828384 13.620171263804655 283397.8546057351 6.213301435730052 0.19952453330585887
0.39471667449609915 13.528636274207969 236493.06354449518 6.544218136804269 0.20248108534766365
0.41093783334368056 13.448060563888443 197946.22844752923 6.8892731936246205 0.2054643120060694
0.42754119963403003 13.37722637444415 166146.76202711673 7.24917822703195 0.20847740838335777
0.44453343813242185 13.315077557306935 139860.67710967947 7.624203105274435 0.21151609629173845
0.46190997590184446 13.26071321298189 118038.9815196747 8.015274937478189 0.21458620048948365
0.47967043286557964 13.213288868266687 99858.89300737574 8.42310835459954 0.21768952897593985
0.49782195335518004 13.172139407500174 84687.8752729984 8.848159016512794 0.22082376516877156
0.5163560645189958 13.136516837068266 71975.22268055587 9.291270485213186 0.22399189857115712
0.5352691357913184 13.105951266219593 61310.07245860745 9.753340878496363 0.22719704921091755
0.5545721851961092 13.079895486866896 52331.958966281345 10.235179160967286 0.23044056702401258
0.5742499099499556 13.057911966379374 44756.64675840564 10.737277245829263 0.23371941538394395
0.5943009504684557 13.039587510474677 38353.55023296263 11.26083809755812 0.23703926099156894
0.6147326897622324 13.024557092690618 32924.010147294524 11.806818208554866 0.24040197031305022
0.6355292385485071 13.01247896710216 28311.72598572653 12.376195783213037 0.2438091748614505
0.6566951508063223 13.003067690839993 24387.627648218277 12.969688208521253 0.24725914897003465
0.6782220678666454 12.996010037668492 21042.76793950194 13.588565050050105 0.25075604180246375
0.700103308820579 12.991085805011346 18185.53054391595 14.23405008036127 0.25430279784727433
0.7223325092564676 12.987998139851436 15740.404668800824 14.907331942025637 0.25790139972737197
0.7449134506728635 12.986661088598385 13644.531220673392 15.609476719355678 0.26155211412015744
0.7678285171712206 12.986754771294423 11844.563057677733 16.341676968315785 0.2652561059452465
0.791067424081066 12.988119829360713 10297.05896011668 17.10558236396392 0.26901841909653834
0.814633576791803 12.990659111122415 8963.372778881016 17.902646573945972 0.2728414834381179
0.8385101257121843 12.994108486777703 7813.332662162759 18.73427909482032 0.27672678200038126
0.8626861765986217 12.99837470446742 6820.3693713478715 19.601734646908927 0.2806740001855461
0.8871555270400682 13.003312840610075 5960.741344835937 20.50713994598291 0.28468988293901926
0.9119067875915544 13.008808677512098 5215.772696066476 21.452287279216147 0.2887774399525205
0.9369241811730117 13.014692794734446 4569.434047817384 22.438716849731325 0.2929370508924537
0.9621946789731006 13.02088809678723 4008.029738570956 23.468339667144374 0.29717160582709223
0.9877121569540843 13.027284487277948 3519.8122219473007 24.543630123376033 0.3014876442516912
1.0134497566002962 13.033740003013097 3094.825324071518 25.666596488530836 0.30588729591958935
1.0394071359907366 13.040194273456173 2724.1774226705147 26.83906489180362 0.3103708291223965
1.0655541372241053 13.046533699446389 2400.5375510193376 28.064193419826747 0.3149474571816906
1.0918751985535065 13.052650033202378 2117.9079034705424 29.34411364913418 0.31961816182282443
1.1183683732779912 13.058492528152248 1870.4908509893044 30.6814236701924 0.32438655808118616
1.1449938566195963 13.063949777858701 1653.7314734770564 32.079682993396624 0.3292617907580284
1.17175075664284 13.068966699139212 1463.675003760178 33.54065645631234 0.3342404208329155
1.1986003721106973 13.07342407888371 1296.7986695307868 35.068965775806234 0.3393365610766893
1.22554126750966 13.077302371552872 1150.2209038340454 36.666733960110435 0.3445475915931679
1.2525301904813013 13.080466198142581 1021.2736503182017 38.338815489050944 0.34988676403789487
1.2795673860903667 13.082916349675992 907.7075999868642 40.08763087108222 0.3553517538920164
1.3066049082913225 13.084508962410025 807.7088250492559 41.91857127767103 0.36095665611245326
1.333637480439112 13.085234849715892 719.3422732105032 43.83497501832328 0.3667026212174782
1.360641586862853 13.085041507500701 641.3456115239353 45.841778918373976 0.3725988003227553
1.3875680741136898 13.083790741516495 572.4612849103554 47.94418472696988 0.37865444041390733
1.4144202685550413 13.081515816614436 511.4154577035694 50.14679186175463 0.3848744135824071
1.441147516968225 13.078093676493367 457.3951111996835 52.45510653431709 0.3912671989366839
1.467732459557586 13.07348874893604 409.5044901301079 54.87539187151289 0.39784371811087715
1.4941376546106524 13.067637334202796 366.96575056289106 57.41382824897185 0.404613016209598
1.520347036069587 13.060510242848752 329.2251863950404 60.0770333016676 0.41158484711777954
1.5463276831868547 13.052041743383828 295.6460888899353 62.872101278366614 0.41876973183790983
1.572042557999104 13.042179173575617 265.78378378139905 65.80664616269782 0.4261790215867965
1.5974645028449976 13.030872606836766 239.2126326326418 68.88884894303129 0.4338249662089521
1.6225522011558207 13.01807289360255 215.5074640852287 72.12750946085882 0.4417207885319023
1.6473036623400314 13.003756048493575 194.3381840373015 75.53210332122428 0.4498807653642681
1.6716522970532497 12.987845613880886 175.44675718897886 79.11276703859815 0.4583199927827041
1.6955913949634223 12.970321703370315 158.55780647599568 82.8792513732791 0.4670499324701489
1.7190537192051971 12.951097548686711 143.4619432637509 86.8444795677693 0.47609298019816837
1.7420614459635397 12.930226435712932 129.95117189725244 91.02025733136793 0.48546443474593826
1.7645470983869085 12.907610165748839 117.82187002559235 95.42016047733728 0.4951842232032717
1.786473901294467 12.88319276139496 106.95496058533175 100.0583408669959 0.5052718313119531
1.8078151918133651 12.856967610478788 97.2058248535753 104.95104495799036 0.5157519248323561
1.8285404828216747 12.828886922266374 88.44364779072684 110.11460251857277 0.526646324480733
1.848615563216722 12.798931086624766 80.56745408454286 115.56686113470168 0.5379793023431708
1.868007489564793 12.76705799484957 73.47343326096393 121.3280254766442 0.549780245243511
1.8866852274442942 12.733246087324275 67.09266361556244 127.41937453938786 0.5620785108360801
1.9046152041986062 12.697463011939597 61.33392776410723 133.86362592509462 0.5749044693348188
1.9217501079435966 12.65963635689485 56.15006865655773 140.6857712313215 0.5882920694561025
1.9380962613447523 12.619865064636233 51.4585768366882 147.9137533750612 0.6022806455441245
1.9535964354128514 12.57801866773463 47.20572912337069 155.57638342236285 0.616907151510035
1.9682252034052838 12.534144263595584 43.39492426718033 163.70668108620978 0.632217165271294
1.981953055211421 12.488195680248808 39.928778370792514 172.33858666213106 0.648252975058017
1.9947518558393136 12.440155244257424 36.79063852781667 181.51144473499463 0.6650680923502058
2.006598213747661 12.390028068025648 33.94835482011392 191.26700005412843 0.6827162499115914
2.0174652740689965 12.337812616003548 31.366810205916856 201.65118509889916 0.701256548179235
2.027316064665028 12.283477322282065 29.02704164324032 212.714267769885 0.7207529296932648
2.0361415174399995 12.227055369639139 26.903388470611812 224.51075729018112 0.7412727672434808
2.043903277247597 12.168510853964492 24.97104754344716 237.10255029547685 0.7628958753191291
2.0505818858464395 12.107853735437216 23.215329636500925 250.55554633813554 0.7857020096786869
2.0561667146083398 12.045132801213322 21.618969226647923 264.94335026742476 0.8097813289003613
2.0606393192428314 11.980355981589287 20.165253202679676 280.3475903432505 0.8352335623890651
2.0639715002840635 11.91352352293603 18.84336125215419 296.8572592202012 0.862163730111046
2.066147173046497 11.844659761897892 17.638696685545217 314.5724667207436 0.8906919543547261
2.067161363372115 11.773823199688565 16.542280435995693 333.60301776678756 0.9209460016798388
