M[M_sun], R[km], Lambda[1], P_c[MeV/fm^3], rho_c[fm^-3]
0.24162668629717493 15.618656898711224 2160425.4255784233 3.5677272577965504 0.1711233750220791
0.2536436572422825 15.2772814621326 1723140.3247452236 3.784814398957402 0.1738881081498135
0.26603935949053226 14.981271830242086 1383006.9914080752 4.0113905400354275 0.17666652886493692
0.2788142105108873 14.723529645930125 1116524.747673057 4.247711935087838 0.17945732540065096
0.29196796545435744 14.49844777945003 905912.8394784476 4.4944036570195225 0.18226706197213022
0.30550381406670907 14.301213062416346 738699.7708333714 4.751620423198784 0.18509142746294524
0.319419503812169 14.128138589186067 605129.8226443927 5.020045992318224 0.18793707303640697
0.3337171684311097 13.97597714919271 497706.25735457725 5.299902362460646 0.19080058150092033
0.34839711134612134 13.842059489254462 411025.3948638738 5.591920544712512 0.19368829800484516
0.36345924735730356 13.724014782466487 340670.002081185 5.896264794857508 0.19659522972751564
0.37891226899147695 13.620031208273781 283323.9691176727 6.213800436020447 0.19952908358767182
0.3947437085507342 13.528484127290806 236412.6003799884 6.544786764163634 0.20248607144142736
0.41096859700190597 13.447894446453752 197873.93582239 6.889922424140112 0.20546984112557834
0.42757540174069797 13.377100039007868 166098.64447933884 7.249914151911436 0.20848349650128437
0.444569758627114 13.314969623383258 139815.5746757149 7.625023689951479 0.21152262867340194
0.4619503875802142 13.260590636807342 117992.21657122875 8.016194493264457 0.21459331399691936
0.4797144434259576 13.213172074214064 99816.1961954714 8.424134050728213 0.2176972407769306
0.49787108503245614 13.171999428220841 84652.53173959444 8.8492870706356 0.22083193276260113
0.5164076323030624 13.136435455319345 71943.65042612261 9.292519150578887 0.22400068925317684
0.5353259361746081 13.105859344617693 61282.369087007675 9.754718619781707 0.22720648195703796
0.5546311567425806 13.079843852170825 52304.73690911986 10.236694957127193 0.23045066163512357
0.5743129393239867 13.057854611951148 44734.92269312847 10.738924510510309 0.23372999133345498
0.5943680963077675 13.039545782384417 38332.04012769571 11.262641600076037 0.2370505293079376
0.6148051082412481 13.024512174878462 32905.97143673778 11.808788601074374 0.24041395358709616
0.6356058376898509 13.012454407021234 28296.789536211316 12.378344382372273 0.24382189687650477
0.6567768734383554 13.003026297220112 24373.68373850736 12.972005147749234 0.24727239164455614
0.6783081703385875 12.99598876080935 21030.85901683012 13.591083225881674 0.25077006233083426
0.7001961758446859 12.991052217004142 18175.5501216119 14.236782992165384 0.2543176240271915
0.722428674619152 12.98800585282734 15731.983731075 14.910293956419466 0.2579170610140119
0.7450153337153651 12.986653470600425 13635.99400592923 15.612654229411927 0.2615683554438393
0.7679343046551174 12.986762987098196 11837.888465079803 16.345112997754313 0.2652732336902116
0.7911778047549849 12.98813481836968 10290.333546697295 17.109294154001454 0.2690364682745733
0.8147523790403491 12.990664585089178 8957.69421292346 17.90665250872484 0.2728604913122056
0.8386326194954796 12.994120559350963 7808.617354449217 18.738561407827074 0.27674645701291906
0.8628132026426087 12.998395085100519 6815.663822055743 19.60634900961119 0.2806947019208649
0.8872870691636809 13.003338030345374 5956.301851643456 20.512108562541016 0.2847116561871731
0.912045928096493 13.008842309222707 5212.029226791573 21.457633874082397 0.28880033252343346
0.9370652932408462 13.014736408899878 4565.973486519771 22.44441915327106 0.29296073501495845
0.9623414964090614 13.020929170447246 4005.181372963135 23.474469226627836 0.29719649978942414
0.9878663335129114 13.027321364864724 3517.0989469025853 24.550215783772725 0.3015138059540875
1.0136073273181516 13.033786565843842 3092.40377253976 25.673612760756612 0.30591437306536634
1.039569717604858 13.040238878762793 2721.90239019189 26.84659753515037 0.31039928609256084
1.0657199253276688 13.046564896638145 2398.7453884361635 28.072277686372406 0.3149773643989515
1.092050006215193 13.052691927179024 2116.096398286762 29.352720890805568 0.3196491426079681
1.1185476035651054 13.058530046739818 1868.9130914761076 30.69065662823706 0.32441912793896943
1.145177639634479 13.063990714289472 1652.4183746745634 32.089511537916856 0.32929556066892723
1.1719389183581144 13.069001989620373 1462.3288538176337 33.55119585095607 0.3342759396795219
1.1987944443490812 13.073458454459729 1295.6546390884425 35.08026575217778 0.3393739270351195
1.2257388461083771 13.07732485969491 1149.3032916346956 36.6787617320465 0.34458639132357455
1.2527331534701014 13.080493420474665 1020.345472112223 38.35170941181177 0.34992760915857224
1.2797739491749973 13.082936272491102 906.866913742409 40.101357338755534 0.3553942189972811
1.3068166137289015 13.084523813908895 806.9188561732612 41.93318701719604 0.36100084170731217
1.333853442221412 13.085237184329497 718.7614659085925 43.85064385794345 0.36674919711215653
1.3608612524259462 13.085036209364995 640.7509919631335 45.85846803308829 0.3726473300012996
1.3877900417087325 13.08377833736417 571.9037884962353 47.96196538420031 0.3787050499041062
1.41464682174725 13.081489875721308 510.9183473139052 50.16585898373236 0.384927841759429
1.4413695722779944 13.0780382446979 456.974122791531 52.47542985895466 0.3913229991716469
1.4679625763749975 13.073444271501009 409.09667732521984 54.89706136616897 0.39790204849331773
1.4943688711484298 13.067585451681719 366.59654170374137 57.436941167394025 0.40467404704833093
1.5205830937652538 13.060440083426158 328.9056715545724 60.10169483625491 0.4116487619441713
1.5465657313202532 13.051957644423263 295.3501741586394 62.898425277504025 0.41883672850856524
1.5722828405924454 13.042080599975982 265.52572141923594 65.83475592040999 0.4262493134963287
1.5977054970815376 13.030756675724835 238.9744440006071 68.91887806908132 0.433898783624751
1.6227925606497864 13.01794181674084 215.28132950635253 72.15960284041653 0.4417983800642383
1.647544712617225 13.003605656575678 194.14659649669827 75.56641817436395 0.44996239958668316
1.6718942503830354 12.98767454388175 175.27259951407135 79.1492949673495 0.45840521202257434
1.695830165397866 12.970134613637292 158.3996746660653 82.91834866167203 0.4671397779250061
1.7192954636715168 12.950894751704006 143.3157797403773 86.88634741935131 0.47618779028262676
1.742297105653059 12.929994005089112 129.80751923952238 91.06491317553339 0.48556377756198105
1.764776890830381 12.907351066151614 117.70331727208647 95.46803436821351 0.49528926920957456
1.7867056844562068 12.88292090121006 106.84767173777351 100.10947448567626 0.505382175442696
1.8080444676788412 12.85667164833862 97.10693171166858 105.0057033825942 0.5158679921115709
1.8287571012129145 12.828543889315387 88.35120475625904 110.1732555408601 0.5267692470736108
1.848837045049407 12.798585442077728 80.48027813595502 115.62970186863284 0.5381091096148024
1.8682245135637285 12.766684158330802 73.39755568452622 121.39534889146651 0.5499172910448101
1.88689560348099 12.732842709523275 67.02409448653877 127.49155849773626 0.5622233834645195
1.9048208306026257 12.697035551018788 61.2726114797641 133.94081865673502 0.5750568717552074
1.9219642617676145 12.659228339817119 56.0881938408902 140.76868108527333 0.5884536093806246
1.938279084608826 12.619349060006375 51.40377029329967 148.00287669067947 0.6024520786758777
1.9537790633623255 12.57751415169787 47.17299931744449 155.67197191267104 0.6170883012677117
1.968397783350663 12.53359597598267 43.34910122193787 163.8095219193087 0.6324095884702193
1.9821149901996202 12.487606061365739 39.88905849782689 172.44920830008596 0.6484572258173811
1.994907929613718 12.43953986507224 36.75348514563983 181.63045616882195 0.6652848733271093
2.0067468339980814 12.389388713665369 33.90939419480196 191.39517386012045 0.6829466694998368
2.0175975807355213 12.33712655731299 31.334854570453565 201.7893735017485 0.7015018189631307
2.0274380576420694 12.282750883720214 28.9980963627855 212.8630635675203 0.721013239039058
2.0362521881289832 12.226296258053583 26.876243861405033 224.67153718288446 0.7415506791156449
2.0440006660119425 12.167713509313428 24.94763349642742 237.27609731548665 0.7631917889305466
2.0506639190137195 12.107021151801773 23.19289954128207 250.743490473092 0.7860188410075376
2.0562404401057566 12.044286507840862 21.597724724261138 265.1467146761145 0.8101197390916441
2.0606920515557507 11.97944809638441 20.145802002242593 280.56769088651595 0.8355948489772033
2.0640032651178015 11.91256321320028 18.825444581813333 297.0958677355568 0.8625503186600618
2.066168827518867 11.84367561857058 17.62223223495933 314.83166491337295 0.891106879680765
2.067166748917498 11.772796289430397 16.526693882207656 333.88451454991866 0.92139060336299
