M[M_sun], R[km], Lambda[1], P_c[MeV/fm^3], rho_c[fm^-3]
0.24162668629717493 15.618656898711224 2160425.4255784233 3.5677272577965504 0.1711233750220791
0.2536231802723659 15.27783702267257 1723737.428073497 3.7844502007718135 0.17388356859512516
0.26599774096867074 14.982205128330484 1384028.7307868123 4.010624975672608 0.1766572774714174
0.2787494558409605 14.724749158895115 1117583.9102602454 4.2465191587678826 0.17944349099281504
0.2918790994203322 14.499781841222985 907116.7611005912 4.492752425704857 0.18224867512821064
0.30538949997045006 14.302804147873522 739943.7430317499 4.749454735237061 0.18506803389968102
0.31927912650241785 14.129779842165293 606272.0755307464 5.017349953989131 0.1879091005981674
0.33355022353084157 13.977636049773185 498805.10521155235 5.296605071563938 0.19076738325278547
0.34820127634407294 13.843719642914564 412057.81576599117 5.588013829660016 0.19365049946201196
0.3632333921869808 13.725647560600505 341609.5853266997 5.891660977728002 0.19655198970276375
0.3786531653823348 13.621668891119656 284173.765363907 6.208443893030987 0.19948023836530554
0.39445597369473934 13.530053684193113 237179.6423391399 6.5386831173779045 0.20243255070473942
0.4106437577224317 13.449412076194706 198572.23615294238 6.882953964556803 0.2054104947995663
0.4272158539298675 13.378491271254234 166710.06982026502 7.242015595773964 0.20841815377058556
0.44417288892890816 13.3163273737883 140362.72233497154 7.616216923814405 0.2114525211522188
0.46151596441963566 13.261859726417406 118475.03516266504 8.006326067100252 0.21451697374225934
0.47924136583175203 13.214359694833592 99185.60169647628 8.41312714132595 0.2176144842056027
0.4973572161786234 13.173079238683536 85040.56206906548 8.837182307914528 0.2207442891085334
0.5158505494121373 13.137394309358823 72288.96626386547 9.279120854232595 0.22390636441161255
0.5347286503693309 13.106728498823864 61588.08074875124 9.739936101371729 0.22710527301116032
0.5539891409711004 13.080622478686067 52580.454032821784 10.220432024506218 0.23034235684805845
0.5736246543449821 13.05853792078001 44974.27511745196 10.721251848835873 0.23361652737119967
0.5936391156312278 13.040168638989886 38543.03334286052 11.243293744357947 0.23692964355528637
0.6140243598894785 13.02502093844377 33095.21291786114 11.78765145370896 0.24028540446456276
0.6347771398847989 13.01285340673581 28464.369975221565 12.355296736009368 0.24368543005218624
0.655894850458104 13.003339375478388 24525.554981338693 12.947152827488445 0.247130345973119
0.6773786265073982 12.996242888239323 21164.21928633109 13.564073759194148 0.25061968085658726
0.6992151267194257 12.991233391522938 18292.874515139898 14.207471818130863 0.2541586094775219
0.7213953856218847 12.988112448631755 15836.160739867542 14.878527236606725 0.2577490983918064
0.7439286426430604 12.986679041179409 13729.35100966616 15.578480988938182 0.261393219333469
0.7667938142076538 12.98671964426623 11919.662987242711 16.30826607978972 0.26508956104568426
0.7899875613261791 12.988044607448833 10364.100244019903 17.069492122983746 0.2688429244758327
0.8134958893833936 12.990500169242612 8964.149841662515 17.863698552781262 0.27265667786260833
0.8373268548936343 12.993919878443377 7866.502947371762 18.692405171862475 0.27653336399170864
0.8614546934926606 12.998148469034378 6867.295167683039 19.556875815680936 0.2804727469008105
0.8858678213372401 13.003039199513182 6002.637130336223 20.45884000583347 0.2844782251122603
0.9105700072196689 13.008502928493842 5252.918118928005 21.400316033709398 0.2885549141294571
0.9355367951964461 13.014366051186292 4602.715172274478 22.383181035004128 0.29270596952064
0.9607526754468285 13.020539485484967 4037.9632308671144 23.408763974243996 0.2969296512365607
0.9862199334382998 13.026907210096766 3546.5096325458667 24.479625189322004 0.3012333830332634
1.0119075884320357 13.033361163767179 3118.5939422264432 25.598086039951475 0.3056217692452144
1.037807331702732 13.039795066921053 2745.751540975409 26.76586429336063 0.3100942904426774
1.0639090926722843 13.04613930235058 2419.5484824977934 27.985637028496306 0.3146568429312223
1.090184974373718 13.052274746234653 2134.856066356314 29.26035060333096 0.3193162521932975
1.1166225201407014 13.058128032114347 1885.641046098708 30.59171516212575 0.32407010550601467
1.1432002894675732 13.06359774217977 1667.4412930019234 31.9834975749475 0.32892919657951614
1.169907703391383 13.068639519536424 1475.8225694903942 33.438266039777645 0.3338953545722998
1.1967116506654496 13.07312146014244 1307.9068896594229 34.959193294118876 0.33897357323913624
1.2236018594630647 13.07703913007275 1160.088631577879 36.54989746313103 0.34417069513981335
1.2505521853695163 13.080252531634128 1030.2179976534367 38.213573477360235 0.34949002480063746
1.2775480922356561 13.082757604839786 915.7537835354489 39.95430928007106 0.3549393014292937
1.3045522285576674 13.084440913129098 814.8927927714745 41.776115641001134 0.36052468896517914
1.3315464639329113 13.085239050213046 725.8404264393079 43.68280630827233 0.36625029711534507
1.3584998876607595 13.085071225269804 647.2332400483708 45.67971088582087 0.3721275284993689
1.38539772420573 13.083921718042866 577.6721354226862 47.77091042019028 0.37815977496613024
1.4122173776891271 13.081746481170581 516.1569502237036 49.96165478034029 0.38435563907775605
1.4389172683780616 13.078425973589319 461.67539208467554 52.257783789742135 0.39072542461052456
1.465467363446716 13.07392072385726 413.3451871608297 54.6650117151111 0.3972774125658896
1.4918581460894382 13.068205906675326 370.47527254289923 57.189448416249896 0.40402052982879405
1.5180500295903412 13.061197243185754 332.3738272832059 59.837442875004264 0.41096350051163016
1.5440048464493874 13.05286291694725 298.52454078462887 62.616256181732794 0.41811791621082994
1.5697061419943936 13.043138366134302 268.36587845053987 65.53356256866519 0.4254956438387686
1.5951185274815634 13.031976573228198 241.53115407664356 68.59740312439354 0.4331085358625812
1.6202135646121416 13.019346107663726 217.59748858527124 71.8160507646593 0.44096778096988914
1.6449557174075435 13.005189140973751 196.2554030406888 75.19910939649263 0.44908858070872654
1.6693017658042448 12.989461291770366 177.19784509421203 78.75666230844587 0.457486144041984
1.6932433600948555 12.972106159972332 160.14851753505997 82.49958730078023 0.4661769000260577
1.7167396244853144 12.953123040429185 144.89806475856082 86.43827673210095 0.4751731306309771
1.7397476071566462 12.93243145179023 131.24868251257422 90.58612464282064 0.48449706317947006
1.7622551762691547 12.910024123395347 119.01165929656611 94.95575512187258 0.4941652141567053
1.7842028317007406 12.88582500982868 108.03904242086504 99.56212352346907 0.5042006353961068
1.805581388546563 12.859837520865193 98.19468361351296 104.41939822773963 0.5146204770238749
1.8263423575629987 12.832001566130536 89.33817896420408 109.54527441117932 0.5254523532399937
1.8464491769069904 12.802263678616205 81.39141666352727 114.95745663955735 0.5367204829455269
1.8658992058436825 12.77067762645392 74.22713253235565 120.67520226022768 0.5484513364079066
1.8846193537994225 12.737098743550222 67.77191908436157 126.71947766514299 0.5606738233940458
1.9026179286589882 12.701622125183016 61.961567197407284 133.11313155138586 0.5734195029339749
1.9198337010080555 12.66413188348659 56.71614345890221 139.88108733583434 0.5867228173948265
1.9362463337177855 12.62463486181975 51.979747708852514 147.04983303119835 0.600618851779987
1.9518143215446346 12.58308533373158 47.7002591937394 154.64841154332333 0.6151463255089057
1.966527965958178 12.539515697351428 43.83029927062859 162.70907706631567 0.6303492175562263
1.980353369630936 12.493905931743507 40.32873123439818 171.26656452830127 0.6462736034003757
1.9932377833042174 12.44615909338337 37.15945166616155 180.35766108032837 0.6629656028071058
2.0051940919211866 12.396390969250838 34.28403147519084 190.02453239597335 0.6804817585370975
2.0161571922659256 12.344483917936099 31.676939070222545 200.3123800315959 0.6988802536156206
2.026117380134572 12.290475391985277 29.312766014844897 211.26982352994287 0.7182212943709565
2.035061396063484 12.234405993559289 27.163748686891633 222.95215833712103 0.7385767199487389
2.0429496237026417 12.176221543710323 25.21158776624892 235.41875641813732 0.7600201916854027
2.04977249036566 12.115968258751879 23.437040610021217 248.7355210464839 0.7826338584334799
2.0554953496530803 12.053612596988442 21.82307078725155 262.9738713187113 0.8065034419349868
2.0601028958688623 11.98918487625466 20.352045145540952 278.2144031792092 0.8317283479490504
2.063584497701795 11.922728540850615 19.014799495528813 294.5444762326287 0.8584117262384787
2.0659159423292457 11.854239193394818 17.79763883091975 312.0624429722563 0.8866718932981866
2.067099755070965 11.783797198149232 16.688657149999965 330.8562738921984 0.9198280719740773
