M[M_sun], R[km], Lambda[1], P_c[MeV/fm^3], rho_c[fm^-3]
0.24162668629717493 15.618656898711224 2160425.4255784233 3.5677272577965504 0.1711233750220791
0.2536435544625909 15.277272575514516 1723237.7646670465 3.7848118630506074 0.1738880765409587
0.2660391388465111 14.981284617856211 1383031.9085466801 4.011385209060287 0.17666646444324846
0.2788135033179176 14.723537755206609 1116459.9441541974 4.247703628696386 0.17945722905902758
0.291966948123509 14.49846801233761 905916.2739040526 4.494392157253254 0.18226693391956386
0.3055032461217265 14.301215482415932 738666.0952866933 4.7516053395962725 0.18509126453125063
0.31941831336933324 14.128172798384737 605129.8174668598 5.020027213778091 0.18793687820180524
0.33371596598231973 13.975972533641952 497723.23355758504 5.299879394606631 0.19080035025274095
0.34839574769410897 13.842071001942536 411032.4390617973 5.591893330208147 0.19368803469702897
0.3634575514039694 13.724042928487787 340688.01206628425 5.896232722305265 0.1965949284953177
0.3789105744027914 13.620031081258755 279412.491053634 6.2137631173110925 0.19952874328597714
0.39474113854906434 13.528526166740363 236417.2047605506 6.544744238052075 0.20248569854487894
0.4109650382353794 13.4479180509211 197877.9215896446 6.889873869682542 0.2054694276154426
0.4275731562658389 13.377088780405131 166102.1689524786 7.249859113497037 0.2084830411825872
0.44456640908747985 13.314970420322114 139810.20578222952 7.624962319708512 0.21152214012680698
0.46194772994717315 13.260596954934613 117992.81459832966 8.01612572077737 0.21459278198613158
0.4797112331106237 13.213184294078548 99833.46707743275 8.424057339742324 0.2176966640175567
0.49786694136022175 13.172012792836716 84651.48598074188 8.849202704002481 0.22083132191213026
0.5164048752860647 13.13641914507499 71947.09401698197 9.292425763021512 0.2240000317989509
0.5353220046340401 13.105862471230093 61283.41759662509 9.754615578136011 0.22720577647938842
0.5546275218576355 13.079842352034966 52306.312190256154 10.236581589756693 0.2304499066526608
0.5743081087343793 13.057859435415898 44735.086930203564 10.738801309999083 0.23372920034801017
0.5943610316595368 13.039564069643122 38333.3769225886 11.262506713722589 0.23704968653556033
0.6147998706359262 13.02451457905043 32906.935269388756 11.80864123207103 0.24041305733767607
0.6356004767880346 13.012458019842995 28298.8693935905 12.378183684202101 0.24382094537071491
0.656771190174279 13.003040044606506 24375.05775688188 12.971831858361238 0.24727140119347502
0.6783025481081794 12.99597870624784 21031.723998565045 13.590894884608977 0.25076901369708754
0.7001886652869446 12.991055959743191 18175.361605169193 14.23657858920012 0.254316515131129
0.7224205452582975 12.988007749711977 15732.750327813423 14.910072417073687 0.2579158896519809
0.7450073240404876 12.986654664686334 13636.33136705206 15.612416571433071 0.26156714069389614
0.7679268441795689 12.98676110128836 11837.876335935549 16.34485600287447 0.26527195263519215
0.7911703127776083 12.988130381265444 10291.117566704557 17.109016532478467 0.26903511829511756
0.8147428732868327 12.99065571818004 8958.13817610329 17.90635288531089 0.27285906962053047
0.8386238241743865 12.994126403079862 7809.240480215029 18.738241111444605 0.2767449854167674
0.8628035986597933 12.998391880911264 6815.995646267841 19.60600387579913 0.2806931535231147
0.88727678507186 13.00334055118993 5920.547428169114 20.51173693026244 0.28471002763690584
0.9120356182109493 13.008836549406691 5212.246014121426 21.457233968560026 0.2887986202437941
0.9370540897318581 13.014740683870654 4566.289959148458 22.443992640320094 0.2929589635229798
0.9623310353341304 13.02092878122822 4005.223342992549 23.47401075405893 0.29719463779609634
0.9878538197303085 13.027324005159178 3517.2944326931033 24.549723193715128 0.3015118491276321
1.0135956962757353 13.03378401537808 3092.5836653992446 25.67308795989845 0.30591234775778375
1.0395572751995026 13.040238004689998 2722.086754964689 26.846034108014102 0.3103971575662961
1.065707511307177 13.046562133499402 2398.906196016941 28.07167299572747 0.31497512738531624
1.0920367023879336 13.052695110284688 2116.3041560015376 29.352077079702294 0.31964682528329835
1.1185337363252423 13.058525037451476 1869.0152304504393 30.689966010641395 0.32441669174064985
1.1451647516641335 13.063976719024907 1652.5366602279544 32.08877636776815 0.3292930346967076
1.1719255267301971 13.068999037696313 1462.5308591723362 33.55040750529465 0.33427328287336106
1.1987806484368027 13.073457948313331 1295.7541943055471 35.07942051042961 0.33937113204980385
1.225723652728004 13.077327983346283 1149.3591573031736 36.677862046923835 0.34458348907863706
1.2527181199816393 13.080485515294695 1020.4464035812584 38.350744932611214 0.34992455389989974
1.2797580714139274 13.082933602580047 906.9513616612227 40.10033057955862 0.35539104254734394
1.306801173846646 13.084522692170033 806.9431120650353 41.932093734070065 0.3609975365467907
1.3338371495658246 13.085235667513809 718.7940220275569 43.849471794196766 0.3667457131325546
1.360844086615971 13.085032628376487 640.7887737062537 45.8572196444477 0.3726436998567136
1.3877738866279001 13.083777793823522 571.9640067005158 47.960635338792464 0.37870126416552746
1.414629941396425 13.08149070710227 510.9611302140387 50.16443269823162 0.384923845150276
1.4413523108163775 13.078041228734945 457.0016805125384 52.47390959741126 0.39131882510304156
1.4679457588410754 13.07344935476661 409.12198276255714 54.895440397513134 0.39789768513722107
1.4943543506366026 13.067586433994489 366.64030080772835 57.4352122153544 0.4046694816623775
1.520566323036267 13.060443932032742 328.9304762322597 60.099850030546584 0.4116439807965847
1.5465478694478223 13.051963452764578 295.3697869006679 62.89645610014834 0.41883171679563846
1.5722639505752514 13.042088278535145 265.5376131357468 65.83265314663983 0.42624405525166037
1.5976876994813942 13.030766343645974 238.997018747086 68.91663170222678 0.43389326161935327
1.6227744448249408 13.017951622761531 215.2998876844405 72.15720204008646 0.4417925756965148
1.6475264576785542 13.003618085634974 194.15467237429388 75.56385117715563 0.44995629276115806
1.6718751636425406 12.98768922354679 175.28174240340502 79.14656240191273 0.45839883697867295
1.6958126247529672 12.970147820031963 158.41171938492536 82.91542386986968 0.46713305676196265
1.7192779622469756 12.950909577583495 143.3272081133027 86.88321534646752 0.47618069767855414
1.7422801240766999 12.930011694460003 129.81729315776792 91.06157251781629 0.4855563458282124
1.7647605677866478 12.907370649742985 117.71320113980298 95.46445294688976 0.49528141077149773
1.7866875446135329 12.882941964920768 106.8542621150128 100.10564918239267 0.5053739206041662
1.8080274537186065 12.856694903564394 97.11246285231329 105.00161436293635 0.5158593090697565
1.8287394831937407 12.828569271774365 88.35594785153799 110.16888117038035 0.5267601014285542
1.8488200775914077 12.798612538154067 80.48597246759527 115.62500066011282 0.5380993985402623
1.8682085863638538 12.766711918790165 73.40273758936296 121.39031229194325 0.5499070383738885
1.8868802960615212 12.73287309786925 67.03164504251876 127.48615823246281 0.5622125451752051
1.9048047494270128 12.697067735025048 61.27556199103596 133.93504363490348 0.5750454700689835
1.9219490804848023 12.65926305035207 56.09175535950374 140.7624783006863 0.5884415239974493
1.9382651727592377 12.619385455772376 51.40695317363284 147.99620900191505 0.6024392530448012
1.9537651029927292 12.577554415968908 47.17541255576136 155.66482048491503 0.617074748596246
1.9683847150128628 12.533637209253524 43.35221988080148 163.8018434195301 0.6323952449688202
1.9821035419445645 12.48764951739316 39.891742300534766 172.4409320363808 0.6484419446013575
1.994897355662121 12.439584731805079 36.756759457252606 181.62155214171167 0.6652686545182666
2.006728631310565 12.389422852542209 33.91383514254565 191.3855842543579 0.6829294301505475
2.017587436805594 12.33717772362631 31.33707610033249 201.77903454077497 0.701483468327257
2.0274283843884766 12.282805954049131 28.999899180569926 212.85193089064694 0.720993763086915
2.0362427371466483 12.226352993918272 26.876982614665128 224.65950775997604 0.7415298859717677
2.0439934539604767 12.167772657129607 24.949801999738472 237.26311254798557 0.7631696487091563
2.0506583688078996 12.107082253979401 23.194997474024056 250.72942837174668 0.7859951354832513
2.0562354828455414 12.044351218783493 21.599196483406814 265.1314986696501 0.810094418772856
2.0606889929236165 11.97951563733049 20.14750447581661 280.5512349546848 0.8355678574189156
2.063999988937099 11.912634644272412 18.826624001457002 297.078014353094 0.8625213929814831
2.0661675437723552 11.843749222539008 17.590530399875437 314.8122707354865 0.89107583341651
2.06716642873519 11.772871261374146 16.527930818411836 333.8634516770084 0.9213573362377186
