M[M_sun], R[km], Lambda[1], P_c[MeV/fm^3], rho_c[fm^-3]
0.24162668629717493 15.618656898711224 2160425.4255784233 3.5677272577965504 0.1711233750220791
0.25363843713449347 15.277433789879147 1723297.3964964955 3.784732308588407 0.1738870849329657
0.26602962007038783 14.981514152980667 1383188.4856368813 4.011217972497257 0.1766644434880805
0.278799496587307 14.723817095968952 1116685.320841684 4.247443055035222 0.1794542067972342
0.29194808155232443 14.498750088947379 906197.7453113921 4.494031411818056 0.1822629169354183
0.3054774741582593 14.301612659794456 738932.7021309312 4.751132176863602 0.18508615347069315
0.31938788059275836 14.128532243167582 605347.2799074019 5.019438151452524 0.1879307664528203
0.33367955200748084 13.976327301337294 497961.1459519559 5.299158928388713 0.19079309635339617
0.3483536944945992 13.842416087682714 411247.3403375525 5.591039664502849 0.19367977524649488
0.3634097262783394 13.72438734020575 335932.0483351318 5.895226683227421 0.19658547956339803
0.37885458558702795 13.620373883691931 283505.23205623275 6.212592535117226 0.1995180689858418
0.394676933620472 13.52885938103052 236601.52613382932 6.54341033132055 0.2024740019848632
0.4108953836425445 13.448222755373845 198032.55299789595 6.888350893946315 0.2054564573149809
0.4274949694016332 13.377385761742486 166231.55993393954 7.248132783112934 0.20846875969374007
0.44448042605798943 13.315273924843916 139937.90396947018 7.623037409032794 0.21150681660011475
0.46185305905951113 13.260864515657673 118101.75861140768 8.013968663443263 0.2145760954037463
0.47960782150324455 13.213437227474229 99914.87991312846 8.421651322313576 0.21767857413004318
0.49775541488435543 13.172242430061633 84738.25859710528 8.846556600264462 0.22081216299047385
0.5162822337636448 13.136652649726273 72025.86692063989 9.289496762239018 0.22397941145084024
0.5351901181140798 13.106062054227534 61354.49328794017 9.751383829320952 0.22718365021633619
0.5544875183833067 13.080017278457174 52370.353632527345 10.233026036064988 0.23042622805210003
0.574155965474509 13.05800369576318 44787.63301642321 10.734937401511676 0.23370439285863198
0.5942068360426335 13.039679805276863 38379.58187900828 11.258276359413113 0.23702325520528095
0.6146284668118059 13.024635687606075 32949.71948013044 11.80401945186074 0.2403849492027275
0.6354188113050214 13.012551086450292 28333.8558370635 12.373143940029935 0.24379110467150752
0.6565742885409175 13.003102513349642 24408.098126613724 12.966397292814147 0.2472403394453563
0.6780984464429982 12.99604255922047 21060.773363904154 13.584988349265993 0.2507361276907533
0.6999744931744329 12.99110766115823 18201.09620581953 14.230168428221921 0.2542817396949743
0.722195614648767 12.988029968058429 15754.811743664519 14.903124941259062 0.25787915572847814
0.7447703097807532 12.986660624531014 13657.069115428405 15.604963694226388 0.26152904652930437
0.7676775417309011 12.986738746256126 11855.763352248885 16.336796830087845 0.26523177968016115
0.790908393190575 12.988120205174022 10307.025037443978 17.100310635148382 0.2689927844644655
0.8144701729611796 12.990623758552367 8972.83803663497 17.896957154847133 0.2728144875513069
0.8383372847225782 12.994090841725557 7821.106795992073 18.72819721439799 0.2766988389066901
0.8625051373417547 12.998334657055876 6827.294527966829 19.595181263744827 0.2806445992882913
0.8869674009629478 13.003279485369355 5966.953732601393 20.500083538550847 0.2846589606675387
0.9117131035347569 13.008761917753647 5221.094119177012 21.44469416830202 0.28874492845045235
0.9367192305416271 13.014647375453603 4574.639907591772 22.43061865575441 0.29290341560508604
0.9619834829360641 13.020837201473812 4012.4677495998158 23.459634815989723 0.29713625284008993
0.987495193357575 13.027235539316926 3523.7384767394615 24.53427766864357 0.3014504913888579
1.013223459884145 13.03369273330529 3098.131107926836 25.65663261934949 0.30584884342948565
1.0391731844015473 13.040136449695321 2727.1984262378733 26.828367864455174 0.31033041767928293
1.065314300587125 13.046473608012834 2391.0513859455073 28.052713195227806 0.3149049868389149
1.091628227276278 13.052596122555263 2120.2295654764357 29.3318908986861 0.31957416742601835
1.1181137057794803 13.05843777593744 1872.5381059259344 30.668312551122355 0.32434030775908723
1.1447312934993519 13.063903170383671 1655.760813808661 32.06563944648457 0.3292132751252659
1.1714813342422734 13.068915993856198 1465.3744072724523 33.52569053426424 0.33418998413256223
1.1983292897396973 13.073403667556175 1298.326101067069 35.05292005996562 0.3392835022444078
1.2252584885716729 13.077266042117014 1151.6811917158375 36.64965499134339 0.3444924974836929
1.252242568673495 13.080435492543579 1022.5612501864197 38.32050688972724 0.3498287664088814
1.2792729697548408 13.08289383199704 908.8914049356741 40.068140343526764 0.3552914567111244
1.3063070995463526 13.084494349168482 808.7483470837094 41.89781830762764 0.3608939167399509
1.3333308069248693 13.085227498862183 720.2765876231225 43.8127270869472 0.36663648885964567
1.3603297815890283 13.085051221307133 642.2577104040971 45.8180826162369 0.37252989469503994
1.38725276503992 13.083814253162917 573.2408691747596 47.91893890795001 0.3785825826634491
1.4140927669474483 13.081527863888432 512.1134476567627 50.11971989366262 0.3847985549444207
1.4408219250044132 13.078137668107752 458.01725175828415 52.42625136694006 0.3911879734581635
1.4674026436721272 13.073554405687956 410.0545641102587 54.844625826843206 0.39776090145177884
1.4938055778903971 13.067720140996155 367.4792939686726 57.38101331131499 0.4045263666947429
1.5200110728651588 13.060616164911279 329.67859768804664 60.042020192520205 0.4114941043140554
1.545990430085486 13.052160567478293 296.05988286557505 62.83472843902712 0.41867461499051833
1.5717030866232342 13.04231976998419 266.16005254157477 65.7667386343426 0.4260792278994399
1.5971188982356221 13.031028930632198 239.5419620731543 68.84621713273457 0.4337201689510602
1.622211682935697 13.018248787054457 215.79918991806696 72.08194778062212 0.44161063495399644
1.6469609117189254 13.003963370158854 194.61755242909723 75.48338868548032 0.449764874400288
1.6713158766011118 12.988080951737569 175.70611710029576 79.06073457502914 0.45819827565435084
1.6952385832331422 12.970568096183484 158.8008878605461 82.82374910956324 0.4669223884297787
1.7187158846371302 12.951389596212413 143.67909110030322 86.78504525563015 0.4759583907234112
1.741732570537921 12.930564506764537 130.1405969822298 90.95686622280441 0.4853234128628127
1.7642132992108375 12.907966407146848 118.00206097857487 95.35220243078889 0.4950351080748501
1.7861436972270965 12.883580791137485 107.12116798995255 99.98575672571154 0.5051151978840352
1.807489454966643 12.857386534516486 97.34545770520681 104.87345863902064 0.5155871701213965
1.828219581843791 12.829344723864534 88.57709322496754 110.03127587238295 0.5264715753021031
1.848302452563758 12.799422043459414 80.68619185071566 115.4776635437125 0.5377950508999094
1.8677013627697243 12.767587799569503 73.58865926071915 121.23246680174148 0.5495857227997567
1.886385674456489 12.733817013823712 67.19155390682643 127.31691874540472 0.5618728828750651
1.904323941753149 12.698072719471181 61.423790392555816 133.75406268660745 0.5746881574829615
1.9214744648581474 12.660306267478628 56.22979459067549 140.5680957741468 0.5880627929158114
1.9378180259651474 12.620528299504727 51.40995392708759 147.7872616569625 0.6020373324310063
1.9533369611340783 12.578776299741216 47.29320385745393 155.44071834401618 0.6166500526063021
1.9679759740725988 12.534929013625865 43.45851257102217 163.56059534399986 0.6319436293563185
1.981718515124809 12.489019772558184 39.98949836412645 172.18159231141212 0.6479631021548218
1.9945312575646663 12.441029037272497 36.84446918090562 181.34254718914244 0.664760443128539
2.00639208913283 12.390952146921826 33.9962913742368 191.0851035771606 0.6823892524334262
2.0172816639997104 12.3388068242393 31.414178180113403 201.45508103382457 0.7009084828077985
2.027139406765894 12.284492660795076 29.0701627945231 212.5029385536891 0.7203829518272455
2.0359739723976777 12.228094128132359 26.938912525984403 224.2826041592316 0.7408783991250788
2.043766525866048 12.169640441136378 25.006531911877172 236.85628596923775 0.7624759720206651
2.050470094385474 12.109056541914422 23.24782887937908 250.28885952897252 0.7852524360000314
2.056068818243266 12.046369286836669 21.64734764290659 264.6547900317918 0.8093011479032717
2.060562764875918 11.981644114796214 20.192825787939316 280.0349646563472 0.8347198695277258
2.063915381183537 11.914870272356879 18.868101865789406 296.51870801531715 0.8616152164971514
2.066113875856993 11.84605927179996 17.661644521773407 314.2047124335229 0.8901032520725872
2.067150607336765 11.775278667063441 16.56287139100574 333.20363736839283 0.9203152122428554
