M[M_sun], R[km], Lambda[1], P_c[MeV/fm^3], rho_c[fm^-3]
0.24162668629717493 15.618656898711224 2160425.4255784233 3.5677272577965504 0.1711233750220791
0.2536441212161247 15.277264107846177 1723124.8925736155 3.7848226638309965 0.17388821116747577
0.2660406920610662 14.98124141870768 1382936.513678653 4.0114079144614685 0.17666673882462192
0.27881589162884024 14.723507758166779 1116415.9177206075 4.247739006882799 0.17945763939267617
0.2919701537422352 14.498386535267063 905839.2861633219 4.494441136580882 0.18226747931574452
0.30550548457048987 14.301211960148933 738623.9898059929 4.751669583145603 0.18509195848419405
0.31942174745750695 14.128143596328291 605146.9080241726 5.020107194787612 0.18793770803564885
0.3337212128760972 13.97593210088481 489691.34299266926 5.29997721876048 0.1908013351796506
0.34840155984048005 13.84202293154934 411003.99903949635 5.592009241753063 0.1936891561731122
0.36346240538526464 13.724028793604699 340637.71179858944 5.896369325355841 0.196596211500077
0.37891775117308885 13.620019892536053 283304.2717567082 6.213922064956706 0.19953019269711972
0.3947491864634375 13.5284775610063 236404.90016604972 6.544925365268404 0.20248728678587527
0.4109757603433477 13.447869166753172 197870.6603029019 6.890080673113971 0.20547118884024634
0.42758331599452304 13.377054736197326 166077.7268052539 7.2500935337549475 0.20848498048130412
0.44457867843902626 13.314927391791228 139806.24254763074 7.625223708883554 0.211524220952713
0.4619603108445327 13.260592576866149 117980.25021887205 8.016418638108116 0.21459504793849837
0.4797250854244176 13.213149604496731 99812.58425152478 8.424384069342446 0.21769912056739002
0.4978821161348775 13.171980684568762 84639.53087496328 8.849562041172863 0.2208339236667768
0.5164200698566436 13.136410062058903 71938.47277851761 9.292823522936315 0.22400283205354854
0.5353390845257291 13.105863062054501 61275.303069477675 9.75505445769495 0.2272087812811614
0.5546447197997073 13.079814755346149 52297.416810989416 10.237064449733671 0.23045312231174317
0.5743282527787047 13.057841409073266 44326.68280000798 10.739326052370632 0.23373256935658038
0.5943861802867383 13.03951733210583 38327.809653779674 11.263081229819074 0.23705327612252777
0.6148226228970821 13.024502936573496 32901.52857595083 11.809268915836336 0.24041687470223636
0.635626929210695 13.012451666254607 28292.099838712547 12.3788681413187 0.24382499809209104
0.6567975540183861 13.00302160442988 24370.70694849115 12.972569945695213 0.24727561979800905
0.6783292525600506 12.995983103857384 21027.688796213162 13.591697083108157 0.2507734801234091
0.7002178253585217 12.991066118022058 18172.63738853739 14.237449200092186 0.25432123823770864
0.7224520278801156 12.988004952476198 15729.384246718813 14.911016017946968 0.257920878825491
0.7450400227372488 12.986646873221773 13634.119715360117 15.613428827360973 0.2615723146747437
0.7679608660475364 12.986758723071945 11836.391309253815 16.345950621821693 0.26527740903610414
0.7912054973915984 12.988134025843017 10288.559039791733 17.110199008071447 0.2690408682735064
0.8147786151512593 12.990674131210561 8955.947399779827 17.907629075394997 0.2728651250512276
0.8386612658361636 12.99413200211553 7807.329213701812 18.739605355634556 0.2767512534129413
0.862842910786552 12.998401179266535 6814.479280162531 19.60747391242463 0.2806997486503497
0.8873231656465406 13.003358699126494 5955.297824170723 20.513319834514178 0.2847169641687701
0.9120833899082864 13.008831398439423 5211.21417336588 21.45893730011849 0.2888059134162648
0.9370995028329122 13.01473759839719 4565.206354702396 22.445809303776073 0.2929665089087246
0.9623834172189932 13.020944612393416 4004.484633250865 23.475963546985135 0.297202568668401
0.9879041764762371 13.02733041680111 3516.6361304309735 24.551821307625282 0.30152018393817576
1.0136459328628413 13.033789519039273 3091.7691822542847 25.67532327334621 0.30592097426287573
1.0396106346513512 13.040241486344556 2721.4308315708545 26.848433947788756 0.3104062237288267
1.0657612163215138 13.046576012579479 2398.3178612829925 28.074248595244697 0.31498465564788697
1.0920931289371651 13.052706577613627 2115.756333105741 29.35481931067823 0.3196566956310733
1.1185910879069936 13.05853613934364 1868.5529095862826 30.692907612005445 0.3244270684300725
1.1452230247322652 13.063991290417455 1652.05393899888 32.09190773886256 0.32930379377936037
1.1719857430408143 13.069004670671097 1462.058487491551 33.55376537606148 0.33428459924405624
1.1988420541451617 13.073461486741179 1295.418139299923 35.08302072897588 0.3393830369965149
1.2257871350321787 13.07733096526645 1149.0656800210763 36.68169416584565 0.3445958509010796
1.2527823136642595 13.080498201612532 1020.1498445652187 38.35484140235823 0.3499374992114352
1.279824732427146 13.082938736751888 906.6937184251815 40.1047039696303 0.3554045723551705
1.3068689622518517 13.084521316766619 806.7386821440483 41.93675048270405 0.3610116146034056
1.3339059457024864 13.08523454296871 718.578791521485 43.854464110053854 0.3667605528771175
1.3609141523983752 13.085031112772752 640.6178035379833 45.862537067160325 0.37265916219964457
1.387845084439151 13.08377360232101 571.7988235593442 47.96630058009219 0.37871738927104615
1.4147023519622683 13.081482057005376 510.8112910512153 50.170507877724354 0.38494086847271325
1.4414245450100112 13.078033145657553 456.87158082978414 52.4803850711215 0.3913366043276995
1.4680198601147532 13.073435494188987 409.01163878838884 54.902344837391226 0.39791627064763646
1.4944285530586578 13.067569446618558 366.51614507696706 57.4425766157801 0.4046889277369292
1.5206405471505284 13.060423210283638 328.82787061416195 60.10770791625994 0.4116643459283407
1.546624092027171 13.051936278302191 295.2879714600262 62.904843754926304 0.41885306404389655
1.5723398958121049 13.042057496582883 265.45547331391305 65.84160986503161 0.4262664526285907
1.5977643874521734 13.03072874441416 238.91751201083787 68.92620006693726 0.4339167825155382
1.6228510188069447 13.017907336241072 215.23490598401884 72.16742822791952 0.44181729934964387
1.6476031873913746 13.003569149556307 194.0944531497588 75.57478529678765 0.44998230477264245
1.6719523161577314 12.987635449927078 175.23338761709 79.1582017751368 0.45842599150324165
1.6958875912764764 12.970087657720592 158.3500301824672 82.92788205318399 0.46716168563093485
1.7193696780760448 12.950877645012989 143.27732015612602 86.89655646904885 0.47621090875724364
1.7423520443531306 12.929936257401936 129.78615154416983 91.07580213289098 0.4855880014840206
1.7648347437044505 12.907290674228289 117.67345919028828 95.47970812845465 0.49531488404616764
1.7867612285874186 12.882855285615669 106.81676920178208 100.12194321341391 0.5054090824162135
1.8081006161034918 12.856600722725252 97.08018815053185 105.01903173330643 0.5158962948922456
1.828810637638877 12.828466680549475 88.32999739313485 110.18751403795962 0.526799057798175
1.8488904055745046 12.798502327263684 80.4615212780909 115.64502575261932 0.5381407634712526
1.868267689939496 12.766563945405276 73.38721095072218 121.41176604274254 0.5499507103485933
1.886946383946401 12.732746355497598 67.0065726327441 127.50916108666644 0.5622587117200488
1.904870674681 12.69693162192735 61.25534370751066 133.95964283620873 0.5750940365303443
1.922012092725769 12.659115543585765 56.07304833940526 140.78889964753384 0.5884930028286387
1.938325674531312 12.61922857206044 51.39120314998719 148.02461071122886 0.6024938851457394
1.9538223648508972 12.577387811129809 47.161355979150855 155.69528278902075 0.617132477711846
1.9684400851487558 12.533460020420707 43.338048659281135 163.83455091111676 0.6324563428349222
1.9821559713964785 12.487462452638903 39.878612715481985 172.47618585616405 0.6485070369250143
1.9949456914006722 12.43938910919342 36.74477733281397 181.6594800829429 0.6653377407891199
2.006782931389137 12.389230580712477 33.90180448655192 191.42643260454477 0.6830028637195807
2.0176303870560295 12.336959020828376 31.328102743712197 201.82307498303427 0.7015616357680359
2.02746776554967 12.282575345041455 28.99215368791103 212.89935239625623 0.7210767241738398
2.036278061692243 12.226112697133491 26.868488064982657 224.7107492339622 0.7416184580794393
2.044024055344999 12.167520142768785 24.941620396196686 237.31842361563562 0.7632639591604607
2.050684586468629 12.106817151378236 23.187697150956254 250.7892385484278 0.786095820329292
2.056257761896721 12.044073296990272 21.593465832343593 265.1963144636712 0.8102022760198253
2.0607057116780485 11.979226733207474 20.140654546526594 280.62133265061703 0.8356828339553403
2.064013122565185 11.912333244010528 18.8212602705347 297.1540650150521 0.8626446086806977
2.066174250810489 11.843435685645897 17.618623926835685 314.8948850186695 0.891208082634907
2.067168389959191 11.77254768654656 16.52348993725691 333.9531744375974 0.9214990461710654
