M[M_sun], R[km], Lambda[1], P_c[MeV/fm^3], rho_c[fm^-3]
0.24162668629717493 15.618656898711224 2160425.4255784233 3.5677272577965504 0.1711233750220791
0.2536455705623788 15.277262123419229 1723110.5631676752 3.78485524171601 0.17388861723509638
0.26604330332495485 14.981188404266627 1382922.323640165 4.01147640025023 0.17666756643496156
0.2788210040249941 14.723393309411845 1116301.0562047965 4.2478457181455 0.17945887708251307
0.29197807017268945 14.498268754901712 905731.7517889941 4.49458887411167 0.18226912440743795
0.3055154421789997 14.30109941645135 738542.202609786 4.751863364021551 0.18509405168749066
0.31943428173011174 14.128002804780781 604986.4782470255 5.020348447084329 0.18794021112134213
0.3337353596496509 13.97578741174298 497585.08582321566 5.300272294810464 0.19080430610585422
0.3484190804257446 13.84187502494746 410912.1259217404 5.5923588789415835 0.193692539009093
0.36348512300736247 13.723850170233204 340549.8491965221 5.896781379735011 0.19660008160200618
0.3789404623946133 13.619865574402885 283219.08015687315 6.214401523898669 0.19953456478536427
0.3947758215012826 13.528326654596961 236346.98477277232 6.545471731622284 0.20249207768069402
0.41100444760475907 13.44774952536442 197802.45347169304 6.890704495706914 0.20547650157522482
0.42761572522989844 13.376919431604547 164015.63066755413 7.250800667567917 0.20849083041811595
0.44461450806039227 13.314831664687727 139755.81734661967 7.626012200071435 0.2115304978495667
0.4619972120635795 13.260452554596396 117925.30727286272 8.017302241488593 0.214601883325009
0.4797675090281871 13.213051544564854 99766.28335421518 8.425369676441704 0.21770653095492298
0.49792774205358786 13.171892441140125 84606.5936462944 8.85064601839782 0.2208417721250333
0.5164709104791972 13.136314392652242 71910.08008741446 9.294023414578957 0.2240112793655173
0.5353936819082885 13.10575699236196 61247.92618485867 9.756378400913725 0.22721784569724113
0.554703843691964 13.079750517391627 52278.52455319655 10.238513069883526 0.23046271993156286
0.5743901305092493 13.05780661936384 44307.22629382244 10.740909033303403 0.2337427325845149
0.594451245298257 13.039462234816964 38306.810216451864 11.264814374055945 0.23706410483908325
0.6148925704867421 13.024458797395972 32884.43883067199 11.811162463995663 0.24042839063436042
0.6357014638639178 13.012393783585058 28276.614582341783 12.380932972991475 0.24383722411364217
0.6568761825411569 13.002984794937946 24163.801094995055 12.974796578713976 0.24728834631927046
0.6784118204284083 12.995956566806102 21015.860602753743 13.594117140552271 0.25078695435488574
0.700305382407018 12.991047526561568 18161.77283470827 14.240075660544361 0.25433548691384616
0.7225451846028934 12.987989628024199 15719.328763906478 14.913862693998107 0.257935930274836
0.7451369531541793 12.986640076834249 13625.520051162743 15.616482640632391 0.2615879237425128
0.7680618779549151 12.986755137872024 11828.238605673865 16.349252933460633 0.2652938702313759
0.7913129137744144 12.988152010299402 10214.539003711918 17.11376639513274 0.26905821526876683
0.8148904688610719 12.990685847001789 8950.288658587273 17.91147921411496 0.2728833936841557
0.8387790091767188 12.994142759204834 7802.409285943303 18.74372116780351 0.27677016344027927
0.8629651635677072 12.998424782132433 6809.442561629379 19.611908922068483 0.28071964574160746
0.8874503967836881 13.003382289078132 5951.106179163498 20.518095391746403 0.2847378914010236
0.9122114683986052 13.008873973209223 5207.435553564738 21.464076217247996 0.2888279167712498
0.9372345088652058 13.014780326069737 4562.096885656479 22.451290171806658 0.29298927331419067
0.9625246391466863 13.020986510977332 4001.5344026934445 23.481855158498888 0.2972264962533267
0.9880509268064088 13.02736515574501 3514.155400035453 24.558151399877268 0.301545330389657
1.0137989319756637 13.033828412903693 3089.8658774074024 25.682067340562607 0.30594700091709787
1.0397654501546647 13.040296035434128 2719.2424227393108 26.85567445211163 0.3104335770503642
1.0659237324976172 13.046617051376618 2396.4938242624344 28.08201943664918 0.315013403369263
1.0922613421196805 13.052733945664334 2113.9409591527783 29.36309294433272 0.31968647563219255
1.1187633169056868 13.05857585742682 1866.8822884142762 30.701782834930686 0.3244583763540414
1.1454000712164416 13.064034722844047 1650.6551442673745 32.10135558012504 0.3293362556313633
1.17216734958035 13.069032687826994 1460.9139937652967 33.56389667875581 0.33431874277871715
1.1990275137370618 13.073490380521921 1294.393738549476 35.093883321348514 0.3394189566446357
1.2259776556709738 13.077356899017825 1148.0702148955954 36.69325652067404 0.3446331492679419
1.2529787375618135 13.08051438650543 1019.2617308013694 38.367150451753595 0.34997625922795517
1.280024684311453 13.082948628819661 905.8984071060543 40.117899647109205 0.35544539537289915
1.3070792551259445 13.084549504996135 806.0651581448797 41.95080121940727 0.3610540921091367
1.334113885055131 13.085233914774214 717.937242227317 43.86952747081581 0.36680532897549856
1.3611241346416125 13.085026558220857 640.0365612683058 45.87858148369789 0.37270581718346657
1.3880650657924023 13.083775964141903 571.2482067642806 47.98339459695603 0.37876604436110933
1.4149119651347197 13.081448066198828 510.3536284510491 50.18883897720898 0.3849922342335981
1.4416455364991207 13.077998455683678 456.45502683829807 52.499924147627276 0.39139025131112504
1.468241646748647 13.073389569986501 408.6186920165559 54.923178426402195 0.3979723509224147
1.4946535870827238 13.06751264557696 366.1758424068837 57.46479826318469 0.40474760512912855
1.5208668670420702 13.060355693946699 328.5324477511194 60.131418806103646 0.41172579698697576
1.5468524525114173 13.051856254177695 295.01893356326065 62.930153399811545 0.41891747910233545
1.5725701464153388 13.041962262974357 265.20324374921046 65.8686368661425 0.42633403697195166
1.5979841633100715 13.030613574610577 238.6651484512097 68.95507295151549 0.4339877576655534
1.6230934422800138 13.017793378734057 215.01783683059014 72.19828637298049 0.4418919044798398
1.6478349369651795 13.003426040240054 193.89521514452522 75.6077799489553 0.4500607982682316
1.6721835904789772 12.98747696204357 175.0678367808576 79.19332484520166 0.4585079332238689
1.6961201470731728 12.969910974888071 158.20183199679332 82.96547630613472 0.4672480771147234
1.7195996158717084 12.95067842105734 143.1352604885049 86.9368154779627 0.4763020756046243
1.7425842917101277 12.929728123531103 129.64764785802083 91.11874265348774 0.4856835283365109
1.7650595015476813 12.907052823292696 117.55411989263709 95.52574392921842 0.49541589687233817
1.7869708951627037 12.882564337442016 106.72043735442075 100.17111438234214 0.5055151916655298
1.8083202241556688 12.856316701314613 96.9883067378627 105.07159330900355 0.5160079095084118
1.8290324053748017 12.828169936094792 88.24174571113008 110.24374420937927 0.5269166201289515
1.8491029600002635 12.798168077412528 80.38600089924154 115.70545801675078 0.538265595675377
1.8684736533988653 12.766204204321271 73.31029758643494 121.4765103727103 0.5500825060782577
1.8871488839817714 12.732364568922321 66.93805110431683 127.57834610316355 0.5623971977311744
1.9032256650243948 12.698486452119848 61.67937941546708 134.34720180547765 1.3032110250341322
