M[M_sun], R[km], Lambda[1], P_c[MeV/fm^3], rho_c[fm^-3]
0.24162668629717493 15.618656898711224 2160425.4255784233 3.5677272577965504 0.1711233750220791
0.2536460887082179 15.277244247192357 1723080.7085488907 3.7848593399281034 0.17388866831733307
0.26604385637016054 14.981181292912995 1382935.2367847515 4.011485015641234 0.17666767054687738
0.27882241526508683 14.72336631783099 1116318.3753503712 4.247859142322602 0.17945903278273764
0.29197895112522226 14.498256740882312 905783.1253654349 4.49460745947523 0.1822693313597746
0.3055166635890368 14.301084738332321 738527.1863700604 4.751887741792345 0.1850943150139409
0.3194382536823464 14.127927381919726 605002.6077310268 5.020378796981627 0.18794052601324057
0.3337374491016225 13.975758608191049 497553.14886363986 5.300309416053354 0.19080467985517485
0.3484212854032765 13.84185640518099 410900.58430024853 5.592402864363009 0.1936929645801453
0.36348708719099054 13.72381547790389 340556.6987120326 5.896833217752859 0.1966005684756399
0.37894365250591433 13.619841574424406 283211.30738318444 6.214461842042738 0.1995351148142104
0.3947794213961117 13.52830017943842 236337.0681392174 6.545540467416603 0.2024926804007527
0.4110081458522118 13.447711600745416 197798.1605070964 6.890782976385614 0.20547716994961776
0.42761988803865014 13.3769045883142 166016.20451353464 7.250889629843044 0.20849156638021898
0.4446185668559182 13.314796394527981 139749.24786865787 7.626111398198416 0.21153128753044165
0.4620021474080451 13.26043421273312 117931.32496987839 8.0174134061065 0.21460274327320128
0.47977279399184003 13.213038948983213 99763.33512716711 8.425493674705676 0.21770746324852164
0.4979335951783962 13.17188053322068 84603.01458284029 8.850782393220404 0.2208427595370173
0.516477142269882 13.136303570733475 71905.82432478193 9.294174373438619 0.2240123421253005
0.5353997040316294 13.105750428564862 61246.59263615643 9.756544967723006 0.2272189861017864
0.5547106489964124 13.079745958674987 52275.10659769539 10.238694548394475 0.23046391746044925
0.5743974963469207 13.057771671775697 44705.51312518627 10.741108192093124 0.23374401124563657
0.5944591527390135 13.039470115861985 38304.55093027397 11.265032426521433 0.23706546723483354
0.6149014473864042 13.024453656284875 32881.89237217306 11.811400698765397 0.24042983949924635
0.6357103378815938 13.012405599626694 28274.237260625476 12.381192759108611 0.24383876232651863
0.6568857746395209 13.002982396537162 24355.356193030373 12.97507672316802 0.24728994751009112
0.6784230861806341 12.995948537009067 21014.443040785252 13.594421622495483 0.25078864962876996
0.7003170261975875 12.991035255372982 18160.60712299339 14.240406113179345 0.25433727963551866
0.7225563485861097 12.987999122481845 15718.359474848812 14.914220855489837 0.25793782400965276
0.7451495525503405 12.986651842642113 13624.500852211968 15.616866865420803 0.26158988764476476
0.7680751903685172 12.986758527811366 11827.504805876712 16.349668426207383 0.26529594135850926
0.7913262258874249 12.988145873085596 10282.022269528066 17.114215241920512 0.2690603978587035
0.8149043901776212 12.99068984040464 8949.042866081132 17.91196363936486 0.27288569224732845
0.8387937686474953 12.9941543992817 7801.8060247087915 18.74423902258402 0.2767725427150504
0.8629780102078707 12.998428618880752 6808.807116227953 19.612466941767227 0.2807221492240711
0.8874655173261308 13.00339597901881 5950.567293809148 20.518696263167413 0.28474052451275705
0.9122285523048906 13.008879049196302 5206.974541228609 21.464722811226242 0.28883068529941947
0.9372545382720513 13.014779865592596 4561.758187765603 22.451979794354585 0.2929921376136432
0.9625442848579018 13.020982053212453 4001.242610566501 23.4825964666634 0.2972295069260469
0.9880690686244975 13.02737437184258 3513.569118649979 24.558947884349642 0.30154849444435683
1.0138175383561328 13.033835126157399 3089.533358254618 25.682915917577052 0.3059502757392233
1.0397876930557737 13.040287133790226 2719.0528706304 26.85658549919272 0.3104370188221847
1.0659438577959501 13.046617925865641 2396.2402744181372 28.082997220149437 0.31501702061560327
1.0922810804809424 13.052743707574688 2113.7770387597116 29.36413399794878 0.3196902227860002
1.1187849847353222 13.05858085241265 1866.6923434305477 30.702899592188494 0.3244623157876324
1.1454225094125032 13.06403899142958 1650.4949469056521 32.10254439518271 0.32934034028280795
1.172189545663444 13.069038506680215 1460.7424852043148 33.565171501373094 0.33432303906237715
1.1990509851601154 13.073499257588725 1294.280339466032 35.09525017099637 0.33942347644586746
1.2260024152937086 13.077356581071104 1147.9329208346182 36.69471142969263 0.3446378425792208
1.2530021569050935 13.080519848421847 1019.2134513986277 38.36869932675692 0.3499811364868553
1.2800499604625124 13.08295084755266 905.8192540104347 40.119560099567614 0.35545053225808415
1.3071047737793575 13.084554132428186 805.9889917827261 41.95256927629721 0.3610594372129744
1.3341382086174958 13.08524369189028 717.771185141391 43.871422962988035 0.36681096335851077
1.3611512857086687 13.08502543074534 639.9740979825726 45.88060043811891 0.37271168802866866
1.3880922525262194 13.083774354089128 571.1893276394277 47.9855456406299 0.3787721669257772
1.4149382079082906 13.081443917863059 510.2760259226649 50.191145707029676 0.38499869794476255
1.441673277632773 13.07799792886223 456.3858099049549 52.502382900385626 0.3913970021249844
1.4682701747898341 13.07338469851799 408.5731432065551 54.92580009374119 0.3979794079793947
1.494681880760816 13.06750602837879 366.1295308356322 57.46759461920913 0.40475498904968976
1.5208960254302166 13.060346546916923 328.4965677022755 60.1344025864116 0.4117335299931964
1.5468810097268193 13.051849157543272 294.98403053842577 62.93333838841456 0.41892558515154793
1.5725993306143178 13.041948413623716 265.17328104283683 65.8720379911519 0.4263425419037236
1.5980130983534213 13.030599592428276 238.637782560461 68.95870639058174 0.43399668936346186
1.6231224121315373 13.017776113507612 214.99449481113234 72.20216966959173 0.4419012930496549
1.6478635934257704 13.003408504536438 193.87430234610625 75.61193214083815 0.45007067623432095
1.6722129080231793 12.987457935720277 175.0458665263598 79.19774491357836 0.4585182451928229
1.6961488137995353 12.96988796928479 158.18387501321195 82.97020739652886 0.46725894914666993
1.719628563613045 12.950653224218541 143.1178449455342 86.94188195660435 0.4763135486859927
1.7426119675651315 12.929702718274985 129.62724979267577 91.12414662881822 0.48569555019248944
1.765088649568855 12.90702129416347 117.53992804595902 95.53153748613424 0.4954286092298498
1.7869985141216764 12.882526538104806 106.7117953713073 100.17730256627843 0.5055285454979975
1.8083472434005878 12.85628123083509 96.97383619969264 105.07820822397481 0.5160219562942187
1.8273320524950234 12.829367867306665 88.85164751719581 110.49485964330147 1.2150454980651682
