M[M_sun], R[km], Lambda[1], P_c[MeV/fm^3], rho_c[fm^-3]
0.24162668629717493 15.618656898711224 2160425.4255784233 3.5677272577965504 0.1711233750220791
0.2536439605703591 15.277276472521384 1723139.2266693895 3.7848187868489367 0.1738881628427647
0.26603985943927005 14.98125235093505 1382987.6233893859 4.0113997642589885 0.17666664033423488
0.27881462383203875 14.723533345207354 1116373.7468692202 4.2477263077130365 0.17945749210144415
0.2919689209283462 14.498426588683616 905869.6741178337 4.494423555194739 0.1822672835429294
0.30550506759070506 14.30122676955766 738672.5275388038 4.75164652255858 0.18509170938584243
0.3194203443585278 14.128144861897383 605119.0384417132 5.020078485116234 0.18793741016172738
0.333719429295615 13.975944233792122 497676.2380529257 5.29994210414115 0.19080098163369963
0.34839947117522413 13.842039537884364 411013.2595200621 5.591967634499649 0.19368875361148966
0.3634633559266257 13.723969214799924 340655.12113432924 5.89632029068503 0.1965957509560719
0.37891530313856614 13.62001239377757 283309.39236308134 6.213865009462148 0.19952967241970862
0.3947473139732426 13.52846441508279 236409.59024112116 6.544860348174732 0.20248671667379756
0.4109721447354357 13.447880567097796 197867.50492136154 6.8900064392479505 0.20547055663349226
0.42757942950878297 13.377075041456708 166090.27232437837 7.250009386496068 0.2084842843525965
0.4445744817538543 13.314955312164734 139808.93927324985 7.625129880793526 0.2115234740207851
0.46195453227931776 13.260592072550011 117978.32673083745 8.01631349257357 0.21459423455278215
0.47972021034280027 13.213158269484802 99816.78761778437 8.424266786432767 0.21769823876386774
0.49787668656432105 13.171992466055288 84643.45633666021 8.849433053317853 0.22083298973959423
0.5164148601842776 13.136406665922609 71941.78623581119 9.292680742675794 0.22400182687161316
0.5353335549112231 13.10584428087295 61279.68680024172 9.754896916916442 0.22720770267360055
0.554638184987349 13.07983565580951 52301.08242020782 10.236891121496962 0.23045196801330226
0.5743217151674791 13.057843554049345 44732.22399104524 10.739137689781206 0.2337313600104088
0.594378149705977 13.039525287070678 38329.37125130236 11.262875000128023 0.2370519875956861
0.6148139821368432 13.024508255657501 32902.1674103898 11.809043600705442 0.24041550441031054
0.6356187208610445 13.012433739760638 28292.83155853308 12.378622446399397 0.24382354331424255
0.6567883124810703 13.003016088978391 24371.9042848936 12.972304999259626 0.24727410547282963
0.67832027826586 12.99597898424203 21029.56955450857 13.591409122791495 0.2507718768375151
0.7002061072199949 12.991063300289769 18173.41489134313 14.23713668185723 0.2543195428110316
0.7224413107027164 12.988004500913615 15730.916990111773 14.910677298547624 0.2579190878883454
0.7450283369524263 12.986641045538175 13634.841285560284 15.613065462895614 0.26157045739662593
0.7679483219335285 12.986759846630852 11837.209787301046 16.34555769148863 0.26527545037694417
0.7911922963005561 12.988142448335148 10289.553298000114 17.10977453978129 0.26903880422794835
0.814765037750912 12.990669561368755 8956.776659531617 17.907170966309124 0.2728629513563715
0.8386484748064497 12.994130605730712 7807.8791690318785 18.739115637666274 0.27674900341226394
0.8628277101555891 12.99839632421368 6814.907991654255 19.606946217937832 0.28069738121798693
0.8873050164431668 13.00334785397418 5955.839974125647 20.51275162366034 0.28471447418070617
0.9120634588028678 13.008841744120177 5211.463207226999 21.458325859123423 0.28880329540298927
0.9370837628552053 13.014734919976723 4565.561986837823 22.44515717970591 0.2929638003566003
0.9623612655104927 13.020929637627738 4004.6292343091563 23.475262556005536 0.2971997217357481
0.9878859524779231 13.027341605355387 3516.830724537917 24.551068150153625 0.3015171920010815
1.013627610547679 13.033789925497953 3091.974009033952 25.6745208647865 0.3059178776137087
1.039591872672513 13.040242779156314 2721.6651088462254 26.84757247836912 0.31040296925248373
1.06574187409164 13.046566905366356 2398.5379313539643 28.073324032361317 0.31498123528775057
1.0920729957710302 13.052703988431583 2115.891838882736 29.353834931184704 0.3196531524693087
1.11857055257279 13.058535322118624 1868.7397645196115 30.691851663221936 0.32442334350231494
1.1452011181994242 13.063988570144566 1652.2091210825524 32.09078366722783 0.3292999315799401
1.1719640627552224 13.069002222916085 1462.1789327844533 33.55255999615118 0.3342805369894787
1.1988195258878493 13.073457151216619 1295.5075601143292 35.08172835155014 0.3393787634547323
1.2257651384304558 13.077324929714202 1149.167463284283 36.68031854132947 0.3445914133493325
1.2527606871947583 13.080495358514488 1020.2349747358605 38.353376948039724 0.3499328877851784
1.279800434583817 13.082935123384193 906.7167371145047 40.10313404021325 0.3553997155180336
1.3068441380762854 13.084517270751489 806.8246843229404 41.93507883345029 0.3610065609544577
1.333877103998849 13.085245325917702 718.6000286830968 43.85267199874698 0.3667552257955018
1.36088850561119 13.085034503368785 640.6619189580392 45.86062824891596 0.3726536116154833
1.3878192828818072 13.08377463914159 571.8565808874639 47.964266901682336 0.378711600765806
1.4146765335384643 13.08148786117331 510.8704603801669 50.168327038913375 0.3849347575220315
1.4413990447373126 13.078034075637598 456.9185194485431 52.47806053397336 0.39133022201961953
1.4679932004336589 13.073439428852236 409.04489404391524 54.89986630897979 0.39790959889490646
1.4944019066293972 13.067574549726885 366.5656352194598 57.43993296943212 0.4046819470540495
1.5206128463935407 13.06043220327682 328.8625902755218 60.10488711690657 0.4116570353167355
1.5465969103937367 13.051947224750084 295.3189428928567 62.90183277700622 0.41884540086570654
1.572312415068811 13.042068026968876 265.48876367325715 65.83839460211607 0.42625841246786444
1.597736789823705 13.030741722991813 238.94510751619597 68.92276523214642 0.43390833902545684
1.6228242751185027 13.017923982246838 215.26491513621542 72.16375724408591 0.4418084240842541
1.6475752262176764 13.003588161496856 194.11486984901572 75.57086017519116 0.4499729670013831
1.6719254249241067 12.987654770474315 175.25153453992374 79.15402347734035 0.45841624358228533
1.6958610373784222 12.97011181795298 158.3691474878177 82.92340981289718 0.467151408435781
1.7193424227396834 12.950900840321253 143.29188184778414 86.89176726413504 0.47620006356444755
1.7423284346126884 12.929962557087313 129.79022249182654 91.07069396988791 0.485576637701586
1.764808200534273 12.907319485738043 117.68744883368534 95.47423179806925 0.4953028677544969
1.7867330284790797 12.882886433682335 106.83210790659965 100.11609394723318 0.5053964599535586
1.8080741035416665 12.856634914750769 97.09340118040954 105.0127791996397 0.5158830176238984
1.8287850543643245 12.828503176329567 88.33901755029343 110.18082515225512 0.5267850731174625
1.84886537143796 12.798541412456286 80.4745088124399 115.6378370693939 0.5381259141323328
1.8682522281486076 12.76663654398454 73.38656333757058 121.40406448256297 0.5499350327943747
1.8869226124423901 12.732791621956734 67.01526890965134 127.50090340957142 0.5622421386280082
1.9048461305691622 12.696981499596394 61.26196735610099 133.95081208196498 0.5750766018795423
1.9219895484651226 12.659168268545233 56.07974423271469 140.77941475358887 0.588474522648311
1.938305051466862 12.619297242337659 51.39801991375559 148.01441487705497 0.6024742729514315
1.9538016481181533 12.577446449483352 47.16709443969838 155.68434721123577 0.6171117536972767
1.9684202712732524 12.533524137130563 43.34414906320496 163.82280932005403 0.6324344094452377
1.982136888559089 12.487529555976561 39.88263609643859 172.4635301399416 0.648483669528757
1.9949263302272557 12.439460797055858 36.747836968460376 181.64586436327374 0.6653129395669499
2.0067656673587644 12.389305169335568 33.905053272700584 191.4117684622458 0.6829765018151
2.0176148633730633 12.337037289185167 31.330163850290628 201.8072648813996 0.7015335743971722
2.027453383563313 12.282658058730446 28.994870291034808 212.88232849341128 0.7210469418743204
2.0362661484034303 12.226198927398393 26.87273357399456 224.6923539575848 0.7415866614062915
2.0440139853332284 12.167610784380805 24.94544233395451 237.29856734796616 0.7632301024000565
2.05067511421085 12.106912128236214 23.190165479801376 250.7677778321814 0.786059710118032
2.056250903397121 12.044172442716441 21.5959995074861 265.1730459658165 0.810163555887524
2.0606996380062443 11.979333630431064 20.143758834633417 280.59616792682124 0.835641557951277
2.0640072872431126 11.912439612127514 18.82260087939908 297.12676314152344 0.8626003747536011
2.066171797055161 11.843548494488124 17.620007692522037 314.8652267593322 0.8911606055950386
2.0671679792254616 11.772664479722202 16.52495080969118 333.92096417993844 0.9214481726420303
