M[M_sun], R[km], Lambda[1], P_c[MeV/fm^3], rho_c[fm^-3]
0.24162668629717493 15.618656898711224 2160425.4255784233 3.5677272577965504 0.1711233750220791
0.25364154035435926 15.277364843089474 1723280.0219247555 3.784794376796207 0.17388785858323322
0.26603693190548483 14.98129800816559 1383112.6194629667 4.011348449650093 0.1766660202274702
0.2788109366083631 14.723588899690782 1116466.9075618002 4.247646352694291 0.17945656474371635
0.2919636242962735 14.498519131388989 906028.2729226045 4.494312861892033 0.18226605094731319
0.3054966881357329 14.301356095714429 738784.5599107413 4.751501332662874 0.18509014105786972
0.3194110090273821 14.128265016074621 605180.0984677507 5.019897729342542 0.18793553475081
0.33370812410573725 13.976041831560927 497761.32055904 5.299721023976846 0.19079875572328342
0.3483862612992801 13.842093876372413 411058.02003169624 5.591705678189714 0.19368621911212935
0.36344772061294855 13.72409180959637 340727.9478786549 5.896011573371423 0.19659285141773095
0.37889862632967936 13.620106184479981 283356.5443486524 6.213505795574857 0.19952639682157822
0.3947283534374762 13.528565160920262 236458.40618680275 6.5444510108960365 0.202483127338851
0.4109502206734485 13.448003488241698 197920.2519925839 6.8895390768292994 0.205466576379014
0.4275558209770829 13.377159650110313 166130.6092703232 7.249479613696316 0.2084799016779933
0.4445484476427449 13.31503656173551 139843.7403785006 7.624539162057674 0.21151877151981682
0.46192627408942244 13.260665623010139 116702.400132417 8.015651525007693 0.2145891136984823
0.47968858988348434 13.213245122843281 99841.04202213134 8.423528408639308 0.21769268719509413
0.49784210936473916 13.172070882767638 84670.3249734879 8.848620987980249 0.22082711003958116
0.5163764588445996 13.136493905525365 71962.89034878566 9.291781848914832 0.22399549860349652
0.5352931621853635 13.105924276935674 61300.8632263286 9.753905100635736 0.22720091217434388
0.5545957173384873 13.079874608815402 52320.44971167479 10.235799918325641 0.230444701025861
0.5742738372720674 13.057901781053674 44748.20916955343 10.737951841078798 0.2337237464944094
0.5943286427132026 13.039572290274496 38344.47738050606 11.261576673709673 0.23704387562872933
0.614762966559799 13.0245325309946 32915.810244386055 11.807625127504487 0.24040687772657846
0.6355606024189515 13.012454483293922 28307.107964694074 12.377075678930696 0.24381438478928563
0.6567292879373916 13.003052607237073 24382.329784544134 12.970637040469711 0.24726457210436517
0.6782570161228597 12.995996338313748 21037.796353599864 13.589596289106195 0.2507617834652426
0.7001415244927368 12.99106580897492 18180.745992268407 14.23516925422864 0.25430886942012615
0.7223715372227831 12.98800826195115 15737.087917247794 14.908544933505302 0.25790781327056556
0.7449555602408469 12.986650242110462 13640.958980436144 15.610777956329967 0.2615587651804254
0.767871490029721 12.986772965156998 11841.450237345387 16.34308406836598 0.2652631199860838
0.7911132209856976 12.988126295579947 10294.348004898535 17.107102386899914 0.2690258104533531
0.814681175225245 12.990661733183972 8961.257532844189 17.90428704754563 0.2728492673680488
0.8385625810947284 12.994110709403575 7811.570982568823 18.73603274377767 0.276734839109978
0.8627379887038289 12.998388126197284 6818.551813023073 19.603624267473588 0.2806824777212984
0.8872076891101306 13.003328945046366 5958.88292314139 20.509174630022272 0.2846987992399625
0.9119653668378493 13.008816234872072 5214.33437641473 21.4544767410678 0.28878681459412964
0.9369803723968839 13.01470983327227 4568.032356318073 22.441051970300045 0.2929467496538801
0.9622547907938707 13.020909873528929 4006.825545582861 23.470849742946132 0.29718179999073935
0.9877754753907791 13.027303875298083 3518.7424733404196 24.546326965288678 0.30149835752435916
1.0135147437772023 13.0337545911616 3094.1092391365187 25.669469659320306 0.3058983840390074
1.0394727694425934 13.040210307082539 2723.2098044649238 26.842149506908175 0.3103824822428163
1.0656233837137326 13.046548984551565 2399.7316408359366 28.06750391341203 0.3149597041369755
1.0919478959874327 13.052668649704476 2117.2138696255424 29.347638290626605 0.3196308483680562
1.1184407722076533 13.058512484735054 1869.7869245686056 30.68520452795083 0.3243998953019225
1.1450688072565458 13.063963756459094 1653.1813563557068 32.08370773022039 0.32927561935733424
1.1718268701462193 13.068980727406615 1463.1335766483814 33.544972267520755 0.33425496556166656
1.1986792515760283 13.073437068576052 1296.3286540220215 35.07359302386794 0.3393518621315796
1.2256218539953168 13.077311420582406 1149.8339197543694 36.67165922039741 0.34456347972043977
1.2526135984177384 13.080481832454184 1020.8766929150444 38.344095411018344 0.3499034896732136
1.27965319623932 13.082918069355475 907.464654896066 40.09325169460206 0.35536914284219095
1.3066920439714862 13.08451612292891 807.2994134058156 41.92455622937658 0.3609747495281753
1.3337258122855016 13.085231742287569 719.1231983137335 43.84139117654733 0.36672169335791277
1.3607312830381741 13.085039780571455 641.1166184763867 45.84861284296759 0.372618672447155
1.3876593949551508 13.083785777662507 572.2469088199659 47.951465597698586 0.37867516412231744
1.4145128315364177 13.081505970720764 511.21681917530674 50.15459948691073 0.38489629140851256
1.4412337171681375 13.078061237623903 457.2041053116807 52.46342852334967 0.39129004800058753
1.4678265757903706 13.073470633494392 409.3338588969646 54.88426506013788 0.39786760313884745
1.4942332930082245 13.067614116173031 366.82538555371804 57.423292456001164 0.40463800693047497
1.5204432818164162 13.060481380415336 329.08518548813316 60.08713159602945 0.4116110186736779
1.5464260498234126 13.05200606600518 295.53041026163953 62.882880272762534 0.4187971652356155
1.5721408347320251 13.04213894116605 265.6753237914706 65.81815633686368 0.426207804194226
1.5975634545508814 13.030824901162925 239.1128557675369 68.90114499992706 0.43385519230154795
1.622651045522714 13.018023251312558 215.40933414499074 72.14065071952247 0.4417525598944259
1.6474015716871921 13.003694769669686 194.25046156113177 75.54615415048886 0.44991419195410753
1.6717516008362268 12.987777957656402 175.37121759071027 79.12772400123876 0.4583548872054259
1.6956896364644058 12.970245016962098 158.49024822699738 82.89526033681094 0.4670867210217194
1.7191535973961514 12.951016599072265 143.4035478639304 86.86162290723361 0.47613180142737155
1.7421579583026796 12.930130390409458 129.8926008079701 91.03854218386267 0.4855051118123268
1.7646430131129118 12.90750577895158 117.76878843457798 95.43976290951296 0.4952272353164756
1.786569027957778 12.88308290823248 106.91034032984574 100.07927794484365 0.5053170126176191
1.8079095428849232 12.85684576228204 97.16565543980688 104.97342520616462 0.515799449336265
1.8286227566588131 12.828733997787173 88.40206341806072 110.13863895564114 0.5266967326973954
1.8487066686246034 12.79878750236907 80.52937439514365 115.59259144912038 0.5380324522939108
1.8680967838713871 12.766906747169172 73.44246219199341 121.35559111503355 0.5498363587815922
1.886772636816992 12.733079602355042 67.06511015832385 127.44893019671099 0.5621378288044989
1.9046990093837168 12.697288732116617 61.30854058417123 133.895232289138 0.5749668701111293
1.9218461865442478 12.659500006326201 56.11912549075632 140.7197182902109 0.5883582112362331
1.93816785892473 12.619634809593455 51.43473721845031 147.9502443230118 0.6023508376980453
1.9536698020278658 12.57783017388528 47.20195385156107 155.61552131073975 0.616981321726267
1.9682946341818546 12.533921964017146 43.37517990940785 163.74882592519035 0.6322960787019797
1.98201973305184 12.487954583453387 39.91178684336896 172.383879272501 0.6483366029108736
1.9948165357131582 12.439903197127121 36.77384410257141 181.56017218531593 0.6651568500766104
2.006656315822622 12.389758775183067 33.93267275938687 191.31947861620054 0.6828105912520142
2.0175197012566692 12.337531601755911 31.354562713371507 201.7077636473614 0.7013569695217419
2.027366591167759 12.283181036064763 29.014816570736564 212.7751889835055 0.7208595077116935
2.0361870251914684 12.226744255858883 26.8912983577695 224.5765847329777 0.7413865515454838
2.0439432344334767 12.168183385347504 24.962450242120305 237.17360451667716 0.7630170292934275
2.0506147163997683 12.107511395962232 23.206107740422546 250.6324945749503 0.7858317270126616
2.056194257479781 12.044777794037161 21.610276790725475 265.02661135989354 0.8099198801955968
2.0606614034762445 11.979983893103539 20.157179380174647 280.43779710868284 0.8353817862023611
2.0639866823137405 11.913134975645235 18.83654171064051 296.9549486231049 0.8623220044478461
2.0661561537190845 11.844256035407764 17.631908724335666 314.67858504866433 0.8908618289258585
2.0671629965407967 11.77339975084033 16.535514449218393 333.71826455295445 0.921128024772741
