M[M_sun], R[km], Lambda[1], P_c[MeV/fm^3], rho_c[fm^-3]
0.24162668629717493 15.618656898711224 2160425.4255784233 3.5677272577965504 0.1711233750220791
0.2536448786251143 15.277247744886223 1723245.631863253 3.784836221921418 0.17388838016253222
0.26604097533661986 14.98123262211317 1382960.2969155936 4.0114364164101355 0.17666708325385086
0.2788173542565444 14.72349567543081 1116420.8841314057 4.24778341709568 0.17945815448422084
0.29197306777822324 14.498359297293263 905859.3355075251 4.4945026205611835 0.18226816395413487
0.3055096343802783 14.301152171044121 738588.0887695086 4.751750228726662 0.1850928296103839
0.3194281531249456 14.128053587126399 605037.3865708117 5.020207596176297 0.18793874973880784
0.3337246193731011 13.97591126821352 497645.9657307483 5.3001000194438275 0.19080257157876873
0.34840885307436625 13.841961333302335 410965.34751616605 5.592154748488906 0.193690563990809
0.3634731184718614 13.72391494278937 340623.72987087927 5.8965408073815 0.19659782209555146
0.378927473790227 13.619945254739358 283270.5453055894 6.214121597664454 0.19953201219516137
0.3947611060140906 13.528397656339887 236371.76464489038 6.545152741646389 0.20248928056953977
0.4109874587718482 13.447829199878088 197840.54961230772 6.890340282940239 0.20547339978646786
0.4275967849013656 13.377027139378466 166063.8644691095 7.250387813431148 0.2084874149816479
0.4445931215129116 13.314874955722859 139778.43590992596 7.625551845193405 0.21152683312873036
0.461976447505388 13.2605154067479 117962.68749205144 8.016786354910575 0.21459789252525166
0.47974237252434765 13.21311169056668 99790.91188573452 8.424794234339895 0.21770220443477067
0.49790120056584697 13.171950129373775 84627.09134252794 8.85001314214051 0.22083718983052317
0.5164430132582266 13.136345248705446 71930.21835147991 9.293322860587368 0.22400634742174205
0.5353616377435546 13.105808645639693 61262.58873401235 9.755605418029187 0.2272125534472499
0.5546695322898131 13.079795125027388 52295.00209271245 10.237670624514498 0.23045715919931395
0.574354544412152 13.057810760315224 44720.4474237353 10.73998480782879 0.23373679877067866
0.5944132186726148 13.039501021073853 38322.295573961754 11.263802473388315 0.23705778246540024
0.6148520013330538 13.024478728907663 32894.77813314368 11.810056908740966 0.24042166701383366
0.6356582644401121 13.012431609107937 28285.208398436174 12.379727410649696 0.2438300858895602
0.6568303741351703 13.003005026033101 24365.229830979155 12.973496545521403 0.24728091586264542
0.6783634425760638 12.995969948843795 21022.65561868783 13.592704172349107 0.25077908732648735
0.7002543589608725 12.991044908337004 18167.427885633657 14.238542179194061 0.2543271677026792
0.722490559912472 12.987995751280208 15725.169341126611 14.912200634369787 0.25792714233906294
0.7450789915711106 12.986658319741855 13630.669218363759 15.614699638788494 0.2615788102197986
0.7680023254971186 12.986759822533216 11833.130690532937 16.34732483907691 0.2652842591644558
0.7912500830033707 12.988141346562768 10287.276161052256 17.111683528847404 0.26904808699533894
0.8148268365630423 12.990671628846906 8953.454844800022 17.909231254725885 0.2728727272775914
0.8387110398300434 12.994141128319818 7805.574418307259 18.741318086924878 0.2767591225270294
0.862893711860821 12.99841929722403 6812.064862349091 19.609319467233355 0.280708028490846
0.8873444981505006 13.003351141270782 5954.434060629262 20.5279843431359 0.28474597289626663
0.9059963253419722 13.00279516540002 5366.256295213363 21.57069230271829 0.5185743070671478
0.9165757565825673 12.98857752609131 5015.405290503669 22.83753671555148 0.712478163685166
0.9221827705869443 12.961838676755239 4778.131557106901 24.313439169391447 0.8886617580468199
0.9245836057084968 12.924308628210966 4599.962393557197 25.989673288580377 1.0491526741733443
0.9247824368929279 12.876993101628463 4453.296420253813 27.86171557312848 1.1946106355387092
