M[M_sun], R[km], Lambda[1], P_c[MeV/fm^3], rho_c[fm^-3]
0.24162668629717493 15.618656898711224 2160425.4255784233 3.5677272577965504 0.1711233750220791
0.2536447640533255 15.277245394233534 1723181.9621112114 3.7848346472164662 0.17388836053459467
0.2660408306208837 14.981266401340315 1383044.046482792 4.011433106042754 0.1766670432500147
0.2788169604348492 14.723487670624895 1116452.448441562 4.247778259046974 0.17945809465862886
0.2919726433934018 14.498351147286865 905819.9211723318 4.494495479455239 0.1822680844362628
0.30550905016205854 14.301171773971607 738600.3586194215 4.751740862061223 0.18509272843252061
0.3194267894253765 14.12807611177799 605052.8047504047 5.020195934928262 0.18793862874885864
0.3337271232472523 13.97588737924012 497642.51824625675 5.300085756571187 0.1908024279753076
0.3484080032859117 13.841968553212487 410970.1329082891 5.592137848354221 0.19369040047735686
0.3634735409690043 13.723889739609916 340634.890062359 5.896520890260604 0.1965976350297371
0.3789261978922208 13.619947880559183 283270.3366329874 6.2140984224943185 0.19953180086551445
0.39475973335970455 13.528404928358126 236384.22603335322 6.545126332462349 0.20248904899667278
0.4109860422699931 13.447812609599946 197837.67728862338 6.890310129863803 0.20547314299021568
0.42759519489624276 13.377008532409567 166057.85743342765 7.250353633464905 0.20848713221954676
0.4445910626007027 13.314884435244437 139783.82326435496 7.625513732782846 0.2115265297294361
0.46197458739133856 13.260522348444791 117960.37588828213 8.016743645217815 0.21459756213124886
0.4797419538101442 13.21309825013618 99795.10770660618 8.424746594268006 0.21770184624802966
0.4978988523166499 13.171949079250282 84626.85170142236 8.849960747325767 0.22083681046967785
0.5164391095176837 13.136366395118209 71925.51039643475 9.293264863031313 0.22400593911533168
0.535359045314252 13.105812453837453 61263.636265010864 9.755541424429664 0.22721211531319377
0.5546669103794087 13.079794915528254 52296.07540981017 10.23760021766785 0.23045669031718105
0.5743516901765553 13.057827292223982 44722.62552728264 10.73990829364255 0.23373630752590185
0.5944106315241754 13.039498409838526 38322.101602853756 11.263718701075106 0.23705725905447134
0.6148501588553216 13.024472786059395 32895.52051485098 11.809965383332331 0.24042111038664238
0.6356547974571642 13.012425021914567 28286.20015620572 12.379627606293852 0.24382949494056347
0.6568265747243945 13.003002968551964 24365.699482858847 12.97338892054111 0.24728030072239177
0.6783598479918276 12.995969626913402 21023.21507065669 13.592587198269142 0.25077843604614936
0.7002502383322299 12.991043919864762 18168.605486108594 14.238415228712656 0.25432647899012173
0.7224860192958523 12.988004425569567 15725.361625102752 14.912063039875513 0.2579264148251051
0.7450755476194799 12.986652127999632 13630.856686090105 15.614552032421383 0.26157805575396115
0.7679980039526847 12.98676311029538 11833.48142794856 16.347165221692162 0.26528346351182625
0.791244437520104 12.98814527409623 10286.42411583607 17.111511099220195 0.2690472485284514
0.8148228028532464 12.99065571716304 8953.88008859721 17.909045158505453 0.2728718442643319
0.8387044139353276 12.994146026037681 7805.564928100218 18.741119149574498 0.27675820851283733
0.8628871353404588 12.998408439929038 6812.311252820013 19.609105101745058 0.2807070667680932
0.887371251210813 13.00337177384575 5953.82782484511 20.515076270931168 0.28472466114548917
0.9121284674964935 13.008853230233061 5209.803322953436 21.46082737305044 0.2888140061612189
0.9371507935882855 13.014745012941324 4564.044946787085 22.44782513948041 0.29297488154259765
0.9624357357697901 13.02096398306906 4003.3869683601156 23.478130444866558 0.29721136908454554
0.987956461011191 13.027347354019264 3515.5181746098247 24.554149468173954 0.3015294326148059
1.013701503326819 13.033803735775493 3091.05604074228 25.677803684054588 0.3059305466454995
1.039667707865719 13.040262717061555 2720.5983489708947 26.85109693479637 0.3104162840142186
1.0658214067112735 13.04658381001972 2397.53529377385 28.077106625255997 0.3149952287436655
1.0921549115168288 13.052720662489353 2115.031807840321 29.357862253685653 0.3196676483575235
1.1186544708999866 13.058551564769425 1867.8253897390837 30.696171800904995 0.3244385830679299
1.1452886450966955 13.064001535834265 1651.5749910811826 32.09538251929966 0.32931573278269016
1.1720521065387661 13.069015537787665 1461.564633662736 33.557491510509266 0.3342971567013258
1.1989100331583076 13.073477121149114 1295.002555654751 35.087015805880746 0.3393962476327715
1.2258572945925517 13.077346078431423 1148.649323820084 36.68594659095231 0.34460956856621244
1.2528543262672267 13.080496533735445 1019.8261344219687 38.359368434686544 0.34995175440224613
1.2798987148298686 13.082944428465234 906.3881557802039 40.10955706858617 0.3554195862220243
1.3069431598898251 13.084526523808599 806.5129500289593 41.94191803892313 0.36102723690873717
1.3339815262753032 13.085238560744209 718.3634584020155 43.8600040661018 0.3667770204915463
1.360991944749091 13.08502932956843 640.4064655377589 45.868437814020524 0.37267632076995816
1.3879241605532868 13.083767944789184 571.6159776438541 47.97258732403164 0.37873528337370294
1.4147740986065536 13.081463279091384 510.63922861541863 50.177249561976254 0.38495975941493604
1.4415058696717158 13.078022174947556 456.716431095181 52.48757099249618 0.39135633417546234
1.4681014861686579 13.073418363005649 408.8698228922958 54.910006817563435 0.3979368953202829
1.4945119814688606 13.067547046932768 366.4028423889347 57.450749054180555 0.40471050747692405
1.520723713053653 13.060398705368083 328.7261244941709 60.116428020884285 0.4116869456563183
1.5467080379162848 13.0519060008 295.18008558034006 62.914151796176625 0.4188767537489007
1.5724244191724115 13.042021782989675 265.3697312212972 65.85154945515531 0.42629130779728036
1.5978384463066746 13.030682232110893 238.83047973001956 68.93681846794017 0.43394288460457825
1.6229360194372209 13.017861110665265 215.15486604884182 72.17877669118391 0.44184473630600307
1.6476881159652992 13.003517695215908 194.02428540708289 75.586919438027 0.45001117160709214
1.6720371432217127 12.987579179325484 175.16629441817298 79.17111862076392 0.4584561263563114
1.6959740759923096 12.97001912456073 158.3046925449361 82.94170764155322 0.46719345679274066
1.7194543773799955 12.95080341980985 143.22548693439458 86.91136197867641 0.47624443595210075
1.7424296151111736 12.929827119023185 129.73739383343528 91.09159372615704 0.48562313196636103
1.7649174086017387 12.907200762293884 117.63212689251695 95.49663794948621 0.4953520318537562
1.786844078428244 12.882760908382679 106.7879452830157 100.14002600404642 0.5054481042938987
1.8081816916766973 12.856494705130482 97.04878179577588 105.03836127225054 0.5159373412087097
1.828894692460191 12.82836313903688 88.29570964139496 110.20819261569397 0.5268422912035554
1.8489683909286359 12.798377274524247 80.43128438201624 115.66724953250747 0.5381866701316647
1.8683439019112702 12.76643199222409 73.35972807847898 121.43557546295378 0.5499991776029644
1.8870187929177202 12.73260714193488 66.98107606035087 127.53461055797803 0.5623096645001926
1.904942206940734 12.696779927211377 61.232600088709376 133.98694335549587 0.5751479362321531
1.9220814894187752 12.658954749998635 56.052885403983524 140.8182225713239 0.5885501350351261
1.938393043814694 12.619058325043733 51.371275876291115 148.05613166089205 0.6025545172606817
1.9538874064619658 12.577206106740453 47.14643456882772 155.72909081913855 0.6171965473131508
1.9685009224087155 12.533263992524367 43.32337757247756 163.8708509215771 0.6325241515561363
1.9822139731832513 12.48725721806181 39.864059285328395 172.5153121257085 0.6485792793037504
1.994998741992877 12.439167765180812 36.730380378696026 181.70157446237675 0.6654144162849303
2.0068329309216657 12.38900099153733 33.89002422440828 191.47176848360712 0.6830843645730932
2.0176769659848928 12.336716025578006 31.316258698122596 201.87195394468844 0.7016483911034601
2.0275125923131 12.282322615151028 28.981661103363532 212.95198420346287 0.7211688003716868
2.0363166924218996 12.22584444262939 26.859387700617518 224.76762110963796 0.7417167624704721
2.044057194247702 12.167240599683112 24.932965637835146 237.3798126575114 0.7633686331161524
2.0507131303544788 12.106522268645618 23.17923729722932 250.85558833593518 0.7862074617496642
2.056282748744012 12.043764702356167 21.58664424174307 265.2682537282561 0.8103219871356778
2.06072566553364 11.978904349937489 20.135809154594796 280.69913485987576 0.8358104476868302
2.064025627478795 11.912000173485556 18.81480428696317 297.23847514430463 0.8627813682147879
2.0661834472464173 11.84308633313929 17.612664397409894 314.98658098232704 0.8913548698375148
2.0671703887473662 11.772185052396665 16.518649930089623 334.0527610982307 0.9216563353466094
