M[M_sun], R[km], Lambda[1], P_c[MeV/fm^3], rho_c[fm^-3]
0.24162668629717493 15.618656898711224 2160425.4255784233 3.5677272577965504 0.1711233750220791
0.2536435533735852 15.277306355643319 1723238.130165961 3.784811832608246 0.17388807616150934
0.26603910309481155 14.981289924361826 1383076.702883959 4.011385145064483 0.17666646366989694
0.2788135271756302 14.72353771806762 1116467.8225107454 4.247703528982164 0.17945722790249286
0.2919668810170692 14.498456423189603 905908.7795040761 4.4943920192041675 0.18226693238235525
0.30550317951532646 14.30122631669083 738652.0852199013 4.751605158525078 0.18509126257533615
0.3194179754898126 14.128169079021506 605134.2425128776 5.020026988351087 0.18793687586291305
0.3337158422893443 13.975997501960975 497730.8939711642 5.299879118889123 0.19080034747672317
0.34839573132413 13.842071140144672 411032.52360595344 5.591893003511871 0.19368803153615263
0.3634572466862596 13.724042522235754 340673.6435281251 5.89623233729077 0.1965949248791801
0.37891120888496227 13.62003127272135 283328.0603095709 6.21376266931938 0.19952873920083214
0.39474150102914984 13.528498967437109 236414.90431479234 6.544743727548399 0.20248569406845138
0.41096506094555885 13.447944627519625 197888.29353903825 6.889873286811991 0.2054694226514724
0.42757324498474014 13.377085563880618 166097.6172728083 7.249858452790301 0.2084830357167297
0.44456635185249466 13.314970261689076 139818.4718828741 7.624961582991819 0.2115221342620684
0.4619478344508432 13.260595280942884 117993.89644243022 8.016124895201093 0.2145927755996316
0.4797110268464392 13.213188034297634 99830.26248092775 8.42405641886905 0.21769665709387703
0.4978669098857479 13.172019547236308 84653.53252048015 8.849201691227751 0.2208313145792085
0.516404256386697 13.136421773807202 71946.58959330803 9.292424641956025 0.22400002390657997
0.535322001069677 13.105882207345223 61285.390166749174 9.7546143411791 0.22720576801052664
0.5546274319831461 13.079822129360753 52306.30105425209 10.2365802288458 0.23044989758952514
0.5743082251894099 13.057864740998985 44736.697181846794 10.738799831047453 0.2337291908526826
0.5943635802445825 13.039541211233646 38333.03885807558 11.262505094489763 0.2370496764185643
0.6147997597106879 13.024516149500728 32907.97324546889 11.808639462991888 0.24041304657872326
0.6356002293172978 13.01244053727936 28297.957296572124 12.378181755114836 0.24382093394844606
0.6567709816952927 13.00302659426881 24374.64299426949 12.971829778124516 0.24727138930369494
0.6783026248684321 12.995977713547886 21031.56153074586 13.590892623684152 0.25076900110886385
0.7001885618808373 12.99105561972265 18175.42246553036 14.236576135465228 0.2543165018194975
0.7224215470292041 12.988005798864036 15733.021799169874 14.910069757627932 0.25791587559048873
0.745007222467827 12.98665192834061 13636.328363300801 15.612413718493835 0.2615671261115632
0.767926748796489 12.986761103372814 11837.883661481988 16.34485291780873 0.26527193725691317
0.7911702122997658 12.988130367658608 10291.123624495554 17.109013199803872 0.26903510208944953
0.8147428577217194 12.990661722976641 8958.273775722331 17.906349288518676 0.2728590525540086
0.8386236482831692 12.994118576186656 7809.186146554992 18.738237266487555 0.2767449677511792
0.8628034690562774 12.998393640623485 6815.963884055605 19.605999732686033 0.2806931349355791
0.8872765103390193 13.0033430560444 5956.695561092593 20.511732469053815 0.28471000808719793
0.9120355480232046 13.008844846551531 5212.182677174919 21.457229167951105 0.2887985996889769
0.9370537496514635 13.01472447923186 4566.15841060352 22.44398752030782 0.29295894225736374
0.9623311396369282 13.020924170478574 4005.377126832718 23.474005250394352 0.2971946154440792
0.9878545940050758 13.027324752738194 3517.325141640681 24.5497172804948 0.3015118256372149
1.0135942271565288 13.033784850288754 3092.585010429797 25.673081660010727 0.3059123234453038
1.0395571700009258 13.040231507038282 2722.1052639556533 26.84602734444626 0.3103971320147547
1.0657071398926588 13.046554944074932 2398.8961764213277 28.071665736821764 0.3149751005314676
1.092037338557001 13.052692594294612 2116.3391626530984 29.35206935118445 0.31964679746537944
1.1185338325508372 13.058528417570457 1869.0265122440935 30.689957720246802 0.3244166624957457
1.145165038851419 13.063976123522137 1652.5223535768375 32.08876754255358 0.32929300437413966
1.1719252591822367 13.068994055492936 1462.5325003247099 33.55039804174866 0.33427325098023536
1.1987795389543645 13.073454075031515 1295.7625019197103 35.0794103638899 0.3393710984979477
1.2257241329479187 13.077326961145234 1149.360293794841 36.67785124683313 0.34458345423921627
1.2527179725773565 13.080485748323882 1020.4410855837319 38.350733354718244 0.34992451722367296
1.2797578733936985 13.082934843936501 906.9539314852606 40.100318254042875 0.3553910044163159
1.3068015091603051 13.08451947205134 806.9822155100943 41.93208060998683 0.3609974968706988
1.3338362433124173 13.08524138667146 718.7886506388551 43.84945772441518 0.3667456713098874
1.360844276079255 13.085035028247743 640.8068527102058 45.85720465844672 0.3726436562794584
1.3877739280572396 13.083781706317238 571.9713662721356 47.960619372567606 0.3787012187204975
1.4146294725598598 13.08149030148778 510.97122922666017 50.164415576723194 0.38492379717392256
1.4413522306977171 13.078043231838107 457.01543861582195 52.47389134779727 0.3913187749964391
1.4679456215506403 13.073450999887012 409.13803624288863 54.89542093899332 0.39789763275838524
1.4943538815920858 13.067586351945096 366.6424640759554 57.43519146058355 0.40466942685834756
1.5205658104187851 13.060445429898392 328.93092068772245 60.0998278850494 0.4116439234025242
1.5465476609808446 13.051963522217818 295.36956937550747 62.89643246167434 0.4188316566338428
1.5722633797257968 13.042090790988373 265.54180237992813 65.83262790445453 0.42624399213046865
1.59768746339224 13.030767172398722 238.9920755797929 68.91660473632965 0.4338931953319482
1.6227744078548965 13.017951708317867 215.2987226091159 72.15717322034888 0.4417925060196023
1.6475263376391627 13.00361982364332 194.15022686352776 75.56382036236944 0.449956219453512
1.6718749176348258 12.987690475161752 175.2855060059827 79.1465295996241 0.45839876045130884
1.695812457577153 12.970148717181319 158.40993200435548 82.9153887600739 0.4671329760797542
1.7192777044260965 12.95090925726102 143.33017606280077 86.88317774844782 0.4761806125375381
1.742280478896355 12.930009941185698 129.8185792709388 91.06153241592189 0.48555625661625834
1.764760268999036 12.907369918275132 117.71483041792735 95.46440995484741 0.4952813164373572
1.7866873390539224 12.882942206887222 106.85434141071534 100.10560326276929 0.505373821511611
1.8080272563363817 12.85669500521703 97.1136029048666 105.00156527763998 0.5158592048370267
1.828739281582138 12.828569587325504 88.35588607554834 110.1688286597116 0.526759991642714
1.8488198796059432 12.79861286107035 80.48600977653268 115.62494422606137 0.538099281966986
1.8682075547956059 12.766712026461848 73.40142626136569 121.39025183183949 0.5499069152992735
1.8868798728009168 12.732874031544311 67.03030422760615 127.48609340689839 0.5622124150708145
1.9048056838998788 12.69706762524063 61.2758819923107 133.93497431074428 0.5750453332015684
1.9219489046367497 12.659263472301975 56.0918055439468 140.76240384165018 0.5884413789229317
1.938265551067554 12.619384692547056 51.40765913929948 147.99612896216038 0.6024390990843508
1.9537649105910257 12.577554704958942 47.17676537875479 155.66473463834984 0.6170745859084117
1.9683845603804178 12.533637669571519 43.35286658501708 163.80175124598838 0.6323950727878782
1.9821034414914616 12.487650784900465 39.89120028772358 172.44083268728687 0.6484417611641181
1.994897057511539 12.439585790652142 36.75642687119093 181.6214452569553 0.6652684598262008
2.006728356368836 12.389423034003425 33.91268094024544 191.38546913993235 0.6829292232079641
2.017587411092541 12.33717853287052 31.33666976753517 201.77891043111634 0.7014832480448554
2.0274285257447135 12.282805932173005 29.0003174573305 212.85179725325517 0.7209935292962933
2.0362425635539405 12.22635358120851 26.876981291046757 224.65936335809735 0.7415296363696827
2.0439933863895323 12.167773272018243 24.94984675030999 237.26295667821216 0.7631693829368741
2.0506581946078115 12.107085932891456 23.195033711706404 250.72925956974714 0.7859948509212359
2.05623554917763 12.044351705376204 21.599577772862904 265.13131601627697 0.8100941148270312
2.06068919511493 11.979516576327711 20.148005909230406 280.5510374173681 0.8355675334117398
2.063999624908633 11.91263527874063 18.826111168126097 297.07780004094127 0.8625210457573951
2.0661672705886387 11.843749539265435 17.623601539593665 314.8120379278253 0.8910754607372341
2.0671659638647593 11.772872275001099 16.527307681074785 333.863198838563 0.9213569368995908
