M[M_sun], R[km], Lambda[1], P_c[MeV/fm^3], rho_c[fm^-3]
0.24162668629717493 15.618656898711224 2160425.4255784233 3.5677272577965504 0.1711233750220791
0.25364067167049076 15.277379463694238 1723234.7947320016 3.784775414884163 0.17388762223214713
0.2660343988115293 14.981393701592626 1383026.7034736567 4.011308588401068 0.1766655385278002
0.2788070934838532 14.723666822260682 1116559.4505116807 4.247584244028653 0.1794558443767907
0.2919588424427445 14.498570648396507 906057.4741038195 4.4942268765365005 0.18226509348042316
0.3054906173036899 14.301422738730889 738808.2673660937 4.751388551603682 0.18508892280718456
0.3194041247529649 14.128344933370979 605242.124158714 5.019757322340169 0.18793407797396827
0.33369832877392497 13.976160428790072 497817.520057594 5.299549295197758 0.19079702669942758
0.34837522613471 13.842251956201768 411130.36286305304 5.591502199419427 0.19368425039905174
0.36343558316950353 13.724184346680607 340764.33635976445 5.895771774013297 0.19659059917141247
0.37888454536269195 13.620203158434176 283417.74363554193 6.213226774529495 0.19952385248560772
0.3947122420851544 13.528667038646798 236499.109570826 6.544133058405679 0.2024803393250433
0.4109333226352476 13.448081187433603 197955.7479944494 6.889176055957002 0.2054634847409297
0.42753605418275836 13.377253449598912 166163.94765714626 7.249068118888215 0.20847649748690295
0.44452754949076545 13.315108417380848 139872.13581965896 7.624080331146043 0.21151511893073294
0.4619035308288927 13.260730215495537 118044.40333657865 8.01513735637328 0.21458513618840763
0.47966341357278863 13.213307739700008 99863.92848900403 8.42295489406909 0.21768837516728476
0.4978154978035555 13.172122076509831 84692.27670143064 8.847990242524016 0.22082254317298125
0.5163487146720194 13.136523403195156 71980.60841548316 9.291083667114886 0.22399058336009833
0.5352608085571898 13.105975798939658 60724.48428366817 9.753134750080411 0.22719563794667183
0.5545628670805034 13.079928641183779 52337.52554552418 10.234952379106232 0.23043905674528586
0.5742397674255717 13.057927238151851 44358.71641717158 10.737030795956738 0.2337178330994217
0.5942896695320545 13.03960232276662 38353.75356193022 11.260568274346358 0.23703757513125906
0.6147211694542825 13.024565475577226 32925.00536612811 11.80652341861998 0.24040017749839995
0.6355175099474671 13.012477015443592 28083.834725858465 12.375874333789648 0.24380727153556211
0.6566832934097182 13.003059236832668 24389.96037765564 12.969341575716175 0.24725716775906428
0.6782090548587918 12.996010047329282 21045.144816321128 13.588188312914921 0.250753944231029
0.7000916405234744 12.991084602515041 18188.16973378773 14.233641219674013 0.2543005797580915
0.7223190105850634 12.988008700582666 15743.250360491524 14.90688880885821 0.25789905671527547
0.7448989694686288 12.98664417573921 13645.653108871267 15.609001349282485 0.2615496843436687
0.7678124054639278 12.98675815930415 11846.146985141811 16.341162925689357 0.2652535435716801
0.79105099821309 12.988114182448388 10298.186774839973 17.105027069932106 0.26901571888969994
0.8146183687375343 12.990647442106473 8964.823353485705 17.90204727872446 0.2728386398251435
0.8384932434295828 12.994095827198512 7814.23668746004 18.733638456117795 0.27672383859701855
0.8626671823396072 12.998370487478146 6821.081761138979 19.60104433746449 0.28067090320242427
0.8871353696484263 13.003307498154362 5961.324419767014 20.506396644707717 0.2846866256775807
0.9118882373811199 13.008811528286271 5216.269185519365 21.45148743765796 0.28877401526259205
0.9369005282338724 13.014688525252131 4569.928897128923 22.43786379906954 0.292933507805658
0.9621716086141726 13.020888496523435 4008.7279538149232 23.46742270581303 0.2971678817746699
0.9876907519880086 13.027282608604018 3520.266371341585 24.542644937145216 0.301483730574486
1.0134299147441217 13.033744039998037 3095.472534811806 25.665546890029976 0.30588324531683325
1.039381165265968 13.040195144464859 2724.536259897159 26.83793805407211 0.310366572132356
1.0655286234100665 13.04652837461698 2400.980966685366 28.06298407046951 0.31494298327255277
1.0918486239426666 13.052650449350377 2118.010152766994 29.342826073157486 0.319613527339884
1.1183413636554833 13.058487506369977 1870.7183900365942 30.68004250108072 0.32438168591764716
1.1449666243316856 13.063957538882752 1653.8613906853761 32.078212737700554 0.3292567391042711
1.1717219005925246 13.068961301032457 1463.8263237564229 33.53907987492286 0.3342351075910806
1.1985702570664996 13.073420694335006 1296.8632057219218 35.067275431031824 0.3393309715647738
1.2255104698850414 13.077293141162187 1150.4006279532568 36.664934755640786 0.34454178763805965
1.2525004396179968 13.080468234295509 1021.4168189708136 38.33688673274319 0.3498806541607373
1.2795358641700192 13.082914810789864 907.8471466010766 40.08557758912258 0.35534540172359047
1.3065736627708204 13.084510449020142 807.7867437620638 41.91638498620909 0.3609500466221421
1.333605632192673 13.085234732278751 719.4284692020339 43.83263121624895 0.36669565422558814
1.3606074532847965 13.085041915493843 641.430600070877 45.83928251491428 0.3725915411206052
1.3875349304061653 13.083794285895218 572.5336953104206 47.94152506395314 0.3786468701544038
1.4143857950303962 13.081516916274214 511.4867331247611 50.1439397887459 0.3848664217595317
1.4411128861654412 13.078097273087089 457.45836281526 52.452066577086185 0.39125885235310137
1.4676961903864387 13.07349763037675 409.55006044542694 54.87215057567704 0.3978349931254214
1.494102046181603 13.067647023391231 367.0417066305795 57.41037107063118 0.40460388735404085
1.5203113804676154 13.06052092359953 329.27729498407626 60.073344509887825 0.4115752869468435
1.5462922065570914 13.05205484290908 295.6880615183621 62.86816384793511 0.41875971076442203
1.572005986822009 13.042194506156406 265.8192692943466 65.80244165606842 0.4261685077003857
1.597428695425348 13.030890385198619 239.24547848754813 68.8843573802458 0.43381392507651384
1.622515728143298 13.0180901275481 215.5211513896171 72.12270917607763 0.4417091829778299
1.6472687216808795 13.003775010957817 194.36857499035918 75.52697080433684 0.4498685552282249
1.6716174845801672 12.9878710859657 175.47727485308482 79.10730354465176 0.4583072465138336
1.6955563609657258 12.970347758052887 158.59451256550304 82.87340362616573 0.46703649436431377
1.7190274321480332 12.951157585054267 143.47998886398474 86.83821748128098 0.4760787996532775
1.7420266007110259 12.930260546678525 129.971168771181 91.01357829833879 0.4854495763559121
1.7645123385139179 12.90764559150355 117.84624510985704 95.41300019299554 0.4951685119406122
1.7864388257611274 12.883235381239935 106.97613073958115 100.0506930978124 0.5052553277578442
1.8077820800384534 12.857010901571282 97.22288519864038 104.94287006748908 0.5157345654352413
1.8285060765170797 12.828938339352383 88.4551882474039 110.10582270750119 0.5266279118259167
1.8485838064588778 12.798981862436836 80.58143116151275 115.55746263773159 0.5379598882916026
1.8679748029373595 12.767114610804052 73.48481909000633 121.31795663423951 0.5497597487701942
1.886653748961293 12.733307467343884 67.10256488356995 127.4085788537994 0.5620568439812443
1.9045842614010242 12.697527720555808 61.34280760921158 133.85208123076433 0.574881676523615
1.9217367662257008 12.659756179072971 56.15357520486864 140.67337162083382 0.588267910299539
1.9380675017559277 12.619938537753976 51.465154382426476 147.9004246393067 0.6022550070577548
1.953561484890913 12.578086873200418 47.22948302976321 155.562087924405 0.6168800601104053
1.968197891069437 12.53422599684923 43.400051524785844 163.69128734852853 0.6321883415130146
1.9819288414245382 12.488278731598514 39.93583291168668 172.3220432545926 0.648222429464816
1.994728482327421 12.440247362178253 36.79567796754111 181.49364681875454 0.6650356731989924
2.0065756836414215 12.390124510517882 33.950662352043906 191.24783212611308 0.6826817914975135
2.017444759956352 12.337916073366218 31.37284426681122 201.63051975047225 0.7012198692242457
2.027297468222359 12.283582604782596 29.032504797504007 212.69201637312744 0.7207140022058962
2.0361270982120665 12.227168780267121 26.90755358534576 224.48671403726078 0.7412312079084193
2.0438891066703557 12.168631404590412 24.975317241401427 237.07659812221343 0.7628516244797077
2.0505692451791373 12.107984055530856 23.218627422979317 250.52744158050524 0.7856546314100907
2.0561563980778423 12.045262349390358 21.621570913277747 264.9129399688796 0.809730724396781
2.06063082575764 11.98049134310928 20.168305503692693 280.31464341042516 0.8351794254294216
2.0639654710485673 11.913665184062085 18.84542532262677 296.8215795612483 0.8621059226704213
2.0661427680329267 11.84480717014682 17.640868374148557 314.5337087781582 0.8906299105117476
2.0671595907043896 11.773976890384924 16.54468292348956 333.56092608680206 0.9208795212335613
