M[M_sun], R[km], Lambda[1], P_c[MeV/fm^3], rho_c[fm^-3]
0.24162668629717493 15.618656898711224 2160425.4255784233 3.5677272577965504 0.1711233750220791
0.2536384063625786 15.27745491991149 1723346.8441538375 3.784731785605463 0.1738870784142356
0.26602951761233146 14.981511295789078 1383181.4148799293 4.01121687311758 0.17666443020272593
0.2787993639754144 14.723817773448854 1116661.505853719 4.247441342100983 0.17945418692977838
0.291947884908562 14.49878164417782 906214.737543412 4.494029040417697 0.18226289052932493
0.30547729237505505 14.301619830042407 738950.1091213252 4.751129066520167 0.18508611987304785
0.31938709194663883 14.128532263871055 605327.7840837515 5.01943427929355 0.18793072627767643
0.3336784774950186 13.97634402603527 497982.99016522244 5.299154192521824 0.19079304867107483
0.3483529802284881 13.842373367520137 411236.695270901 5.5910340531439955 0.19367972095505434
0.36340832554459984 13.724380096800557 340868.1091034098 5.89522007037041 0.19658541745404554
0.37885424415530655 13.62038126765424 283508.00689980463 6.212584840796011 0.1995179988228969
0.39467700936099775 13.528859229840831 236601.77452782894 6.543401563563861 0.2024739251034817
0.4108949060478014 13.448225677764322 198030.58039182881 6.888340883573734 0.20545637206244732
0.4274940872632743 13.377416270280147 166238.910803338 7.248121436259659 0.20846866582413087
0.4444803081946375 13.315252261571722 139944.61654978705 7.623024757097215 0.2115067158825724
0.46185237199260687 13.260880335838014 118097.15464321444 8.013954485852345 0.21457598572861847
0.4796072280611705 13.213440144208864 99918.91655521559 8.421635508598548 0.21767845523301335
0.4977547095605977 13.172244449502253 84738.8257209412 8.846539208763168 0.22081203706857366
0.5162816098759245 13.136647289272313 72026.06213183966 9.289477511644073 0.2239792759254517
0.5351897390601235 13.106059179287023 61354.74274370459 9.751362589211743 0.2271835047953055
0.55448639009483 13.080020217089112 52370.989404317326 10.233002668100609 0.23042607243057314
0.5741548399427667 13.058007944569445 44789.032812660065 10.734912007240913 0.23370422981954753
0.5942068661882747 13.03967260207977 38380.586580546566 11.25824855714671 0.23702308149621734
0.6146267133409403 13.024637329994725 32950.39141494261 11.803989077489556 0.24038476447587218
0.6354191336371671 13.012527906908959 28334.487008889893 12.373110819212112 0.24379090856068752
0.6565740463001912 13.00308779189716 24409.5050968326 12.966361577636857 0.24724013531204864
0.6780971937709321 12.996051986792473 21062.012161630777 13.584949532856172 0.250735911571383
0.6999733623611688 12.991109637352858 18201.92841986744 14.230126302625047 0.2542815111615553
0.7221946504690225 12.98802420100095 15755.26042941301 14.903079285166346 0.25787891432750576
0.744768733599736 12.98666090559386 13657.172406214539 15.604914717340462 0.2615287961919512
0.7676760186748479 12.9867564295795 11855.738450681729 16.336743869568593 0.26523151568525566
0.7909072139138957 12.988118158327053 10307.141971366902 17.10025342542367 0.2689925062729471
0.8144683022913887 12.99062416584866 8973.020265353249 17.896895412747302 0.27281419458945794
0.8383354831050934 12.994087978106505 7821.4062142025105 18.728131213684932 0.2766985356675633
0.8625034321112296 12.99834222924885 6827.17685809318 19.595110146820275 0.2806442802315019
0.886964489493889 13.00327094381504 5966.883430096745 20.500006963429534 0.28465862510348394
0.9117110558614335 13.008767104944464 5190.435042797128 21.444611769593084 0.2887445756430423
0.9367174234010608 13.01465187410653 4574.661023135514 22.430530776554157 0.292903050604919
0.9619803833605624 13.020845207349202 4012.441552236387 23.459540354268757 0.29713586920297375
0.987492800921152 13.027233614400181 3523.7670797311084 24.534176180180275 0.30145008822337205
1.0132213459654351 13.0336895258759 3098.2813932254217 25.65652449679639 0.30584842616373004
1.0391712523178405 13.040142174720303 2727.274273332084 26.828251786996827 0.3103299791595473
1.0653116964081415 13.046477901929737 2391.065457041156 28.05258862001314 0.31490452598102636
1.0916263347828983 13.052598214266842 2120.2712026200547 29.331758266982195 0.3195736900333206
1.118110948385322 13.058438686049735 1872.5128034972975 30.66817028071427 0.3243398058910038
1.1447285933323894 13.06390431286427 1655.8238068221276 32.06548687050932 0.32921274745818996
1.171478545938959 13.068922224293884 1465.4208053326954 33.52552813961445 0.33418943684584884
1.198326751575206 13.073402217933973 1298.3809976491 35.05274595000117 0.3392829265099567
1.2252553619469086 13.077261455813586 1151.7305257379967 36.64946967097815 0.34449189966888166
1.2522387353720326 13.080441815219455 1022.5503625282639 38.32030822863244 0.3498281370940839
1.2792696588485 13.082889611272757 908.8748058497933 40.067928859202446 0.3552908024492773
1.3063024683552138 13.084501301084543 808.7330330135351 41.89759312666073 0.36089323598377315
1.3333280323051777 13.085233100775397 720.2829129678382 43.812485687037494 0.3666357712942712
1.3603264182247592 13.085053054512525 642.268578264388 45.81782550280239 0.3725291470440986
1.387248641356814 13.083814485732335 573.1974016948582 47.91866498380244 0.3785818029869005
1.4140879370978603 13.081531805417285 512.1087377589143 50.11942615808727 0.3847977318649683
1.4408186912179806 13.07813769397757 458.0251746142857 52.425938285839564 0.3911871138547629
1.4673993460542814 13.073554439998187 410.0704700951548 54.844292015274284 0.39776000289107
1.4938019056437786 13.067720390570221 367.48290863241783 57.38065727221825 0.4045254265553672
1.5200073228071593 13.060618973538034 329.6814513190276 60.04164030668842 0.41149311977122816
1.5459868700191033 13.05216207031816 296.0705219397124 62.83432295407399 0.41867358299907514
1.5716990334996366 13.04232099468652 266.16713909160893 65.7663056525589 0.42607814517518877
1.5971149110048886 13.03102933680489 239.5386152114052 68.84575459770855 0.43371903195026035
1.62220824146358 13.018251629702398 215.80303356103548 72.08145346248348 0.4416094398507581
1.6469577627858303 13.003965492817342 194.61645789728846 75.48286016460801 0.44976361706165785
1.6713117626564709 12.988084957403379 175.7055942714239 79.0601692240505 0.45819695161283763
1.6952350818905546 12.97056983015274 158.80619082271434 82.82314695841943 0.46692100468820397
1.7187125356006863 12.951392982794415 143.68347848625524 86.78440045179198 0.47595693055996724
1.7417289810400225 12.930569308448947 130.14187051743474 90.95617849774314 0.4853218829276939
1.7642097784310344 12.907970527288182 118.0023107257363 95.35146516732165 0.4950334903541801
1.7861401187053214 12.883585435376117 107.12177477115858 99.98496928212536 0.5051134986149386
1.807485717989381 12.857391483674535 97.34841410877566 104.87261693656106 0.5155853827644593
1.8282166406956148 12.829347630939857 88.57338432053668 110.03037190596373 0.5264696795413052
1.848298906438146 12.799427888536567 80.68785470186138 115.47669589664189 0.5377930520749709
1.8676972150622113 12.767594308113317 73.58624241471468 121.23143015855793 0.5495836125741224
1.8863770621790974 12.733793658384753 67.19392742734993 127.31580729301518 0.5618706521989877
1.9043207852283124 12.698078915487782 61.42518155626782 133.75287414381205 0.5746858109304441
1.921471406147768 12.660313343425113 56.230678888662965 140.56681924512824 0.5880603057518439
1.9378155311278094 12.620537051895726 51.533762085963744 147.7858895070667 0.602034693032413
1.953334103214694 12.578784303866088 47.29323455222925 155.4392467005122 0.6166472636945486
1.9679733039472405 12.53493737230604 43.45996214187522 163.55901068182527 0.6319406621809371
1.981717211142473 12.489030144171469 39.99012912230369 172.17988933912315 0.6479599578026893
1.9945289551279692 12.441037849670215 36.84499280771721 181.34071512200617 0.6647571059928472
2.0063898790728874 12.3909611306653 33.996143051280434 191.0831305338847 0.682385705469866
2.01727925002155 12.338817415815553 31.414334711016412 201.4529539089706 0.7009047073710063
2.0271373174761087 12.28450242784751 29.070529157343966 212.50064287350216 0.7203789274871817
2.0359726185189677 12.228105601234843 26.94075782311676 224.28012946939512 0.7408741215647825
2.043765262089065 12.169652818160479 25.007350345936008 236.85361487196946 0.7624714175544515
2.050468701296885 12.1090699483963 23.24797594214093 250.28596696575204 0.7852475597922735
2.0560673770991253 12.04638213075519 21.648342242270825 264.65166027096376 0.8092959397994186
2.0605613079404486 11.981658207337254 20.194094455410855 280.03157393269896 0.8347142980388628
2.0639150536860424 11.914885127195621 18.867693697471378 296.5150361620378 0.8616092674369121
2.0661136812223844 11.84607400864601 17.661980084796305 314.2007239188432 0.8900968672450655
2.0671514719293294 11.775293668123759 16.563581923783435 333.1993059234316 0.9203083710715325
