M[M_sun], R[km], Lambda[1], P_c[MeV/fm^3], rho_c[fm^-3]
0.24162668629717493 15.618656898711224 2160425.4255784233 3.5677272577965504 0.1711233750220791
0.25364535010805417 15.277257269397989 1723048.9019306384 3.784848839029256 0.17388853742869473
0.2660428153905221 14.981209092311795 1382948.314934964 4.011462940346262 0.1766674037799656
0.27881993036174657 14.723448440938677 1116337.3380517052 4.247824745471009 0.17945863383109412
0.29197656308040765 14.498286185704778 905732.2257514476 4.494559838137642 0.18226880108512822
0.3055136550687581 14.301121915805723 738574.4733692821 4.751825278622377 0.1850936402924925
0.3194320026977117 14.128032313232765 604981.3409309889 5.020301031514208 0.1879397191665014
0.33373101852420567 13.975849609623774 497595.66445275757 5.3002143004899684 0.19080372219927683
0.3484156390810588 13.84190155112225 410925.83834098745 5.592290160868768 0.19369187414283484
0.3634813846715391 13.723842739656883 340604.9237216653 5.896700393758438 0.19659932096457575
0.3789360454105253 13.619892790239689 283240.7307544285 6.214307289679699 0.19953370548275265
0.39477096974612835 13.528344238433379 236353.6855308701 6.545364346796709 0.2024911360608435
0.41099872244505864 13.447757159483867 197809.56875955657 6.8905818868187705 0.20547545738648257
0.4276099945273279 13.376940821827404 166035.33165370818 7.2506616837194775 0.2084896806403563
0.4446076571435553 13.314840843092938 139762.84567208722 7.625857225212105 0.21152926415003792
0.4619896588796007 13.26046674192568 117939.00146843058 8.017128571962658 0.21460053985082014
0.4797591391148658 13.213070409584885 99775.60930538774 8.425175957580196 0.21770507445989842
0.4979193705450033 13.171900397375046 84615.19463412956 8.850432964318069 0.2208402295224649
0.5164612762231815 13.13632046614836 71915.98585058626 9.293787576713015 0.22400961905223826
0.5353824641413504 13.105772922768345 61252.919427510606 9.756118179715534 0.2272160640851752
0.5546916057177491 13.079753054398187 52283.18204132116 10.238229553090637 0.2304608490789342
0.5743781543679316 13.057790441274523 44712.75918922876 10.740597895814782 0.2337407349854596
0.5944382713905719 13.039500082164363 38312.98519063886 11.264473720325395 0.23706197642841018
0.6148792737467591 13.024478276468509 32888.157452248146 11.810790280955676 0.2404261271405036
0.635686816274466 13.012403670647963 28279.70666029731 12.380527121956828 0.24383482103955068
0.6568605439130166 13.002990874928178 24359.500222567793 12.974358923459508 0.2472858448613049
0.6783965212637877 12.995963826048751 21017.912556158437 13.59364146487066 0.2507843059201317
0.700288373967017 12.991038975238261 18163.793024571372 14.239559413100757 0.25433268624626915
0.7225259672332814 12.988000455230411 15721.34185120218 14.913303159494628 0.25793297180499797
0.7451179032186495 12.986650589427954 13627.261077848585 15.61588238979782 0.26158485565840855
0.7680409416910682 12.986755232104375 11829.918682490275 16.348603835676897 0.2652906346417233
0.7912915024331318 12.988139269816662 10284.710972909075 17.113065191615274 0.2690548055535088
0.8148684472662977 12.990684713522379 8951.38343787704 17.910722429980083 0.27287980279754837
0.8387562302004017 12.994138152091356 7803.5186645282065 18.742912160112688 0.27676644646853177
0.8629403298405048 12.998426698299365 6810.19345435795 19.611037169030393 0.2807157347355114
0.8874266446567075 13.003372944805044 5952.165154432755 20.517156696188945 0.2847337778915438
0.9121855074302903 13.008879400546355 5208.241772311163 21.46306609452578 0.28882359171827166
0.9372092408542354 13.014765180020072 4562.923663856668 22.450212830414888 0.29298479865139443
0.9624971354574298 13.020974171179104 4002.1193810857158 23.480697074824125 0.29722179293142326
0.9880223233762664 13.027362015412516 3514.4839902714475 24.556907121004006 0.3015403874603804
1.0137688871979096 13.033815839645733 3090.184574018625 25.680741683846627 0.30594188495252383
1.0397358895582893 13.040282848592442 2719.727736710679 26.854251206411448 0.3104282002843921
1.0658914958333345 13.0466055443757 2396.6547467646183 28.080491937406602 0.3150077524853571
1.0922290618154973 13.052737090842633 2114.4436072731337 29.361466606442807 0.3196806218143654
1.1187290919882613 13.058571403060961 1867.0939128675423 30.700038235635283 0.32445222216697966
1.145364325921639 13.064025388807087 1650.7955442945045 32.09949841475235 0.3293298745940662
1.1721309468448549 13.069031883934183 1461.0483753162118 33.56190515610624 0.33431203114205355
1.1989904582367144 13.07349328847178 1294.4839601924798 35.091748038383535 0.3394118958427471
1.2259408199825896 13.0773483888834 1148.2611716018587 36.69098367539295 0.34462581742089404
1.2529397006788077 13.08051543778749 1019.4744684460807 38.364730817379595 0.3499686400312734
1.2799858184768744 13.082945638846631 906.0872973710458 40.115305712697484 0.3554373706064068
1.3070392841205112 13.084547783561078 802.8224195116068 41.948039191280245 0.3610457420796632
1.3340718759258658 13.085242323704975 718.046050549085 43.86656637129315 0.36679652705634935
1.3610828307575347 13.085029098720533 640.1424928520389 45.87542751908131 0.3726966458827953
1.388024349518994 13.083779688132969 571.3482978595198 47.98003429108669 0.37875647984587485
1.4148687021597506 13.0814514927079 510.44386466335277 50.185235469792545 0.3849821368087025
1.4416022591947886 13.078006409111643 456.5320437429809 52.49608316093397 0.39137970540075856
1.468198191034902 13.073402453095728 408.69645252766895 54.91908294683897 0.39796132662798644
1.494609465170345 13.067522794702322 366.24932723110635 57.460429898733175 0.40473607024021935
1.52082256043203 13.060370176794239 328.5972290487567 60.12675766287622 0.41171371679143426
1.546806444581639 13.051872956822555 295.0601022404666 62.92517794628607 0.41890481617754705
1.5725253338379375 13.041980436375255 265.256508332228 65.86332378370457 0.4263207509552635
1.5979393111545508 13.030634093955754 238.7281324258215 68.94939696976886 0.43397380500159777
1.6230476531371132 13.017817566375097 215.0597078134538 72.19222008809605 0.4418772381422257
1.647789197728982 13.003454067224018 193.9350604783999 75.6012936231161 0.4500453674527751
1.6721369825023236 12.987508680444916 175.09426137873348 79.18642006953058 0.45849182446122405
1.6960746412796894 12.969945054671156 158.23608872518366 82.9580856857515 0.4672310934906077
1.7195539119805814 12.950719058915833 143.16322969855844 86.9289009520323 0.47628415309741273
1.7425360469828324 12.929770842599956 129.68118674436386 91.11030092824173 0.48566474860512593
1.765015819967494 12.907097451254083 117.57801154383188 95.51669364696225 0.4953960385322383
1.786927184546986 12.882615725230925 106.73568626711275 100.16144766163585 0.5054943313016245
1.808277320354023 12.856372851651773 97.00643049264819 105.06126000267459 0.5159859667107628
1.8289811121030226 12.82821228658332 88.25916222804003 110.23268961781791 0.5268935079186038
1.8490611647110813 12.79823345678243 80.40190195431131 115.69357723687071 0.5382410540838868
1.8684329302523492 12.766275395202145 73.32477940847602 121.46378178137292 0.5500565953308031
1.8871090928384038 12.732434885994735 66.95328221410132 127.56474662392198 0.5623699794501941
1.9050277736812975 12.696600197333954 61.20666623924013 134.0192858451583 0.5752117903490007
1.9221649536268477 12.658762104805632 56.02917505861647 140.85296119355922 0.5886178190816709
1.9384722995481771 12.618853223555929 51.349486268414175 148.09347451255613 0.6026263480937801
1.9539627017820038 12.576988046073852 47.12553781355238 155.76914341768324 0.6172724509967146
1.9685726898075047 12.533032365370476 43.305162318891654 163.91385605828796 0.6326044855089097
1.9822822727092564 12.487011593218 39.847420924842005 172.56166590891883 0.6486648664962305
1.9950638939551533 12.438908808011858 36.7156181887421 181.75144497337303 0.6655052561122038
2.006894188762929 12.388725792451707 33.876696873280906 191.52547967990625 0.6831809218348491
2.017733229833524 12.336428106681703 31.304891328670976 201.92986319591145 0.7017511743121043
2.0275618803825113 12.28202270402412 28.969161616431123 213.01434006708587 0.7212778882244625
2.036363827332747 12.225528021057906 26.84942285080475 224.83500095466334 0.7418332301366851
2.0440978111886996 12.166908831516722 24.923192459939493 237.4525448392771 0.763492648167355
2.050747882890195 12.106174476571748 23.170180615381167 250.93419850707116 0.7863397327258196
2.0563108887289725 12.043400089212769 21.57785574744727 265.35333089293806 0.81046331168309
2.06074619443951 11.97852456271985 20.12644416580005 280.7913152323306 0.8359616449524498
2.0640415795049556 11.911600644213339 18.808027919968143 297.3384855016067 0.8629434029135846
2.0661887827592467 11.84266943516802 17.60660433379867 315.0952247127863 0.8915287870814029
2.067173596135431 11.771757156825403 16.511868958620415 334.17075500975744 0.9218426973045787
