M[M_sun], R[km], Lambda[1], P_c[MeV/fm^3], rho_c[fm^-3]
0.24162668629717493 15.618656898711224 2160425.4255784233 3.5677272577965504 0.1711233750220791
0.2536377324872872 15.27744684455388 1723275.3929657624 3.7847172029560965 0.17388689664854615
0.2660271882300534 14.981575367253944 1383339.9440674726 4.011186218537288 0.17666405976021418
0.2787968968435586 14.723872041868008 1116734.4641519631 4.2473935795876905 0.17945363295660074
0.2919444582403516 14.498826621121959 906284.4534446703 4.493962917774324 0.1822621542383447
0.3054730307598813 14.301654294612804 739013.0227748498 4.751042339884799 0.18508518305986563
0.3193831933116241 14.128535774714933 605406.4097446671 5.019326311004061 0.18792960606500106
0.3336723917096251 13.97644265121893 498020.6697212482 5.299022141615862 0.19079171913756388
0.34834515545962325 13.842495119920104 411298.1368192099 5.590877591144778 0.19367820714217068
0.36339856936713405 13.724456390961526 340914.6848110135 5.89503568398717 0.19658368565811385
0.37884419016333865 13.620442872476351 283540.86492540827 6.212370300480137 0.19951604247353946
0.39466723701379613 13.52886933184099 236632.38197285944 6.5431570932784995 0.20247178142934225
0.4108813602114184 13.448319480842686 198061.71348351205 6.888061766281184 0.20545399498245695
0.4274791476409993 13.377460608670063 166263.52625750127 7.247805054921069 0.20846604848239833
0.4444645567855092 13.315305334010239 139972.3564837354 7.622671987276441 0.21150390760796878
0.46183509713074156 13.260921542212737 118117.48708640931 8.01355917764647 0.21457292770005307
0.4795881683989205 13.213511869908407 99937.61336650733 8.421194582060883 0.2176751400818541
0.4977335801400491 13.172291053290508 84753.91720510591 8.84605429057603 0.22080852605370918
0.516259586801361 13.136684902016764 72040.4041540926 9.288940758606081 0.22397549715060158
0.5351664741457712 13.10610679520319 61365.605145479996 9.750770365135358 0.2271794501157961
0.5544601093192215 13.0800566988849 52381.2258952471 10.23235111598775 0.2304217333476728
0.5741278497217804 13.058029922515614 44395.74630126732 10.73420395854126 0.2336996839275697
0.5941760307310605 13.039708262888043 38054.186882324524 11.257473370015289 0.23701823811299222
0.6145969699677927 13.02465336377522 32956.03078097327 11.803142176535049 0.24037961390504572
0.6353840243005086 13.01254784326244 28340.239747092903 12.37218734376822 0.24378544059405963
0.6565389072994738 13.003110966745057 24415.793967707472 12.965365768181378 0.247234443673552
0.6780607966469099 12.99605577527702 21067.02915959323 13.583867257479886 0.25072988575204674
0.6999342793685505 12.991100295179928 18206.404087540242 14.228951763583712 0.25427513922993267
0.7221518005113483 12.988021529374528 15759.408464325339 14.901806312418096 0.25787218364073505
0.7447250367124884 12.986657317224793 13660.448078469428 15.603549157660758 0.2615218163566801
0.7676302668738996 12.986736845077708 11859.000191879773 16.335267242835013 0.2652241550713395
0.79085950084865 12.988109490636338 10309.737483941248 17.098658327602056 0.268984749852386
0.8144180239254429 12.990618645994441 8975.601731224064 17.89517394921008 0.2728060263680644
0.8382840015594691 12.994066491470896 7823.372300942235 18.72629101711472 0.27669008091646646
0.8624488247510336 12.998334287609199 6829.443388459782 19.593127307511253 0.2806353844820336
0.886907106570526 13.003262651479359 5968.772929116221 20.49787194708796 0.28464926913083566
0.911651714888389 13.008746697483826 5222.947411355056 21.44231438942102 0.2887347389264369
0.9366559482933468 13.014639167202901 4576.146279269469 22.42808059815476 0.29289287395876795
0.9619180885853192 13.020822184255513 4013.9434315711565 23.45690665365156 0.29712517296221863
0.9874276776834856 13.027215258387116 3524.987106774361 24.53134657292054 0.3014388475370067
1.0131540953330942 13.033670474634576 3099.3555193828024 25.653509929993167 0.3058367923698636
1.0391007547539906 13.040124913835161 2728.254534207884 26.82501543740911 0.31031775281357293
1.0652400344811288 13.046457240690057 2404.212955280516 28.04911535366198 0.31489167685850145
1.091551070681426 13.052586700938548 2121.0033852904467 29.328060386175554 0.3195603799329271
1.118034092605958 13.058417410129861 1873.423048726661 30.664203675082412 0.3243258134326078
1.1446494621379457 13.063882638152263 1656.2748647613137 32.06123294896206 0.3291980357426633
1.1713974224020764 13.06890086346136 1465.9656848916711 33.52100047630415 0.3341741781536715
1.1982438478551076 13.073377208267503 1298.9494370250918 35.04789166932265 0.33926687471975125
1.2251698019841026 13.077253696939675 1152.1399600618347 36.64430284938145 0.3444752323022175
1.2521530588798953 13.08043034240076 1022.9539616494363 38.31476947605291 0.3498105915401272
1.2791806858194894 13.082889292111028 909.2326289544911 40.06203260286057 0.3552725614019675
1.3062113455594713 13.084495944387907 809.0624568072864 41.891315017364334 0.36087425630824077
1.3332352027919028 13.08523089619951 720.6031960065685 43.80575540800535 0.36661576542434365
1.3602316516904505 13.085050510019654 642.4982995921904 45.810657144241596 0.37250830243115174
1.3871525760553198 13.083817620125913 573.4693836530572 47.9110279583964 0.3785600655473094
1.4139907124237234 13.081543370551373 512.3726610310583 50.11123681279355 0.38477478441697077
1.4407203787806346 13.078156373515405 458.2248274177021 52.41720960907129 0.3911631481787098
1.4672946105684561 13.073563496135819 410.25046094965995 54.83498539815086 0.39773495115153235
1.4937010961757684 13.067745554203814 367.63932959340434 57.37073098049207 0.40449921567630426
1.5199056160973947 13.060646719933889 329.8194194719075 60.03104920112121 0.4114656710059768
1.5458841731866264 13.052198586440497 296.1966934332828 62.823018182932955 0.418644811457752
1.5715959245623232 13.042363873122644 266.2735901879945 65.75423431312912 0.4260479593049362
1.5970114260622912 13.031076902366824 239.64804789028338 68.8328593633411 0.4336873329632322
1.6221056863425996 13.018309869677644 215.8960567185353 72.06767217127181 0.4415761210941354
1.6468540353935017 13.004028558931152 194.7016707038319 75.46812536530307 0.4497285633233013
1.6712083410460508 12.98815664099151 175.78029704817595 79.04440767426968 0.4581600383553908
1.6951336095705087 12.970651401896339 158.87514830884717 82.80635949190724 0.466882427139052
1.7186275086389717 12.951518734575123 143.73547235648888 86.76642392116008 0.4759162225627073
1.7416265132040392 12.930667163433844 130.19918807689623 90.93700541633402 0.4852792298789162
1.7641088641166893 12.90807643715039 118.0582700014717 95.33091107370008 0.4949883900832683
1.7860399519529966 12.883706103846723 106.87331070297705 99.96301628662594 0.5050661250030546
1.8073832553300875 12.857505401840875 97.39601071402421 104.84915133919588 0.5155355535192686
1.828120597406917 12.829483674742665 88.61974822689673 110.00517055926841 0.5264168283245967
1.8482038014894213 12.799576161354357 80.72315936579848 115.44971930783997 0.5377373277514113
1.8676053074522654 12.767752475107867 73.62443146269747 121.20253015539537 0.549524782758353
1.886292538966412 12.733992348799001 67.22352195699675 127.28482183227541 0.5618084646265203
1.9042327337359866 12.698263460512463 61.45448862510215 133.71972202397149 0.5746203309508288
1.921386355671446 12.660508182086877 56.254794595275456 140.53123196246366 0.5879909681920537
1.9372949375960453 12.621105879690935 51.6526407088731 147.8139467531683 0.6968616138911661
1.950399329285968 12.579541347370856 47.79367956552122 155.79591320446949 0.8474547288739462
1.9606278499096803 12.534415243613653 44.53495337812776 164.5375887822314 0.9984065881698978
1.9681441989314918 12.485154229508577 41.74036073882746 174.09036435744426 1.150277927172815
1.9731234138028495 12.431390681708928 39.31287910267478 184.5105515620707 1.303687051945514
1.9757915009603548 12.373168800509408 37.17254186249509 195.8602119787443 1.4592507643366077
1.976326793063055 12.310457487063642 35.27327329997715 208.20775448735978 1.6176765065104834
