M[M_sun], R[km], Lambda[1], P_c[MeV/fm^3], rho_c[fm^-3]
0.24162668629717493 15.618656898711224 2160425.4255784233 3.5677272577965504 0.1711233750220791
0.25364560870907626 15.277225533724764 1723107.366802588 3.7848504246486643 0.17388855719267574
0.26604280182346873 14.98122091613091 1383033.9631587297 4.0114662736759215 0.17666744406128734
0.27881988447435996 14.72342943823423 1116343.1049739658 4.2478299393250625 0.17945869407197415
0.29197735730733737 14.498277820667068 905750.3379634278 4.494567028850651 0.18226888115538648
0.3055136654254607 14.301138007709294 738574.8091457841 4.751834710403081 0.18509374217372493
0.3194325274668702 14.128012779443184 605034.9507520534 5.020312773885419 0.18793984099813485
0.33373334432593105 13.975804252151073 497593.4604642809 5.300228662655504 0.19080386680245262
0.34841649532482183 13.84189679860567 410925.61914891074 5.5923071787345755 0.19369203879536798
0.36348237175672615 13.723834275853855 340599.40419501637 5.896720449724696 0.19659950933445514
0.37893828586769407 13.61985434625425 283233.2214955558 6.214330626519685 0.19953391828663394
0.3947726417283978 13.528328519788747 236347.96021559503 6.545390940327745 0.2024913692501846
0.4110001330739318 13.4477468027691 197803.8588545527 6.8906122505191325 0.2054757159764965
0.42761098342399384 13.37696511334795 166031.37014476905 7.250696102599204 0.2084899653789275
0.4446097752012247 13.314827010488862 139760.3527814658 7.62589560418429 0.21152956967133413
0.46199162276076644 13.260457373072022 117937.29495138084 8.017171580568885 0.21460087255716026
0.47976128702294935 13.213086503254372 99777.3889832668 8.425223931291814 0.2177054351551438
0.4979209093368294 13.171906850857587 84611.34950494989 8.850485726284145 0.22084061154164275
0.516463480514081 13.136322757604376 71916.11510557245 9.293845980945138 0.22401003022167348
0.5353861419782314 13.105761973108752 61252.28482045003 9.75618262232564 0.22721650529339546
0.5546952634913133 13.079761330003928 52282.293920045886 10.238299764703651 0.23046131238687242
0.574381224059012 13.057787871666688 44711.85700493527 10.740674947506129 0.23374122968118569
0.5944419639196865 13.03946945666582 38309.01915290975 11.264558081507209 0.23706250351860078
0.614882754101734 13.02446007678024 32610.632049706477 11.810882450142719 0.24042668768294173
0.6356903850120921 13.012417484044617 28279.11924341293 12.380627628771174 0.24383541614785634
0.6568643931215588 13.002989541783206 24359.38750702637 12.974467306348107 0.24728646433345164
0.6783994397785403 12.99596090870994 21017.52919052044 13.593759263218015 0.2507849617897697
0.7002922371067752 12.991054181709174 18163.190311208604 14.239687258715563 0.25433337981496895
0.7225316669953183 12.987998730440063 15721.52081860904 14.913441724788532 0.2579337044519394
0.7451226391277722 12.986651642246953 13626.853383841511 15.616031038149211 0.2615856154501785
0.768047656823741 12.98676393956159 11829.705978433161 16.348764580547662 0.26529143591458787
0.7912973381128993 12.988149106693283 10284.445861952165 17.113238840003028 0.2690556499468162
0.8148737487188766 12.990676756321296 8951.057832567596 17.91090984239602 0.27288069205606136
0.838760687200153 12.99416659922447 7803.117550341992 18.743112505211087 0.27676736695059756
0.8629461262642978 12.998427599894391 6810.0288244124695 19.611253052410852 0.280716703268089
0.8874315786930218 13.00339250950442 5951.719044466423 20.517389157225622 0.28473479657185014
0.9121918709033735 13.008868858620408 5208.039772586793 21.463316243780692 0.28882466278494123
0.9372163367198867 13.01477143542323 4562.79072030119 22.450479625698396 0.2929859067671119
0.9625045063725316 13.020978053381087 4002.055661093572 23.4809838650878 0.29722295767189777
0.988026671206656 13.027365630639965 3514.209944571949 24.55721525658521 0.30154161153676573
1.013776126361701 13.033823356448947 3090.1339671884402 25.681069971782787 0.30594315187889415
1.03974384554584 13.040284750846372 2719.6058547432226 26.854603661173105 0.31042953179501526
1.0658986747420995 13.046612357932673 2396.719295765926 28.080870209372677 0.3150091518778449
1.0922346496335322 13.052740414892979 2114.298150627332 29.361869354682284 0.31968207146073885
1.1187379920861957 13.058567546442015 1867.031073687322 30.700470269915947 0.32445374619589984
1.1453731610927318 13.06402813792729 1650.925601255662 32.09995832470138 0.3293314547993518
1.1721401238514748 13.069029846775864 1461.098866895057 33.56239833798932 0.3343136932158487
1.198999487882039 13.07348817982647 1294.48538351437 35.09227682071193 0.3394136443825539
1.2259510674713905 13.077347824085972 1148.2420388644591 36.69154652332018 0.3446276330811803
1.2529486658009898 13.08051254022913 1019.4561086384402 38.365330015772244 0.34997052684956875
1.2799953173224696 13.082947987570316 906.0097837186061 40.1159480741984 0.3554393578582915
1.3070487009765381 13.084546965369464 806.1730100227011 41.94872317898823 0.3610478098781282
1.3340829118457738 13.085240376762961 717.9921857989987 43.86729965631335 0.36679870675865645
1.3610932215622642 13.085028972934968 640.1271515420535 45.87620856452174 0.37269891705683905
1.3880340078305036 13.08378056458933 571.3173718728891 47.980866434087986 0.3787588483934782
1.414879836777933 13.081450375585314 510.4229248982134 50.18612783815646 0.3849846373231992
1.4416127588679433 13.078003110456585 456.5014815828046 52.49703433763724 0.39138231697561066
1.4682084399400934 13.073396811007052 408.6780642210025 54.92009714499192 0.3979640566670146
1.4946206470884245 13.067520847122934 366.2363422132063 57.461511672782954 0.4047389267197159
1.5208334076374623 13.060365589126292 328.57426579084773 60.127911939174176 0.4117167083071865
1.546818129125868 13.051868089538125 295.043130809681 62.92641005670651 0.41890795199652414
1.5725369755048624 13.041974974957283 265.24570427290547 65.86463950265404 0.4263240410724646
1.597950320275546 13.030628111715703 238.71163885868677 68.95080255496649 0.4339772602026183
1.6230586972697816 13.017811445639328 215.04719232881976 72.19372232555502 0.44188087007217447
1.6478014704644814 13.003447654435389 193.9227649979198 75.60289987680457 0.4500491886922345
1.6721495961016466 12.987500609875644 175.09408055850608 79.18812994546825 0.4584958135822244
1.6960858257618854 12.969935690405892 158.22381415279952 82.95991587286605 0.4672352992552666
1.7195662445044835 12.950708142700549 143.1568303513124 86.93086087527898 0.47628859135926593
1.742546963332489 12.929756102910822 129.67153605226616 91.11239140328809 0.48566939914262786
1.7650262268297199 12.907088376915825 117.57162658075181 95.5189348202417 0.49540095616684304
1.7869384672321689 12.882602458692492 106.73199532679304 100.16384148485425 0.5054994970682767
1.8082880459983754 12.856358889494043 97.0034716252703 105.0638188936735 0.5159914005211627
1.8289908384620033 12.828199724053198 88.25816316244291 110.23542712172801 0.5268992313110825
1.849072559456073 12.798216959175258 80.39904185194017 115.69651933045508 0.5382471314339936
1.8684429793714807 12.76625885964731 73.32136520577443 121.46693381914429 0.5500630117246127
1.8871186988335513 12.732417336358488 66.94857689064058 127.56811432031186 0.5623767196278853
1.9050372554945343 12.696580110596564 61.2035602232376 134.02290012224077 0.5752189260541846
1.9221738163961388 12.65874094278909 56.02621632491914 140.85684325371224 0.5886253828111219
1.9384814358088565 12.618837899989094 51.34694479506483 148.09764761339116 0.602634375260861
1.9539715494345447 12.576963389472029 47.12331257999636 155.77361935186042 0.6172809333400276
1.9685816184633833 12.533007350327178 43.3034490377492 163.9186619611075 0.6326134629753164
1.9822908983060465 12.48698511667512 39.84542949920521 172.56684605184293 0.6486744310637547
1.9950713287078183 12.438879408232804 36.7142648961111 181.75701814172135 0.6655154077156266
2.0069007037246545 12.388694950841584 33.8747787691704 191.5314820811614 0.6831917124235735
2.0177397908401717 12.33639590544682 31.302534984309606 201.93633477217378 0.7017626607216015
2.027567796470944 12.281988306301182 28.9683493446419 213.02130859836396 0.7212900792530196
2.0363679887223105 12.225492702611202 26.8474985169102 224.8425309730464 0.7418462459527245
2.044102604590051 12.166870677349364 24.922009205636268 237.46067304404326 0.7635065075031509
2.0507518548143007 12.106135665726457 23.169049188289318 250.94298365014822 0.7863545147754409
2.0563144095683903 12.043359060180942 21.57600971164577 265.3628381539194 0.810479103471108
2.060749498199587 11.978481724126311 20.12572367258505 280.8016170289193 0.8359785422965775
2.0640433472863795 11.911556005670134 18.806662175814825 297.3496624136202 0.862961511513738
2.0661898358869024 11.842623570355903 17.60605797861155 315.1073665374194 0.8915482237545274
2.0671754368060107 11.771711081481913 16.511504014373756 334.1839418663389 0.9218635248911905
