M[M_sun], R[km], Lambda[1], P_c[MeV/fm^3], rho_c[fm^-3]
0.24162668629717493 15.618656898711224 2160425.4255784233 3.5677272577965504 0.1711233750220791
0.2536444050931792 15.277277811159975 1723156.9794879693 3.7848272304891406 0.1738882680886665
0.26604081592585577 14.98124112441668 1382905.342746486 4.011417514518158 0.17666685483564146
0.2788169818859554 14.723451639859736 1116399.8065612614 4.247753965153634 0.17945781288607623
0.2919714611064575 14.498365670619581 905822.2132438029 4.494461845614015 0.18226770991563476
0.3055084370779772 14.30113298207489 738614.2949989996 4.751696746145058 0.18509225189642953
0.3194244567521019 14.128085218038468 605085.8000680305 5.020141011875691 0.18793805890098986
0.3337242216707254 13.9758505974698 497639.3509982547 5.300018580290092 0.1908017516216226
0.3484040148795198 13.842002217898747 410991.0927398596 5.592058251027262 0.19368963035132206
0.36346684377718536 13.723962261175878 340627.05669615447 5.896427083484275 0.19659675397664217
0.37892157065883064 13.619971321470823 283291.59055093187 6.2139892709404565 0.19953080553477026
0.394752546215086 13.528449446903043 236397.18364145266 6.545001949363836 0.20248795832493216
0.4109794366764843 13.447869663338851 197857.7487797115 6.89016811383335 0.20547193352210563
0.42758794145743 13.377034506535901 166064.1380380845 7.2501926516843955 0.20848580045853268
0.44458383212535285 13.314912871822894 139798.68539106956 7.625334230102189 0.21152510077267825
0.4619656237467021 13.260547658501785 117975.48850943374 8.016542490448282 0.21459600603647988
0.4797312441216807 13.213130653773538 99804.69343801307 8.424522218648443 0.21770015925704192
0.4978890233340782 13.171965882123335 84638.43680004615 8.849713978092199 0.22083502375499042
0.5164281618339973 13.13638993939274 71934.55566885357 9.292991706383496 0.22400401607550172
0.5353475633775882 13.105823743825914 61271.12027324918 9.75524002807161 0.22721005179418813
0.5546544315259764 13.079823404524458 52301.08749252821 10.237268616740367 0.23045448198436197
0.574337379484936 13.057858401606993 44726.45007268677 10.739547928914952 0.23373399387272364
0.594394766911925 13.039514103764724 38322.641374381696 11.26332415274742 0.23705479390938008
0.6148342043827172 13.024499824190327 32899.50286294601 11.80953432031591 0.2404184888042898
0.6356383427373687 13.012422480274912 28289.408864845107 12.379157552057146 0.2438267117145485
0.6568087931910312 13.00300855072766 24368.800144453544 12.97288203366646 0.24727740356487501
0.6783412537216815 12.995972641297922 21025.89797176697 13.592036280233547 0.25077536868212696
0.7002303059594277 12.991058735100292 18170.90690061216 14.23781732521378 0.25432323533445966
0.7224648147908891 12.988007875710137 15728.265496199032 14.911415006775977 0.2579229884298299
0.7450527887733005 12.986649493893351 13632.590051708614 15.613856846898866 0.2615745024267048
0.7679734210531414 12.986767384243784 11834.850368901902 16.346413468625865 0.26527971621133695
0.7912209278854568 12.98814216527361 10287.835533472233 17.11069900523396 0.2690432995903944
0.8147943648505382 12.990676532174298 8955.19491145604 17.908168700032817 0.27286768553154905
0.8386784370033282 12.994135582469688 7806.620750451389 18.740182214239418 0.276753903779756
0.8628606169817651 12.99840883876101 6813.544360074324 19.608095505936934 0.2807025373484209
0.8873409865154411 13.00336612425226 5954.689405081459 20.513989154856425 0.28471989723428964
0.9120984963497534 13.008846025953778 5210.526355341973 21.45965754410165 0.2888089972924274
0.9371185555645957 13.014739402969449 4564.680974312538 22.446577471033425 0.2929696994381836
0.9624033162972502 13.020950298217127 4004.0472390642212 23.476789277973197 0.2972059222072921
0.9879248195757245 13.02733943671563 3516.170135242211 24.55270848925268 0.3015237082896165
1.0136669544829326 13.03379301476489 3091.592765975716 25.67626847133053 0.3059246219639321
1.0396322403378433 13.040253018766405 2721.1237547288288 26.84944871798823 0.3104100573479111
1.0657844714053022 13.046578713531348 2397.8843335189526 28.075337688090688 0.31498868467589813
1.0921163191332335 13.052707123375239 2115.5248055644497 29.35597886608099 0.3196608693185526
1.1186151067129464 13.058543185322105 1868.3837182648706 30.69415147464118 0.32443145623612035
1.1452472032945602 13.063999116979574 1651.905210805123 32.093231848853314 0.32930834329086905
1.1720108204469786 13.06901420307915 1461.926548395258 33.55518526592181 0.33428938441928235
1.198868114515667 13.073464764457132 1295.2386669854877 35.084543100723 0.33938807106716673
1.225813752069787 13.077335603863297 1148.9240001279666 36.68331460147669 0.34460107817558727
1.2528108620074465 13.080492714971138 1020.0150822285437 38.35656647837993 0.34994293131045046
1.2798546293822808 13.082933482739751 906.6095908513687 40.106553294472675 0.35541029354841325
1.306896808354098 13.084524376589004 806.6467165914898 41.93871963263479 0.3610175676419711
1.3339363024917974 13.085232145187806 718.5122675109184 43.85657516380459 0.3667668280206213
1.3609434795766013 13.085032308687301 640.530717135003 45.86478560114983 0.3726657006310458
1.387875353436212 13.08377533881564 571.7159800675797 47.968696199023 0.37872420797584583
1.4147328528327152 13.081479250547634 510.7536244286741 50.17307685192558 0.3849480670215319
1.4414561410609754 13.07802690988463 456.8075901397322 52.48312332220083 0.39134412253922934
1.4680506479407363 13.073430813573232 408.94087532346856 54.90526449074586 0.3979241298293789
1.494460079368354 13.06756101474961 366.4677091842589 57.445690779016076 0.4046971508436253
1.520672516995759 13.060413911648839 328.7888330160136 60.11103076713564 0.41167295769725126
1.5466560726310172 13.051925990801806 295.24300044322604 62.90839063807113 0.4188620911434898
1.5723720812421962 13.04204433590329 265.4215885128279 65.845397398418 0.4262759238220771
1.5977974149651195 13.03071346346172 238.88935760379246 68.93024625920134 0.4339267288408579
1.6228832956341142 13.017889602743605 215.19658927332543 72.17175260776186 0.44182775431770877
1.6476353041595824 13.003550565818268 194.06559690026313 75.57940905583668 0.44999330458584474
1.6719849122826762 12.987616899481665 175.19752408830584 79.16312378047591 0.45843747448538635
1.695921848895127 12.97006329525984 158.33843428774085 82.93315032983222 0.4671737921153287
1.719401304637398 12.950850599271098 143.25626740663128 86.90219813845786 0.4762236843627009
1.7423839452996566 12.929906282797708 129.75535433208623 91.08181954329694 0.4856013880072447
1.7648661023837091 12.9072584858653 117.66011177456528 95.48615925168126 0.49532903925099264
1.786793283854405 12.882822435906348 106.80918766955214 100.12883366675955 0.5054239517155995
1.8081314626055247 12.856559510542432 97.06903285285155 105.02639724950375 0.5159119355813293
1.8288408792825903 12.828423137297943 88.31758019491899 110.19539359290353 0.52681553185154
1.8489202908705322 12.798454928245915 80.45163521889015 115.65349409014836 0.538158256134389
1.8682959150260665 12.766513758983685 73.37251661543321 121.42083857119582 0.5499691786918134
1.8869748445853836 12.732690822238567 66.99780039687465 127.51886550315221 0.5622781520195538
1.9048973438924717 12.696874266051172 61.24693087403013 133.97004560683482 0.5751145748295918
1.922037825053338 12.659055496821066 56.06523468859478 140.80007302830967 0.588514772823412
1.938351799268322 12.619166172833545 51.384131724930114 148.0366216183458 0.6025169887231587
1.9538473656639173 12.577319098041075 47.15765349701975 155.70816515497646 0.617156891084875
1.9684633271187562 12.533387971572726 43.3319997051899 163.84838280779567 0.6324821809328696
1.9821774043526048 12.48738266011204 39.873094733397515 172.49109465081773 0.6485345643842485
1.994966735884424 12.439306389943965 36.740702146453486 181.6755198243436 0.6653669574004849
2.0068023090516185 12.389142575189734 33.8988737141555 191.44370745990616 0.6830339189342446
2.017647313228887 12.336866827188373 31.32261331060518 201.8416998614067 0.7015946930899543
2.0274832714282267 12.282479756059514 28.98642980933275 212.91940722212797 0.7211118088918603
2.036292551984191 12.226011373051863 26.865192961031834 224.73241964705366 0.7416559159043672
2.044036697117178 12.167413693454275 24.93812981171109 237.3418151956218 0.7633038439531243
2.0506944529227478 12.106705163601461 23.18391840137279 250.81452030597765 0.7861383598976676
2.056266980497645 12.043956286462596 21.59038931211222 265.22372595307405 0.8102478903307657
2.0607131462567807 11.979103759422944 20.13957093106635 280.650978068734 0.8357314593409627
2.0640173009477825 11.912206880698603 18.818937470721213 297.18622820498143 0.8626967188114194
2.066177258481706 11.843302890238643 17.615751736820112 314.9298242724465 0.8912640135081817
2.067169511621414 11.772406293530066 16.521589957576914 333.9911202144764 0.9215589784945585
