M[M_sun], R[km], Lambda[1], P_c[MeV/fm^3], rho_c[fm^-3]
0.24162668629717493 15.618656898711224 2160425.4255784233 3.5677272577965504 0.1711233750220791
0.25364345857177023 15.277284294583358 1723231.4448281364 3.784809728928466 0.17388804994015572
0.26603830961702535 14.981314851681033 1383010.1350319847 4.011380722719444 0.17666641022846702
0.278812625880387 14.723588040739143 1116437.9630951188 4.247696638367106 0.17945714798174212
0.29196666437846625 14.498455296705437 906004.2205744887 4.494382479514467 0.1822668261556964
0.3055012709294363 14.301262724041283 738694.3897484127 4.751592645856276 0.1850911274146323
0.31941717756413857 14.128189326209597 605148.5074369198 5.020011410542926 0.18793671423714092
0.3337146258402962 13.976013567098512 497714.1023431819 5.2998600658355945 0.19080015564408886
0.34839459835546127 13.842080757413688 411037.5922127385 5.591870427653795 0.19368781310851535
0.36345480611117303 13.724070667305527 340681.3297601855 5.896205731448626 0.19659467499148028
0.37890784355218277 13.620066190203204 283328.1369339691 6.213731711542994 0.1995284569031871
0.3947400973321227 13.528498196725277 236428.71542578086 6.544708449991401 0.20248538473193414
0.41096383568204486 13.4479259025569 197856.7845139573 6.889833008468966 0.20546907962420102
0.4275708797819249 13.377100066379617 166104.7510321073 7.249812795717228 0.20848265800746504
0.4445642811620444 13.314971564008394 139822.79606261157 7.624910673390715 0.21152172898890884
0.46194527581733696 13.26060188847301 117991.94674265884 8.016067845121963 0.21459233427114655
0.4797090572090557 13.213183935833912 99825.69501279148 8.4239927834724 0.21769617864465488
0.49786460507666885 13.172016102360057 84656.2258297412 8.849131705155765 0.22083080785014456
0.5164008087069635 13.136439360610797 71949.10439555334 9.292347172662978 0.2239994785179273
0.535317927219273 13.105874802021896 61285.4937908054 9.754528863437592 0.22720518278466229
0.5546237422512688 13.079841536534646 52308.572780961535 10.236486185514977 0.23044927129762827
0.5743043333947833 13.057862567132917 44738.83806259938 10.738697630749607 0.23372853469511273
0.5943598142589874 13.039538574009667 38334.91283700721 11.262393200349106 0.23704897730194863
0.6147950172957048 13.024518765131987 32630.413689384186 11.808517214036236 0.240412303101105
0.6355947037005747 13.012445484771748 28297.368494160837 12.378048449137522 0.2438201446338627
0.6567656913694409 13.003030406872005 24375.941933000617 12.971686027284708 0.24727056768284242
0.6782955119744495 12.996007307026801 20870.127864573165 13.590736386787054 0.25076813122367914
0.7001832779436933 12.991070120984972 18040.53437883643 14.236406574852362 0.2543155819448973
0.7224145923487735 12.987997421765899 15733.481650812802 14.909885981822107 0.2579149038985285
0.7450014426054552 12.986654214168686 13540.944746334371 15.612216571752798 0.2615661184281956
0.7679205180980435 12.986743832661762 11838.116860247887 16.344639730496215 0.2652708745716295
0.7911632662963549 12.988129424094007 10291.542441910084 17.108782902053196 0.26903398222947333
0.8147359309091806 12.99066036640557 8958.694652692926 17.906100739535383 0.272857873206855
0.8386161310559032 12.99412729628535 7809.461749297251 18.737971568653656 0.2767437470071082
0.8627945225273321 12.998396737658663 6816.4603292158445 19.60571343148767 0.2806918504826628
0.8872670629898787 13.003337628547401 5956.635614729307 20.511424186632677 0.28470865714582855
0.9120282694070135 13.008829521102236 5212.582192987956 21.45689743210064 0.2887971792921316
0.9370465653230801 13.014723285574924 4566.592754890356 22.443633712864877 0.29295747274267314
0.9623217891700175 13.020923225754531 4005.6994490277207 23.473624931616907 0.2971930708565203
0.9878451793133528 13.027321443132491 3517.477290436691 24.54930866039877 0.30151020238355447
1.0135856071574894 13.033774638072794 3093.0363726691103 25.672646320237003 0.30591064338527524
1.03954746729492 13.040231316274285 2722.302111953812 26.845559963252338 0.3103953663327652
1.065696091593005 13.046556333023968 2398.9778124857658 28.071164126593978 0.3149732448571182
1.0920267272704467 13.052684801425906 2116.285404926895 29.351535289624366 0.3196448751716786
1.1185226955504268 13.058524784550439 1869.139711334047 30.689384831686002 0.32441464159422523
1.1451519251909217 13.063981662365228 1652.5779009689281 32.08815769667339 0.32929090900376273
1.1719133545329046 13.06899736898096 1462.6236723037196 33.549744085704276 0.3342710470809401
1.1987675554718311 13.07345644431473 1295.8041175937701 35.078709211436674 0.3393687799768678
1.2257110590392541 13.077320373679699 1149.4121737155558 36.67710493252983 0.34458104674480083
1.2527042349573478 13.080491035720046 1020.3798366263344 38.34993329256702 0.34992198280216896
1.279744192147977 13.082936393633835 906.9686990009462 40.09946652950343 0.35538836946513364
1.3067886085919929 13.084522046902498 807.0040134161521 41.931173702686564 0.3609947551525342
1.3338243285815339 13.08523823166777 718.7935930885818 43.84848546735854 0.36674278125910076
1.3608294887576449 13.085035391615497 640.8284836173179 45.85616908867959 0.3726406449832471
1.3877601895973717 13.08378112403381 571.9941071537426 47.95951606727725 0.3786980783574864
1.4146154868656522 13.081492908887817 510.99290675521473 50.163232439002634 0.38492048189164507
1.4413378924333686 13.078045057490822 457.02977690358875 52.472630255687385 0.3913153125099957
1.4679306436310833 13.073450977149172 409.1547862297173 54.894076309061745 0.39789401325643586
1.4943389696584772 13.06759079306378 366.6531812465732 57.43375725715914 0.4046656397711305
1.5205511467075148 13.060449890793281 328.9517686904082 60.098297579735025 0.4116399573395792
1.5465329285801068 13.051969406576628 295.39023832655215 62.894798988819566 0.41882749931556057
1.5722487609728908 13.042095078559296 265.5546963797746 65.8308836121387 0.4262396303128067
1.5976724012014312 13.030773854384046 239.006258355329 68.91474133235194 0.43388861472357504
1.6227597313232565 13.017959190898148 215.31148427446922 72.15518171265636 0.441787691190636
1.6475113659108374 13.003628156680202 194.16859623950086 75.56169099328886 0.4499511537349318
1.671859744898301 12.98769979457367 175.29459253035006 79.1442628905793 0.4583934722450402
1.6957979500538995 12.970159710133819 158.4220321529313 82.91296259836179 0.46712740076720594
1.719262935319708 12.9509211246852 143.33524946779232 86.88057964632199 0.47617472911451364
1.7422652899102353 12.930024607824953 129.82466900220444 91.05876129188604 0.4855500918852927
1.7647452757860278 12.90738654006307 117.71958514349005 95.46143911699595 0.4952747977557552
1.786671777187566 12.882960121023412 106.85967102549398 100.10243012441195 0.5053669740166986
1.8080123264974675 12.85671317041912 97.12298290466903 104.99817338636348 0.5158520021487915
1.8287250388363965 12.82858860859685 88.36244263030801 110.16520007002481 0.526752405226912
1.848806276289865 12.798633078747535 80.49529030751142 115.6210445250297 0.5380912265303379
1.8681946070865645 12.766735312330685 73.40647197003572 121.38607392485657 0.5498984106116883
1.886866843414322 12.732897994251378 67.0337824560864 127.48161384055031 0.5622034246168971
1.9047915545880834 12.697094966390821 61.27880202083018 133.93018388528031 0.5750358754142886
1.9219367919888257 12.659292986500825 56.095134356654924 140.75725858956721 0.5884313540152335
1.9382534338698345 12.61941532635446 51.41107792469932 147.99059807545112 0.6024284601485868
1.9537544123742046 12.577587148134992 47.1801511018815 155.65880249381243 0.6170633439006972
1.9683731356301337 12.533672428770009 43.35402754501624 163.79538189985738 0.6323831747963725
1.9820933171849662 12.487686886212417 39.89441564537996 172.4339675025685 0.6484290853511594
1.9948879400915553 12.439624408777767 36.76005756232993 181.6140593497234 0.6652550062937664
2.0067206789241365 12.389463369549789 33.91648752995162 191.37751455403915 0.682914923153503
2.0175801625306335 12.337221124564703 31.33989264494871 201.77033426577887 0.7014680261973504
2.0274209768521767 12.282851274384482 29.001581378291085 212.84256271239056 0.7209773740195358
2.0362362209526728 12.226400454404374 26.87900718226026 224.64938498176159 0.7415123885086349
2.043986688381234 12.167822945917443 24.95069193849054 237.2521858606285 0.7631510177034698
2.0506525947759333 12.107135098457135 23.19615524279035 250.71759512547197 0.7859751873048062
2.0562257598265403 12.044383443711443 21.60035540910105 265.11869443203415 0.8100731117775525
2.060685040452161 11.97957620988657 20.14942668270629 280.53738734231734 0.8355451441116294
2.0639851307777537 11.912876550033491 18.83134233923109 297.0282163407904 0.9401486047338221
