M[M_sun], R[km], Lambda[1], P_c[MeV/fm^3], rho_c[fm^-3]
0.24162668629717493 15.618656898711224 2160425.4255784233 3.5677272577965504 0.1711233750220791
0.25364144185001636 15.277359471885584 1723163.2779964088 3.7847933115610535 0.17388784530559093
0.26603716976841457 14.981300393258712 1383115.998083813 4.011346210332324 0.1766659931666365
0.2788107639872407 14.723584008624936 1116451.3140504665 4.247642863554012 0.17945652427494715
0.2919637316772682 14.498496156844386 905963.9680942893 4.494308031391965 0.1822659971585738
0.30549600217017064 14.301362433311114 738733.8333791266 4.751494996808862 0.18509007261855423
0.3194108199937655 14.12826602331234 605197.8676465575 5.019889841484696 0.18793545291124042
0.3337088866056154 13.976039119233485 497763.5783962225 5.299711376477758 0.1907986585889757
0.3483858545132581 13.842154311579982 411087.58213469095 5.591694246984219 0.19368610851207158
0.3634462415334264 13.724109993489135 340729.4448679054 5.895998101675596 0.19659272488871282
0.37889785537113196 13.62013375867276 283361.3442020737 6.213490120395159 0.1995262538828135
0.394727425228616 13.52855762506704 236453.82195537872 6.544433148529419 0.2024829707100266
0.4109492713258054 13.448007835363741 197922.19788697455 6.8895186824894195 0.20546640269225744
0.4275544548137249 13.377163754005112 166127.96335041447 7.249456496045571 0.20847971043159322
0.44454726158818797 13.315020669142067 139842.18704649527 7.624513385011215 0.21151856631795243
0.46192477428748785 13.26068773216101 118019.24271671777 8.015622639013085 0.21458889024196068
0.47968682328736884 13.213250841912187 99847.04843227075 8.42349618849688 0.21769244494466602
0.49784042124141936 13.172075759576693 84672.53303737097 8.848585552507362 0.22082685347161704
0.5163759426218008 13.136476332483007 71965.38441189614 9.291742624735686 0.22399522246283
0.5352918815853022 13.105903947348102 61302.16326706043 9.753861821859283 0.22720061586493148
0.5545939591913612 13.079892696221926 52321.17964385404 10.23575230290679 0.2304443839257463
0.5742719565861282 13.057904590616479 44747.47813713092 10.737900095914755 0.2337234142744276
0.5943272727095453 13.039568373445036 38345.541249694164 11.26152002074477 0.2370435216599794
0.6147610641016639 13.02453397483394 32919.00104415745 11.807563232136358 0.24040650129947008
0.6355576925966039 13.012459504471265 28307.442882682102 12.37700818568527 0.24381398515677127
0.656726819701134 13.003063888651397 24383.496794283627 12.970564259281582 0.24726415611693917
0.6782546809700604 12.995995057135032 21038.19639127302 13.589517186632948 0.2507613430438644
0.700138627576473 12.991079793421283 18182.10737845581 14.235083406434686 0.25430840369165414
0.7223682286091673 12.987999476373853 15737.517822575213 14.908451889114026 0.25790732130979555
0.7449523812317931 12.986657854586207 13641.188564903523 15.610678142765813 0.26155825499969443
0.7678683933537215 12.98674661760335 11841.915232908754 16.342976134180837 0.26526258196124175
0.7911094020176248 12.988122097484128 10294.343498290016 17.106985790523765 0.2690252434846587
0.8146791443552898 12.990647010966843 8961.388974327774 17.904161211508466 0.27284867028505017
0.8385569334405638 12.994106845816075 7811.56579415495 18.73589822616079 0.27673422107112966
0.8627341031570906 12.998375095174946 6818.526311054952 19.603479319552576 0.2806818274313907
0.8872047318356648 13.003332903900262 5959.232572900902 20.50901855433807 0.2846981152921144
0.9119610224724756 13.008824773019798 5214.4438479467935 21.45430879240825 0.28878609548660517
0.9369758577340918 13.014708001540525 4568.078124354412 22.440872848192306 0.29294600568262125
0.9622505463917641 13.020907121705177 4007.198441912426 23.470657199997685 0.2971810180166156
0.9877709381106407 13.027301005833024 3518.854182147045 24.5461200954496 0.30149753572869425
1.013509639334145 13.033762195398914 3094.131365047288 25.669249263241344 0.3058975334880928
1.0394675576572425 13.040213980165767 2723.3105741143445 26.841912890792056 0.3103815883497369
1.0656176149262309 13.046546894767076 2399.775585192019 28.067249969959796 0.3149587646897226
1.0919432014758839 13.05266396712771 2117.289978041845 29.347367919712198 0.31962987519877295
1.1184361740735205 13.058506458516268 1869.9084743288652 30.684914502370724 0.3243988722178955
1.1450630589678095 13.063961326570917 1653.107586157987 32.08339899639072 0.32927455857830457
1.1718225228299926 13.06898097219937 1463.2052082223931 33.544641204909816 0.3342538498465337
1.1986732429915699 13.073439183909791 1296.3604540278247 35.07323807037364 0.33935068839660204
1.2256155980591321 13.077311666601277 1149.8534417247135 36.67128140586617 0.3445622609492464
1.252607273608579 13.080479733657429 1020.9139969974823 38.34369038961407 0.34990220665419436
1.2796450462445854 13.082919457514741 907.4187000538858 40.092820521915996 0.3553678089379458
1.3066858451391348 13.084514410514663 807.3813800282761 41.92409712358027 0.3609733615817989
1.3337188949217393 13.085236955126536 719.1499699926949 43.840898991708414 0.36672023033003226
1.3607238955375522 13.085037592024431 641.1183799807545 45.84808861014179 0.37261714804930923
1.3876522464581247 13.083786965977167 572.257741354427 47.95090707834329 0.3786735743959383
1.4145058983702496 13.081505326269642 511.2369365263682 50.1540005584496 0.3848946131449612
1.441227208670277 13.078062908305277 457.215630919126 52.46279013632943 0.3912882952290129
1.467820181163475 13.073470855027084 409.35227029869606 54.883584388657965 0.3978657708936396
1.4942257219065995 13.06761471377451 366.8215960221506 57.42256644529863 0.40463608986222355
1.520435576592376 13.060484413858926 329.10631981425786 60.086356941992676 0.41160901101766206
1.5464178330185632 13.052009378461948 295.53354708148703 62.88205339940091 0.41879506077717077
1.5721335541898827 13.042143511793181 265.68115872347647 65.81727337150544 0.4262055962306527
1.5975558642437928 13.03082856022907 239.11744139316752 68.90020174589085 0.43385287360018854
1.6226434193709027 13.018026939152112 215.41895684622315 72.13964262597563 0.44175012264649144
1.6473950593277404 13.003698904476249 194.26697390070024 75.54507627917117 0.4499116277237865
1.671744261346349 12.987783128539583 175.37696938130358 79.12657661589968 0.4583522103685567
1.695681796083928 12.97025128472884 158.50087902027192 82.89403224666943 0.46708389887415097
1.7191544345292304 12.95104956383181 143.41205463742057 86.86030779255424 0.4761288233396715
1.742151985455313 12.930137789328366 129.8978802540235 91.03713949715804 0.4855019913507194
1.764636358884478 12.907515020962482 117.77883902360529 95.43825914299593 0.4952239357169625
1.7865616594752776 12.883091793251628 106.91228999606491 100.07767178929018 0.5053135466036158
1.8079022568376568 12.856856381035474 97.16757989417574 104.97170833559844 0.5157958035580189
1.8286169231452964 12.828743254671368 88.40805267523614 110.13679502712677 0.5266928656871642
1.8486989862910637 12.798798998374616 80.5328505076305 115.59061757126402 0.5380283749433925
1.8669981764236532 12.767333989739475 73.75116190241873 121.47548717271339 0.7214478643961029
1.8794046240420137 12.73284589031932 68.77601136134213 128.24981459615364 0.9943191634378994
1.8862633930726103 12.692171845273919 65.0687876721452 135.98804593139735 1.2606175261942714
1.8884648218308595 12.644465775713936 62.2131886683743 144.7341750586625 1.520717660677612
