M[M_sun], R[km], Lambda[1], P_c[MeV/fm^3], rho_c[fm^-3]
0.24162668629717493 15.618656898711224 2160425.4255784233 3.5677272577965504 0.1711233750220791
0.25364451427547696 15.277262489709729 1723055.9446098057 3.7848416536826983 0.17388844786681623
0.26604199593412137 14.981239409408804 1383013.0309498298 4.0114478351518175 0.17666722124260523
0.27881790740724394 14.723465714119445 1116395.817580627 4.247801209229753 0.1794583608461639
0.2919741061797464 14.498337139498116 905875.2798029284 4.494527253068342 0.18226843824281896
0.30551126350871816 14.30115806847948 738559.0956515255 4.751782538111837 0.18509317861340718
0.319429014486908 14.12806506448598 605047.2868881456 5.020247820544679 0.18793916708215497
0.3337302692932018 13.975832652935745 497617.13709931966 5.3001492179295475 0.19080306692588486
0.348411781289706 13.841936457341468 410948.3993163778 5.59221304403727 0.19369112801627597
0.3634765716657464 13.72387914766446 340612.2496117349 5.8966095098440725 0.19659846736361894
0.3789301063552219 13.619934558593576 279339.5544777862 6.214201538593413 0.19953274116017833
0.3947654229255927 13.528395588787575 236366.6601667697 6.545243838150909 0.20249007936281904
0.4109923268329091 13.447811301957172 197831.39373211647 6.890444293842391 0.20547428558695707
0.4276024268304893 13.376976863763776 166048.1179795054 7.250505714940794 0.20848839035062164
0.4445990147301863 13.314854534378926 139772.415114375 7.625683311542844 0.21152787968540449
0.4619805833755118 13.260497130220251 116633.3732115654 8.016933679461534 0.21459903219976012
0.47974814552415534 13.21311066003346 99786.32858071875 8.424958566127 0.21770343998007807
0.49790892402962444 13.171927144540845 84623.64205018744 8.850193875329143 0.2208384984160302
0.5164493486225161 13.136352585529574 71923.04072250289 9.29352292036399 0.22400775585504173
0.535369904070697 13.105804750108609 61260.413067280926 9.755826161114571 0.22721406477125855
0.5546796614304126 13.079779584948536 52291.55032263156 10.237911392911785 0.23045874962372773
0.5743632505653073 13.057818709204135 44716.231443427154 10.740248740667477 0.23373849330125918
0.5944242013375511 13.039493424724219 38317.3841482314 11.264091443183563 0.23705958795391022
0.6148639335363821 13.0244716927565 32891.45164774189 11.810372622926549 0.24042358708283948
0.63567049596691 13.012412148778827 28282.526090485226 12.380071683196155 0.24383212435285384
0.656843274093337 13.002999778261294 24362.28025176669 12.973867795452458 0.24728303777501312
0.6783777880744594 12.995963201700643 21020.235567431177 13.593107672228662 0.25078133390571267
0.7002684046750891 12.991044368033913 18029.591918678896 14.238980092960771 0.254329543406236
0.7225054856007119 12.988005290386768 15724.632462827749 14.912675265017617 0.2579296518902114
0.7450968037800437 12.986639589871931 13628.895657399415 15.615208805739494 0.2615814127435083
0.7680195882143928 12.986764056821816 11831.977015686241 16.347875438537514 0.2652870037646718
0.7912682128321249 12.988142376233284 10286.33764658519 17.11227832473484 0.26905097928632477
0.814847040915255 12.990661288906786 8952.983280730366 17.909873194225565 0.2728757732346165
0.8387304734570106 12.994146428547792 7804.436030231592 18.742004322560938 0.2767622754247092
0.8629130184332344 12.998415713500226 6811.320628850201 19.61005892314713 0.2807113459631806
0.8873978515026906 13.00336846041118 5952.8415318396765 20.516103332402757 0.2847291618881061
0.9121568754194823 13.008871492882022 5208.9811562136265 21.46193258071029 0.2888187383403646
0.9371793995751895 13.014761414948973 4563.176726553051 22.449003888994103 0.2929797773969993
0.9624670390761997 13.02096232568432 4002.810630307303 23.479397531095415 0.2972165150982089
0.9879892200507848 13.027352009788185 3514.9734357466887 24.555510856412482 0.3015348407639962
1.0137353463481718 13.033808262316125 3090.3560907302244 25.67925410396598 0.3059361440952727
1.039701680455225 13.040271528303634 2720.125902438024 26.852654121063118 0.3104221667835325
1.0658562962025706 13.046594680341224 2397.103538567676 28.07877786854714 0.3150014113993117
1.0921915253687573 13.052728327269167 2114.6766929053433 29.35964163007718 0.31967405301999036
1.118691665802887 13.058560934719122 1867.474100301333 30.698080558108074 0.3244453163326481
1.1453251644328837 13.064016624669986 1651.1334294787578 32.09741442669159 0.329322714216354
1.1720920553751206 13.069025787312718 1461.3167214509106 33.55967040646332 0.33430449980534455
1.1989501576744857 13.073477832400604 1294.7735479496407 35.08935197652051 0.3394039727157399
1.2258977209888644 13.0773457357693 1148.4632562395984 36.68843325589688 0.3446175901623962
1.2528971431889366 13.080510173966763 1019.6231669140884 38.36201568733872 0.3499600903470648
1.2799411621391652 13.082947838951888 906.226000642336 40.11239500357746 0.35542836584479454
1.3069937728560397 13.084551164751357 806.3801623660961 41.94493986692714 0.3610363723525982
1.3340261370215458 13.085244130017454 718.1334224953966 43.86324367358002 0.3667866502803732
1.3610366433572392 13.08503265366871 640.2854312112504 45.871888411776744 0.372686354639505
1.387976811050445 13.083782123972753 571.4604783369723 47.97626365349672 0.3787457473941055
1.4148228005568515 13.081455491649287 510.57698751465404 50.18119194371708 0.38497080640303327
1.4415535316339458 13.078014750492068 456.622520603173 52.49177316695962 0.3913678717721202
1.4681492961637328 13.073411132816773 408.79023551181444 54.91448739535053 0.3979489562298715
1.4945599289706577 13.067535517308523 366.3187684379653 57.455528153564345 0.4047231269323495
1.5207724687700002 13.060382867197006 328.6686434650885 60.12152740281456 0.4117001616267043
1.5467568017829338 13.051890842402658 295.1268102470952 62.91959501275858 0.41889060716785664
1.572474171153642 13.04200180054516 265.308711243374 65.8573620131 0.4263058428139597
1.5978878431852765 13.03066016044687 238.77082307294742 68.94302800867291 0.43395814886000234
1.6229961273295115 13.017847280803773 215.1025005148017 72.18541318949858 0.44186078123740874
1.6477387460537067 13.003485517303922 193.97291793786007 75.59401542141211 0.45002805278340247
1.672087095341334 12.987544880373486 175.13478760884806 79.178672349576 0.4584737491192097
1.6960239167520352 12.96998015233142 158.26589496815131 82.94979283163998 0.4672120365360122
1.7195034367560522 12.950760940933275 143.19489194049797 86.92002026030389 0.47626404270003136
1.74248483214243 12.929815082499069 129.70054441916471 91.10082870290059 0.48564367639034267
1.7649667993339115 12.907149777971922 117.60188005641714 95.50653860723739 0.4953737561075717
1.7868774925843078 12.882675265590535 106.76281465982878 100.150600964272 0.5054709245992839
1.8082284929025187 12.856434294854564 97.02818183653541 105.04966538407689 0.5159613455138673
1.8289419048622555 12.828297184788703 88.27868659222528 110.22028570697596 0.5268675746405699
1.8490137488347245 12.798304842426571 80.41676370684216 115.68024633794697 0.5382135170468499
1.8683870690585684 12.766355397536524 73.34191171637318 121.44949963362464 0.5500275221118108
1.887062403208769 12.732524224360565 66.9678437702406 127.54948733553425 0.5623394391926212
1.9049833816040742 12.696691778091763 61.21857331443988 134.0029093149104 0.5751794579934238
1.9221229701424984 12.658859286232756 56.03944014371113 140.83537135808734 0.5885835473930954
1.938433118514545 12.618954847444897 51.36053187908517 148.07456599703264 0.6025899766234134
1.9539251516846754 12.577096070754557 47.135357771140846 155.74886279148154 0.6172340171799431
1.9685377117184093 12.533153122180682 43.31483785259866 163.89208037798105 0.6325638083571279
1.9822479340262016 12.487136153603046 39.85562748872808 172.53819459345527 0.6486215292785276
1.995031315403809 12.439039448020933 36.72345823008146 181.72619291079815 0.665459259130084
2.0068628908026387 12.388864919040392 33.8840008971291 191.49828282478217 0.6831320297222153
2.017704443704496 12.336573729768238 31.309511256636032 201.90054058304287 0.7016991295666998
2.0275366798210843 12.282177426630293 28.97389530986426 212.98276583267412 0.7212226509903856
2.0363395003022595 12.225687949665701 26.85384291190601 224.80088272731055 0.741774255968466
2.0440774814034235 12.167077326947975 24.928195443584347 237.41571634604003 0.7634298522032628
2.0507299260706873 12.106350995533262 23.174511142327272 250.89439356470473 0.7862727561691408
2.0562964185994583 12.04358490133609 21.581869008608017 265.310254198098 0.8103917602620492
2.060736251988186 11.978717203296448 20.13118163475804 280.74463869007144 0.8358850845592748
2.0640344730828697 11.911802028846964 18.81135941146004 297.28784403943797 0.8628613546708775
2.0661839733756326 11.842878366112002 17.60979710740222 315.0402115001276 0.8914407217482024
2.0671721124445224 11.771974496736432 16.514786726844704 334.1110070607966 0.9217483301918276
