M[M_sun], R[km], Lambda[1], P_c[MeV/fm^3], rho_c[fm^-3]
0.24162668629717493 15.618656898711224 2160425.4255784233 3.5677272577965504 0.1711233750220791
0.25364460293582575 15.277285570016923 1723122.0337154123 3.7848316298051166 0.17388832292401785
0.2660404486850595 14.981265454406284 1383029.369408565 4.01142676280267 0.17666696659570183
0.2788162716668442 14.723487948715059 1116346.6338896707 4.247768375336121 0.1794579800224774
0.2919720156490875 14.498390644950902 905883.6920858255 4.494481795875804 0.18226793206643
0.3055082412432435 14.301182571208148 738617.0399160681 4.751722913944198 0.18509253455860225
0.3194250336796102 14.128110430819817 605072.9093111464 5.020173590019793 0.18793839691180894
0.33372396777426216 13.975920018232527 497618.5128802107 5.300058426535183 0.1908021528071938
0.34840638011996566 13.841982258978259 410978.6655607058 5.592105464909764 0.19369008715862338
0.36346980724944666 13.72393865002731 340636.32761975797 5.896482725803005 0.19659727658107487
0.3789246423568268 13.619954875247496 283291.55927158013 6.2140540151165915 0.19953139592369953
0.3947574978649795 13.528420902198581 236396.00230527858 6.545075728226343 0.202488605265886
0.4109833740783891 13.44784787493171 197849.1928368775 6.890252351772952 0.20547265092774836
0.4275916942233314 13.377029349662388 166064.72639096424 7.250288139262195 0.20848659040279247
0.4445886039976891 13.314883278189582 139785.87208218267 7.625440703446531 0.21152594836896133
0.46197100504421923 13.26053069538639 117969.99803383666 8.016661806831097 0.21459692904516411
0.47973709002917747 13.213140046042 99808.66318093799 8.42465530857887 0.2177011599072624
0.49789475112756404 13.171961343719662 84633.86130062368 8.84986035088499 0.22083608355655052
0.5164344908302226 13.13637483137683 71929.89998488578 9.293153730966623 0.224005156738668
0.5353542738920782 13.105837956464194 61267.09659603858 9.755418803130786 0.22721127578287442
0.5546613579506193 13.079806314620194 52298.92890158151 10.237465307727216 0.230455791869605
0.5743460169273422 13.057819856752568 44321.54133555197 10.739761681226703 0.23373536622877727
0.594405087200295 13.039509805237428 37989.65930326907 11.263558181137956 0.2370562561229992
0.614841954596476 13.024498702242878 32896.5988582907 11.809790007462869 0.24042004380874787
0.6356478142086591 13.012435240048614 28287.755947348553 12.379436366906292 0.2438283625979592
0.6568193823412509 13.003004731171135 24366.86460411478 12.973182695845972 0.24727912202660077
0.6783525291686633 12.995969372373334 21024.578299553687 13.592363059536122 0.25077718810173427
0.7002415088654881 12.991058040997185 18168.995820345335 14.238171973970475 0.25432515932127336
0.7224767585470658 12.988008874196469 15726.101400505151 14.911799389916595 0.2579250208083887
0.7450665336933912 12.986639227541675 13631.639526898747 15.614269198506209 0.26157661009459793
0.7679890884604906 12.986761257397138 11834.017093633416 16.346859373249867 0.26528193893405083
0.7912351856946879 12.98813962181219 10287.083893769135 17.1111807010308 0.2690456419139386
0.8148092519242598 12.99066979329975 8954.602747928791 17.908688573556173 0.27287015229424466
0.8386952564683534 12.994126292214519 7756.531295140721 18.74073795954857 0.2767564571419012
0.8628763812830488 12.998403864066564 6812.97309848863 19.60869434968394 0.28070522398264275
0.8873597270423212 13.003358133848462 5954.159571096187 20.514633979593317 0.2847227229562683
0.9121164331407097 13.008848932210121 5210.146467612409 21.4603514297847 0.28881196830998196
0.9371377757833957 13.014743163734508 4564.362049023457 22.447317527034407 0.29297277320948767
0.9624226253816264 13.020964631136275 4003.6665918734443 23.477584792299385 0.2972091530273411
0.9879445354798208 13.027343313791771 3515.6911904050294 24.553563206751413 0.3015271036764855
1.0136877581614152 13.033797840498694 3091.3740983929106 25.677179083302878 0.30592813619090736
1.039652945178936 13.040262865465447 2720.775858118714 26.850426357886025 0.3104137506954018
1.0658060998538683 13.046579097970687 2397.6610506731618 28.076386932747877 0.31499256628813166
1.0921396019859029 13.052713201027398 2115.1992030438364 29.357095996533666 0.31966489030226064
1.1186386170322342 13.058548668294149 1867.9571909936865 30.69534982958009 0.32443568351081886
1.1452710050071717 13.064002242930586 1651.7133325468135 32.09450751681117 0.329312726360324
1.1720349233578378 13.069016668888052 1461.6870536343743 33.55655321180598 0.3342939945379531
1.1988924254329063 13.073474578400852 1295.0884375036642 35.086009781694976 0.3393929209835229
1.2258402300546216 13.077342116908037 1148.7583257440147 36.68487576100372 0.34460611423455917
1.2528360093070374 13.080503707785368 1019.9106888919831 38.35822845267956 0.34994816470819223
1.2798791999109957 13.082940733490585 906.4605794849717 40.1083349755885 0.3554158054745644
1.3069248358934629 13.084521427484324 806.5780519745708 41.940616758481625 0.36102330294081936
1.3339621000325437 13.085236244096047 718.4264524094924 43.858609006574284 0.36677287365315886
1.360972112736317 13.085032240314625 640.4688555240143 45.86695189888109 0.37267199993057903
1.3879038407137974 13.083770006986907 571.6523965559533 47.971004205583036 0.37873077730755644
1.4147552137164445 13.081462005200418 510.7008846864063 50.175551878162 0.3849550023177999
1.4414856274736085 13.07802382616092 456.74917914241814 52.48576143869902 0.39135136581871655
1.468080314568805 13.07342160466019 408.8996147524355 54.90807738007273 0.3979317016215597
1.4944902692603521 13.067556594129696 366.4463942093621 57.44869107010456 0.4047050732651139
1.5207031919259995 13.060403670546004 328.7461578231853 60.11423212002224 0.4116812545821528
1.5466869882143308 13.051916033024924 295.19772302244604 62.911807837088645 0.4188707881866688
1.5724031062812935 13.042030192045887 265.3904574501514 65.84904645478589 0.4262850487367318
1.5978171756127102 13.030691674278911 238.844955809959 68.93414452407032 0.4339363115319509
1.6229155649693177 13.017869927530493 215.17118266950072 72.17591889689763 0.44183782707298275
1.647667371496954 13.003529620327415 194.04359017354966 75.58386378727867 0.45000390228637566
1.6720156150341074 12.987594155092562 175.18023987215372 79.1678658625134 0.4584485377085269
1.6959533315578454 12.970036377806277 158.32460889646936 82.93822603461285 0.4671854560701318
1.7194331659358155 12.950821697944487 143.23839605110112 86.90763359758381 0.4762359930033244
1.7424113514140107 12.929868160059803 129.74151984402658 91.08761701911659 0.48561428525696926
1.76489685580552 12.90722524086744 117.64389860801883 95.4923746005717 0.4953426771142782
1.7868234466283524 12.882784502695513 106.79859829269242 100.13547230082528 0.5054382775999043
1.8081612963827074 12.856520983300964 97.05732314514172 105.0334935975371 0.5159270046912526
1.82887015046503 12.82838116784664 88.30340752975829 110.20298520862447 0.5268314039005838
1.8489496446925424 12.798407994976541 80.44035918117505 115.66165299077858 0.5381751096076709
1.8683238962126094 12.766464941192934 73.36334096054021 121.4295796027036 0.5499869722287326
1.8870035267605325 12.732639912713434 66.99055469627191 127.52820451030888 0.5622968433029737
1.9049241628292006 12.696818520722477 61.240047090427325 133.9800683145803 0.5751343627667046
1.922063968176404 12.658994942728796 56.05726468323394 140.81083821572295 0.588535747502287
1.9383769941516844 12.619101466541073 51.37803555642742 148.04819376120412 0.6025392483156967
1.9538720625022044 12.577251237951609 47.151555471609264 155.72057694774955 0.6171804126746181
1.9684854723531888 12.533314825087256 43.32660085809547 163.86170947530022 0.6325070752585203
1.9821987973518609 12.487308441666782 39.86857588177213 172.50545891690908 0.6485610864310298
1.9949858714640019 12.439224813658422 36.73485943361727 181.69097376662566 0.6653951069706328
2.0068209825518815 12.38905790129867 33.89142322037722 191.46035144804583 0.6830638400313379
2.0176656000061937 12.336776643039743 31.318526492991186 201.8596446157329 0.7016265432587792
2.027499377268338 12.282386837632057 28.983267178805384 212.93872975290455 0.7211456125034237
2.03630741919072 12.225910973640973 26.862095290901262 224.7532988290783 0.7416920060675597
2.044048725034592 12.167311408987633 24.93477931411131 237.36435275994998 0.7633422725706398
2.0507063529108356 12.106596111675628 23.18158569236517 250.83887910455405 0.786179346477637
2.056276678972639 12.043842483509387 21.588407867303857 265.25013681340135 0.810291839536789
2.0607204207031233 11.978985606386084 20.136788402949772 280.67954138906646 0.8357783098343625
2.0640226036344727 11.912084235981956 18.8168048135891 297.2172174899856 0.8627469270058209
2.066180380153661 11.843174766862747 17.614346370656776 314.9634884065857 0.891317903165713
2.0671703589431236 11.772273736561063 16.520007297548187 334.02768126236583 0.921616723749224
