M[M_sun], R[km], Lambda[1], P_c[MeV/fm^3], rho_c[fm^-3]
0.24162668629717493 15.618656898711224 2160425.4255784233 3.5677272577965504 0.1711233750220791
0.2536412377199499 15.277386450259057 1723198.1435201322 3.7847856386375818 0.17388774966630138
0.2660361416555036 14.981315374718687 1383042.5942645932 4.0113300804801515 0.1766657982468922
0.27880873371815096 14.723651388616561 1116541.0474396134 4.247617731244308 0.17945623277802816
0.29196080790750184 14.498559838780634 906024.189077043 4.4942732373087795 0.18226560971838227
0.305493927690933 14.301364278663717 738772.3529561536 4.751449359735423 0.1850895796510614
0.31940771322573774 14.12830451975919 605208.9525223355 5.019833025431967 0.1879348634227644
0.33370244059419046 13.976132385476202 497778.9708550172 5.299641885876946 0.19079795893393128
0.3483825307010916 13.84211598956568 411090.26985288877 5.591611908525078 0.19368531186482885
0.3634414605933625 13.72415105577604 340739.7977645844 5.895901065800824 0.196591813507242
0.3788925189066243 13.620172848799369 279481.4525331563 6.213377213115599 0.19952522430437314
0.3947206932427291 13.52860083698708 236474.52719667015 6.544304487261362 0.20248184252451862
0.4109424268482929 13.448039090213957 197935.9127938435 6.889371783823337 0.20546515164157345
0.42754699834693044 13.377193424421325 166148.39851367305 7.249289981846861 0.20847833290230122
0.4445392792053339 13.31504338638774 139861.61785262777 7.624327715682295 0.21151708827070922
0.46191608042870697 13.260719858599616 118030.12835641137 8.015414576555559 0.21458728071064045
0.4796768061617858 13.213273267273076 99853.49462335913 8.423264110887889 0.21769070004548494
0.49782952232235145 13.17209808991571 84680.01107162611 8.848330315596026 0.22082500544732464
0.5163641189052397 13.136500453825063 71971.80334127364 9.29146009867976 0.22399323346178282
0.5352786619445642 13.105928132934357 61306.12151063454 9.753550091561353 0.2271984815943034
0.5545812783672475 13.079883685782688 52327.526536709884 10.235409336922464 0.23044209990608214
0.5742599549932339 13.057902758173443 44754.65429617207 10.737527384501655 0.23372102135170397
0.5943116285684996 13.039580772427446 38350.20241781425 11.26111195985529 0.23704097208815755
0.6147436488304986 13.02455047603263 32642.276898953358 11.807117411790848 0.24040378996793457
0.6355406959193184 13.012468047249456 28309.01524532114 12.376522045579174 0.24381110668513004
0.6567066984460762 13.003077539305755 24385.265069840174 12.970040031804372 0.24726115984764901
0.6782345692593604 12.996016405539672 21040.478482922492 13.588947429054869 0.2507581707863168
0.7001179854424784 12.991082053445835 18183.639219630288 14.23446506464994 0.2543050491572937
0.7223472059920721 12.987997155781061 15739.329360096965 14.907781712819736 0.25790377783510277
0.7449285095022187 12.98664752399818 13643.164321263948 15.609959210565192 0.2615545802951714
0.7678445297034694 12.986746223577734 11843.423015246392 16.34219871223445 0.26525870670782314
0.7910834367870975 12.98813423435514 10296.154734291702 17.10614597821204 0.26902115976177116
0.814651219379826 12.990659385360711 8962.772053410317 17.90325484965132 0.272844369662846
0.8385284070943823 12.994118783673436 7812.561036017252 18.734929334396455 0.2767297695147906
0.8627043948923787 12.99837393624205 6819.57220622139 19.602435302745565 0.2806771435864046
0.8871757015382089 13.003326126578765 5960.197849481943 20.507894389120565 0.28469318902582674
0.9119293912978907 13.008815347027445 5215.246794684495 21.453099111485578 0.28878091598320216
0.9369436218105592 13.014702031857189 4568.835854570392 22.439582689928965 0.2929406470997001
0.9622170006502561 13.020896383486589 4007.8159468621734 23.46927037774229 0.2971753857193714
0.9877364272446424 13.027288860711911 3519.466347634996 24.544630083527554 0.30149161661866986
1.0134734747378116 13.033746012795746 3094.525508301141 25.667661828318177 0.30589140727100156
1.0394316499002658 13.040202583989208 2723.8281098012358 26.840208631142417 0.31037514996366583
1.0655794515445989 13.046538697805559 2400.2441173279994 28.065420910486807 0.31495199820339603
1.0919025758341911 13.052666553375888 2117.4833527017104 29.34542054168546 0.3196228658335729
1.1183947356817026 13.05849816545736 1870.2044481492128 30.682825562420692 0.3243915033468618
1.1450216169464873 13.063954777387632 1653.519381055424 32.08117531097078 0.3292669182142259
1.1717787568937703 13.0689709757936 1463.5447854021484 33.54225669788032 0.33424581381199137
1.1986299066187835 13.073435984045794 1296.6550239048042 35.07068149111222 0.33934223448207473
1.2255717824036925 13.077300634348452 1150.088754113081 36.66856017166845 0.3445534826689626
1.2525603633894484 13.080476285768018 1021.1286147771757 38.34077320068933 0.3498929656391922
1.2795988054782799 13.082920669587526 907.5763593501727 40.08971498094588 0.35535820143167846
1.306636582668877 13.084514886021974 807.5146564104128 41.92079039743458 0.36096336484769365
1.3336702134726313 13.085232791956399 719.2775510182105 43.83735401834919 0.36670969283588345
1.3606745592909333 13.085040753135166 641.2725003205597 45.84431281548331 0.3726061685513453
1.3876020612533129 13.083791199981656 572.3608844462232 47.94688433999663 0.3786621243840355
1.4144538054408655 13.081510886833117 511.3294956218649 50.14968678069372 0.3848825254643011
1.441182908984032 13.078086313948653 457.33359113011625 52.45819216518194 0.3912756709229528
1.4677663326868526 13.073483250052595 409.43534040870685 54.87868187160505 0.39785257419943165
1.494173292316 13.0676298363105 366.9080707709129 57.41733738158034 0.4046222822530465
1.520383022547454 13.060501266162099 329.1878697510125 60.080777535063824 0.41159455097569003
1.546364402641879 13.052030746157333 295.60525585210326 62.87609789467449 0.41877990354415845
1.5720789017863972 13.042164029999565 265.747625384239 65.81091387773816 0.42618969353361996
1.5975010531373002 13.030856242074728 239.17459224857484 68.893408038375 0.43383617334951596
1.6225875842591269 13.018055327951421 215.46939110615148 72.13238192947047 0.4417325686034014
1.6473406348395174 13.003732789562534 194.30846917856996 75.5373130282565 0.4498931591338365
1.6716892115335893 12.9878198873415 175.42142424361714 79.11831270984985 0.4583329307702877
1.6956291707206108 12.970294010805675 158.53827744171545 82.88518708976133 0.46706357272933746
1.7190913897390152 12.951067966703267 143.43839150115514 86.85083587031613 0.4761073740960766
1.742097752587222 12.930189774923251 129.9270053936479 91.02703686629455 0.4854795167156929
1.7645825478753894 12.907572215391923 117.80318037942368 95.42742852157362 0.4952001709152017
1.7865089180318843 12.883154272369886 106.93758486111025 100.066103748024 0.5052885832724286
1.8078498513947432 12.856922260050585 97.19279874643267 104.95934291148315 0.5157695455539911
1.8285748078273236 12.828838786334853 88.43124161294831 110.12351452074788 0.5266650143612365
1.8486495183644567 12.798878985421885 80.55387028783203 115.57640115878114 0.5379990087409097
1.8680408795318197 12.76700287916795 73.46129988419113 121.33824596368389 0.5498010504097331
1.8867168268676573 12.733185972366446 67.07749753623816 127.4303328420609 0.5621005040621071
1.9046469718978654 12.697398130489436 61.32500532843322 133.8753445437425 0.5749276055266285
1.9217961875499385 12.659617462547816 56.13530517871754 140.69835767712786 0.5883165926389167
1.9381244739308638 12.619791472873896 51.448792011608106 147.92728298091814 0.6023066704141302
1.9536194189408196 12.577948908091129 47.21495790501085 155.5908943944658 0.6169346512547388
1.968250402398596 12.534063667577257 43.38689953399841 163.7223068946205 0.6322464235667047
1.9819781000815218 12.48810532910347 39.922999154529656 172.35537951548835 0.6482839812256487
1.9947768124421892 12.440063323797538 36.78584517981553 181.52951106099306 0.6651010004135157
2.0066202674458395 12.389928157650367 33.94237918496045 191.2864571068218 0.6827512280885706
2.0174864509785135 12.337707936821435 31.3617727227587 201.67216221896726 0.7012937804981336
2.027334209544271 12.28336731784452 29.022792001941912 212.73685492817364 0.7207924445753441
2.0361594639032785 12.226939813215058 26.898689093743513 224.53516341822996 0.7413149538168406
2.043918942724409 12.168390798784774 24.969161886104505 237.1288942326689 0.7629407941520369
2.0505938539256223 12.107726137258597 23.21145837501378 250.5840754490755 0.7857501033110427
2.056177012322815 12.045001428981976 21.615515606931226 264.9742198299623 0.8098326976459075
2.0606472647278626 11.980217676217354 20.1621641128349 280.3810349610072 0.8352885171228299
2.06397652079022 11.913379600194533 18.839872457940285 296.893477962422 0.8622224109631583
2.0661498497399053 11.844509998068974 17.63652350074013 314.61181039906717 0.8907549358454163
2.067161831931359 11.773667894211934 16.5401206109064 333.645745716928 0.921013487064001
