M[M_sun], R[km], Lambda[1], P_c[MeV/fm^3], rho_c[fm^-3]
0.24162668629717493 15.618656898711224 2160425.4255784233 3.5677272577965504 0.1711233750220791
0.25364344159405955 15.277286772599599 1723346.1122631507 3.784808153371195 0.17388803030159442
0.26603810297129804 14.981323877028707 1383195.6860628962 4.011377410593192 0.17666637020337594
0.2788125725634664 14.723615404026466 1116449.91844856 4.247691477627331 0.1794570881249378
0.2919663802131639 14.498480938362627 905906.4966623058 4.494375334749646 0.1822667465970819
0.3055008955666069 14.301290923616493 738668.3074351344 4.75158327448051 0.1850910261858885
0.3194164644879136 14.128203185733025 605114.3643987986 5.019999743535238 0.1879365931874331
0.33371361062107596 13.976059383988085 497748.2012921065 5.299845796050197 0.19080001197102775
0.34839366914900427 13.842085409571427 411034.52011455875 5.591853519473878 0.19368764951722336
0.3634558241116949 13.72404128587887 340689.39388743567 5.896185805026234 0.1965944878383043
0.3789076998381143 13.62005932144467 283349.2711479938 6.21370852575766 0.19952824547674236
0.39473841691343103 13.528526288779094 236433.57876495906 6.544682028927163 0.20248515305489387
0.4109626065490477 13.447946189209782 197891.47285070125 6.889802842093247 0.20546882271468658
0.4275688028247276 13.377116482777543 166105.11607464866 7.2497786009742935 0.20848237512312012
0.44456240922679835 13.314975730211097 139824.06031150933 7.624872544801643 0.21152142546082323
0.46194275255406253 13.26061501752443 117995.95386362342 8.016025117666276 0.21459200373973314
0.47970639109812657 13.213195063112384 99828.00069588478 8.423945123994633 0.2176958203120088
0.4978616656990886 13.172029743472638 84656.5902595143 8.849079289392282 0.2208304283376214
0.5163990729126485 13.136428947376025 71949.735976009 9.29228915240772 0.22399907005171313
0.5353151153125973 13.10588297676537 61285.38862611551 9.754464845330709 0.2272047444828158
0.5546212630089038 13.079848671985484 52311.9627106605 10.236415752295821 0.23044880223986478
0.5743012924432236 13.057880738006947 44738.062225147296 10.738621088454542 0.23372804326986857
0.5943569486952696 13.039540999053452 38336.50647931979 11.262309397957505 0.23704845370308938
0.6147910776873571 13.024530405549525 32908.09948306016 11.808425656525833 0.24041174627868142
0.6355913773984935 13.012464735169884 28300.45624326708 12.377948610604669 0.24381955348250137
0.6567624916932092 13.0030507331128 24376.879608297524 12.971578366201008 0.2472699523362365
0.678292882427641 12.995981656550697 21032.579131589184 13.590619374434036 0.25076747973024704
0.7001790013564114 12.991070297048694 18040.697645212033 14.236279583883736 0.25431489301269466
0.7224103971050322 12.988012106096921 15733.287438113572 14.909748344585651 0.2579141761585766
0.7449970878985447 12.986641306038921 13637.622367328722 15.612068920544903 0.26156536373316175
0.7679144358824768 12.986750434199521 11838.668213999863 16.344480065944126 0.2652700786838826
0.7911580618317161 12.988128712116069 10291.857101477399 17.10861042290524 0.2690331435217832
0.8147301061418363 12.990650950210346 8958.733796115022 17.905914591421077 0.27285698994736285
0.8386100001231898 12.994129440255259 7809.657125175771 18.737772577184334 0.2767428327442676
0.8627883925231443 12.998396712983787 6816.547260438604 19.60549900948002 0.2806908885063434
0.8872622162290611 13.003330786741758 5956.6983713474465 20.511193302174693 0.28470764537433446
0.9120213792610443 13.008838997382957 5212.859668873933 21.456648982621477 0.28879611550340956
0.9370386363703778 13.014724194260397 4566.550219548775 22.443368733264872 0.29295637216827125
0.9623145740951129 13.020926115312866 4005.5769947495046 23.47334009685826 0.29719191405793277
0.9878379701099937 13.02731423328123 3517.6692589641825 24.54900262992221 0.30150898666975057
1.0135783629797501 13.033777801584218 3093.179023812117 25.672320278578376 0.30590938512772253
1.039539722255733 13.04023010864158 2722.339340543492 26.845209924831078 0.3103940439506409
1.0656892177186024 13.046550690581823 2399.0819952176935 28.070788453060594 0.31497185507736286
1.0920181656472308 13.052683318222243 2116.438418550897 29.351135312346074 0.31964343549906404
1.1185145176771758 13.058519409586713 1869.2053748778646 30.688955775784375 0.3244131280717301
1.14514342792262 13.06398140926816 1652.5309692404678 32.087700962398664 0.32928933970978125
1.1719045630180958 13.068990639153466 1462.6594914953405 33.549254316142935 0.33426939650702103
1.1987586298176613 13.07345107890864 1295.8722742856928 35.07818409524433 0.33936704355997904
1.225702534992287 13.077321263873907 1149.4949001538403 36.67654599343317 0.3445792436937969
1.2526957646929628 13.08049069729421 1020.4987278297277 38.349334100352 0.34992008469258773
1.2797352313067394 13.08293443453022 907.0073287882731 40.09882864601436 0.35538639606672157
1.3067784821198019 13.084520103269437 807.0694432607745 41.930494491454056 0.36099270179407833
1.3338111968197512 13.085237932307985 718.8148683045208 43.84775731415109 0.3667406168111951
1.3608202584055569 13.085033445185656 640.8679952474316 45.8553935190785 0.3726383897322003
1.3877497459458394 13.083778888462058 572.0235007468127 47.95868976896857 0.37869572644576505
1.4146053404305212 13.08149720315113 511.0213476400751 50.16234635243831 0.38491799897944307
1.4413271364127092 13.078046701418309 457.04455332885374 52.471685787362496 0.39131271935383727
1.467920227934392 13.07345365594742 409.1858171133891 54.893069277467724 0.39789130250849547
1.4943288309387661 13.067591022559485 366.6758000218081 57.43268314210408 0.4046628035155998
1.5205397070008713 13.060453520133377 328.9657773493278 60.09715149202232 0.41163698704602636
1.546521895655188 13.051973213218988 295.40496951298223 62.89357563690238 0.41882438578767056
1.5722375464358218 13.042099330048378 265.56694251431543 65.82957726541184 0.426236363632002
1.5976611143150374 13.030778562450132 239.01204113761025 68.91334578070351 0.43388518418696437
1.6227486837397374 13.017964088098152 215.3116512566509 72.15369022185538 0.44178408524267077
1.6474994001497467 13.00363488479643 194.17681881251698 75.5600962557318 0.4499473598920761
1.6718478032569992 12.987708120759601 175.3009375695412 79.1425652967429 0.4583895117780416
1.6957868070808904 12.970168327590217 158.42935314546554 82.91114558789496 0.46712322528244515
1.719251615255407 12.95092927264393 143.3410822993547 86.87863386707734 0.4761703228818661
1.7422542644767272 12.930035548116608 129.83045445419592 91.0566859338971 0.4855454749776791
1.7647345826388823 12.907398374608313 117.72799181266116 95.45921419058624 0.49526991577041035
1.7866626201078684 12.882971629713866 106.86611138280364 100.10005369236721 0.5053618457794447
1.8080026213913671 12.856727266281244 97.12378166741824 104.99563312740163 0.5158466079035613
1.8287143752864725 12.828604014366693 88.36800129817753 110.1624825447086 0.5267467236043587
1.8487959223752355 12.798648970785196 80.49929284943426 115.61812396149826 0.538085193653891
1.8681841670125399 12.766756563860481 73.4137000523207 121.38294500991438 0.5498920412874855
1.8868571492281334 12.73291751909944 67.03624120073277 127.47825900992791 0.5621966914986065
1.9047821443692325 12.697114900270462 61.28180753230768 133.92659624921268 0.57502879230674
1.9219276190765995 12.659314031236983 56.0983933287633 140.75340522090627 0.5884238461877199
1.9382436498085798 12.619437739699242 51.41285007782405 147.98645590216339 0.6024204924721819
1.9537553630347302 12.577646234280364 47.181973992810235 155.6543598156482 0.6170549245808576
1.9683653538318455 12.533697389117888 43.35662409282207 163.7906117986555 0.6323742642076852
1.9820854924846816 12.487713148123953 39.895761910477546 172.42882606548613 0.64841959224974
1.9948799933504975 12.439653887837933 36.76108358625416 181.60852794125168 0.6652449307565379
2.006713340105166 12.389495853468603 33.91599864528659 191.37155726015425 0.6829042136548391
2.0175736468325898 12.337252883016411 31.34115020984034 201.7639114695191 0.7014566263675458
2.0274152819660736 12.282884426133469 29.004342603702575 212.83564685735604 0.7209652751449153
2.036230866244039 12.226435603525854 26.880179927929742 224.64191206801087 0.7414994713993119
2.0439822645811505 12.167859857168148 24.952184286495424 237.24411948769693 0.7631372637966318
2.05064823220222 12.107174598734701 23.197263623812063 250.7088595170305 0.7859604610435612
2.0562224625417036 12.04442419631936 21.60196369122618 265.10924202371496 0.8100573824209361
2.060683313769632 11.979614745644549 20.149867322330632 280.5271647003135 0.835528376599444
2.0640013977651743 11.912751968977899 18.82937242545617 297.05190008956583 0.8624790831953847
2.066164721468708 11.843856321921873 17.625623876882724 314.78390280294724 0.8910304219360575
2.0671658774762256 11.772983572248657 16.529174226534973 333.83264300567623 0.9213086764023287
