M[M_sun], R[km], Lambda[1], P_c[MeV/fm^3], rho_c[fm^-3]
0.24162668629717493 15.618656898711224 2160425.4255784233 3.5677272577965504 0.1711233750220791
0.253644810618725 15.277246476941793 1723268.1445189593 3.784836919021469 0.1738883888515481
0.2660417811475752 14.981217940858713 1382933.1100795213 4.011437881864515 0.1766671009630022
0.27881733375885753 14.723490750769749 1116457.6942175385 4.2477857004942425 0.17945818096820315
0.29197337620368385 14.498375033625209 905834.7586575773 4.494505781833708 0.1822681991556381
0.305509926212599 14.301151178099474 738620.8652660506 4.751754375226413 0.18509287440049493
0.319428286716215 14.128040563835679 605033.7505943922 5.020212758459626 0.18793880329948984
0.3337246391988319 13.975919063466526 497636.9620679068 5.3001063334351395 0.19080263515018442
0.3484092105889355 13.841954277796038 410955.6201878032 5.592162229965153 0.19369063637614978
0.36347341445882053 13.723909041846932 340623.353235678 5.896549624442864 0.19659790490725768
0.37892804190245966 13.619933699185387 283262.32772486826 6.2141318570275885 0.19953210574820007
0.39476184318049196 13.528375804310956 236376.42053195083 6.54516443267185 0.20248938308403924
0.41098808107541046 13.447830963404632 197841.0873730827 6.8903536313464935 0.20547351346709697
0.4275971884234929 13.377007213069692 166048.83594996642 7.250402944499031 0.20848754015709475
0.4445935953954297 13.314878196500203 139781.90635470455 7.625568717113646 0.2115269674400641
0.4619774006979588 13.260516744748262 117965.08354320386 8.016805262001068 0.21459803878688236
0.47974365329340335 13.213117855857956 99796.97107165305 8.424815324060338 0.21770236299998552
0.4979011626776699 13.171949975444214 84625.17870868645 8.85003633673927 0.22083735776932847
0.51644112234194 13.1363749934222 71923.28462418179 9.29334853546633 0.22400652817449057
0.5353629226521387 13.105804749606397 61262.4287582913 9.755633747300754 0.2272127474044386
0.5546706587441931 13.079775321695642 52293.03091471049 10.237701754508072 0.23045736627512725
0.574355851134221 13.05781042123627 44720.44436847243 10.740018679850786 0.2337370162395521
0.5944141928832172 13.039501948113745 37987.448526337925 11.26383955851967 0.23705801417397204
0.6148537624954217 13.024476473158652 32894.29864964231 11.810097426101411 0.24042191342698688
0.6356595744151232 13.012415730100779 28284.104412682103 12.379771593030926 0.24383034749671792
0.6568320481068799 13.003008934873792 24364.94487035264 12.973544190028417 0.24728118817910996
0.678365448752649 12.995968161945589 21022.649986129414 13.592755955627831 0.2507793756419097
0.7002561688451983 12.991044716716393 18167.182537429875 14.238598378947852 0.25432747258908633
0.7224930450791461 12.987998948823469 15724.595335116192 14.912261546147022 0.25792746440259007
0.745083227680907 12.986650089468805 13630.375679646857 15.614764982746049 0.2615791442147653
0.7680054453731722 12.986763691663741 11832.757230524818 16.347395500224675 0.265284611392555
0.791253247196459 12.988144504642694 10287.253576389734 17.111759861884245 0.26904845817704853
0.8148306922101429 12.990667307925612 8953.730896873203 17.90931363786939 0.2728731181797166
0.8387135411304644 12.994143398792046 7805.309006282658 18.74140615474822 0.27675952715311014
0.8628967636117935 12.998406682304251 6812.031472956034 19.609414364992382 0.28070845423724183
0.8873799534270611 13.003361451896366 5953.419458067173 20.51540928099586 0.28472612044722667
0.9121382266427637 13.008854926987556 5209.502676423618 21.461185720633114 0.2888155405017951
0.9371596188791043 13.014752666277673 4563.762624995603 22.448207331709778 0.2929764689515312
0.9624456013971265 13.020966526552211 4003.2033528860566 23.47854127866496 0.2972130376026715
0.9879678939798888 13.027353988333479 3515.342762720952 24.554590877651286 0.3015311861251124
1.013710997458981 13.033810992629629 3090.7781402619626 25.678273960407303 0.30593236153251474
1.0396782915598588 13.040272547213247 2720.443130000708 26.851601828103306 0.31041819141021626
1.0658317081193134 13.046588512028082 2397.347512885655 28.07764849934263 0.31499723337153684
1.092166446677781 13.052722201446654 2114.9229350422243 29.358439187843228 0.3196697249662514
1.1186667019540002 13.058551823730763 1867.7072539425749 30.69679068421117 0.324440766218895
1.1452999980520302 13.06400728981742 1651.49648470291 32.09604133161052 0.3293179963968999
1.1720641609808846 13.069019756145815 1461.4716528378697 33.5581979808467 0.3342995375792031
1.1989227559870876 13.073474615987452 1294.9202240922268 35.0877732692587 0.3393987523588136
1.225870730980136 13.077340172545206 1148.6007904880134 36.686752848988434 0.3446121694298309
1.2528686167339826 13.08050195720466 1019.760166713196 38.36022675991505 0.349954457186106
1.2799130529955098 13.082940737394166 906.3720964625643 40.11047721842534 0.3554224328582245
1.3069577662697196 13.084525645408666 806.4602599171888 41.942897812099126 0.3610301989114832
1.3339970186896122 13.085242253440322 718.306332104471 43.86105444941064 0.36678014277395843
1.3610059316357006 13.085030575507044 640.3645358047738 45.86955660623644 0.37267957406574564
1.3879389449482702 13.083765826823663 571.5746808437258 47.973779304669705 0.3787386761353786
1.4147893056220318 13.081458212830034 510.61330825789884 50.17852780387364 0.3849633411895977
1.4415208833105932 13.078017118252141 456.6851738408455 52.488933466158784 0.39136007501766507
1.4681169942996455 13.073413789738245 408.84028991552645 54.91145955695979 0.39794080583346847
1.4945271835312754 13.067544716613225 366.37832544722613 57.45229858209171 0.40471459908432433
1.5207397274516372 13.060392764593153 328.7118651993403 60.11808139267435 0.411691230668289
1.5467259643442584 13.051898459598874 295.16930774757367 62.91591664793083 0.41888124543692706
1.5724404326108046 13.042014786407417 265.3483933509408 65.85343405667233 0.4262960204753723
1.5978532795574099 13.030676554839593 238.80696996978014 68.93883178112526 0.43394783371885715
1.6229514976491155 13.017853457567758 215.14027414009382 72.18092843445389 0.44184993853337245
1.6477047371722486 13.00350582509602 194.00577926339398 75.5892201574183 0.45001664496400084
1.6720531795374431 12.98756708968797 175.1501333879016 79.17356775229166 0.4584618401521457
1.6959903785318162 12.970006280094065 158.29222441645408 82.94432908523987 0.4671994808626977
1.7194701881391292 12.950789781515763 143.21580157692702 86.91416923179754 0.4762507929992253
1.7424508219301982 12.929838032045241 129.72835343586 91.09458795710647 0.48562979302808673
1.7630512910318155 12.90768927620272 118.4633761322061 95.66752039934805 0.7981247758686743
1.76973515054162 12.879511593569196 113.21181905773287 101.69814422166152 1.3957025107021483
