M[M_sun], R[km], Lambda[1], P_c[MeV/fm^3], rho_c[fm^-3]
0.24162668629717493 15.618656898711224 2160425.4255784233 3.5677272577965504 0.1711233750220791
0.25366230617180674 15.276825260109137 1748754.401898484 3.784749590921407 0.17388730034890926
0.2660312608991565 14.981478421632714 1383258.085337553 4.011254302379395 0.17666488251326573
0.2788024620916547 14.72376236212829 1116666.5700421 4.247499660501726 0.17945486333534302
0.2919529663210555 14.498645961411755 906112.7663346784 4.494109777141651 0.18226378955148417
0.30548495201935727 14.301453150018808 738860.6290901917 4.751234961636223 0.18508726374240514
0.3193944933938855 14.128442505335153 605273.0803524782 5.019566111655554 0.18793209408931486
0.33368666011882964 13.97629344141111 497898.001172663 5.299315431356506 0.19079467207859646
0.3483628577941312 13.842340004311115 411203.60929486266 5.591225099794661 0.19368156938395464
0.3634179309095458 13.72433734781584 340839.0821747207 5.895445215105654 0.19658753206104465
0.3788651463076094 13.620366683826205 283470.2829439477 6.212846806383756 0.19952038763363003
0.3946916219033845 13.528760813144384 236554.64023123198 6.5437000767928675 0.20247654266122847
0.4109103235065032 13.448164145758208 197995.2264763693 6.888681704756494 0.20545927463865976
0.42751133225481674 13.377335405501073 166216.0074503994 7.248507761437625 0.20847186179332153
0.44449954113918067 13.315186715894585 139916.99404213243 7.623455517381154 0.2115101450114105
0.46187357076801866 13.260808531089035 118078.09687127183 8.0144371914556 0.21457971984671037
0.47963089472981457 13.213377041016942 99905.82523372775 8.422173920955437 0.21768250334125047
0.49777962050611113 13.172192830902715 84719.49080957829 8.847131341739697 0.2208163243643227
0.5163096629503455 13.136591691550802 72011.98745836584 9.290132943470768 0.22398389020637302
0.5352184672957143 13.106027615113476 61336.30619786585 9.752085760719524 0.22718845601024476
0.5545170231474215 13.079985921691003 52356.52352292759 10.233798289823106 0.23043137096087193
0.5741887946566059 13.057970543606746 44777.88222028153 10.735776621743113 0.23370978091247568
0.5942406139529923 13.03965892218047 38370.68379206981 11.259195160737052 0.23702899589257984
0.6146663873233265 13.024616074847762 32939.60715965636 11.80502325816687 0.2403910540198826
0.6354582382273773 13.012530284689978 28327.401890109206 12.374238513422524 0.24379758572178564
0.656621207915586 13.003087865572308 24402.215138834414 12.967577607100175 0.2472470856378046
0.6781431995093844 12.996028980888541 21054.10810672118 13.586271156567792 0.2507432700181251
0.7000213198819717 12.991096261004758 18195.758954099558 14.231560601625196 0.2542892923036321
0.722244625813894 12.988027623707918 15749.562596752985 14.904633795244829 0.2578871336082677
0.7448215676547258 12.986662525695305 13652.558491209817 15.606582298342282 0.2615373197598823
0.7677316691492474 12.986745737359529 11851.578501801103 16.338547091488632 0.2652405042942634
0.7909651418609975 12.988122497967133 10303.506225028346 17.102201331343057 0.26900197827981676
0.8145293449666365 12.990626443391937 8969.85990486168 17.89899764500447 0.2728241695312014
0.8383991686894652 12.99409653093815 7818.111932333593 18.730378450765173 0.2767088605591953
0.8625705642952636 12.998352031839941 6824.746156897906 19.59753159075951 0.28065514372333245
0.8870355967947927 13.003283595073702 5964.779268016759 20.502614259424274 0.2846700506788005
0.9117829278106504 13.008777868406236 5219.130514862144 21.447417359889826 0.2887565883682305
0.9367919143751002 13.01466315538564 4572.485825790591 22.433522978581088 0.2929154785086374
0.9620568592083246 13.02085634979735 4010.7938468405464 23.462756693757974 0.29714893171330703
0.9875729268546156 13.027260145983826 3522.3789405784573 24.537631783855726 0.3014638156963225
1.0133096944350903 13.033720191514156 3097.309334620644 25.66020599447862 0.30586263377230216
1.0392542625946946 13.040163954705374 2726.0343538859097 26.832204154938754 0.3103449104939308
1.0653998155300914 13.046500207769462 2402.33647896717 28.056830343682805 0.31492021796132325
1.0917171712199196 13.052620674191557 2119.405912710372 29.33627432061134 0.31958994505351446
1.1182049238089515 13.058459571868115 1871.9144937025414 30.673014542361212 0.32435689433786374
1.1448253123734067 13.063913522915254 1654.9225509980233 32.070682048802645 0.32923071440570234
1.1715789965463501 13.068931739678373 1464.744152823633 33.531057654931516 0.3342080718825843
1.1984282578988112 13.073415500250784 1297.79739045796 35.058674388117794 0.33930253024760515
1.225360090066748 13.0772721449776 1151.2133568814272 36.655779838448886 0.3445122552923493
1.252346054348184 13.080446067609532 1022.1082235546434 38.32707266958981 0.34984956536012396
1.2793780372307555 13.082898730514149 908.4673353353235 40.075129951437816 0.355313080222924
1.306414025965917 13.084501919998933 808.3289669596961 41.905260612719005 0.36091641595574636
1.3334403658275165 13.085227035163197 719.9760561706332 43.820705459986165 0.3666602047104282
1.360440679096097 13.085044440729796 641.9470709136671 45.82658035160112 0.372554604955149
1.3873651563475382 13.083807138028929 572.937240723464 47.927992271723966 0.37860835145923916
1.414213357964852 13.081536054414363 511.84047019168366 50.129428071257465 0.3848257583279048
1.4409387824324236 13.078122653014905 457.79140588968033 52.436598958598 0.3912163840679486
1.4675195923768172 13.073534156947519 409.852051830512 54.855658610619834 0.39779059972150266
1.4939244880014957 13.067691961023355 367.2888640332671 57.39278077138525 0.4045574392726288
1.520131714871138 13.060576508891502 329.52015345221236 60.05457585080132 0.411526644572912
1.5461109480523911 13.052118687455362 295.9113195916821 62.848130219872225 0.41870872358825795
1.5718250319089146 13.04226967157839 266.0279288609016 65.78104926598391 0.4261150133955292
1.597241000796885 13.030967282357901 239.4205338906852 68.86150458960752 0.433757748484964
1.6223329028877211 13.018193529095129 215.70304111852369 72.09828577120247 0.4416501349923811
1.6470841295213479 13.003888642211038 194.5177865755192 75.50085719084511 0.4498064315605767
1.6714377727838712 12.98799685990939 175.61255958784315 79.07942044400612 0.45824203761315285
1.6953730351966954 12.970491206692603 158.71905922471703 82.84365135120137 0.46696812372309837
1.71883698143923 12.95128532962508 143.60122414876258 86.80635732975756 0.47600665208556975
1.7418533955303026 12.930449982554267 130.06806746230023 90.97959700439084 0.4853739804849426
1.7643333921087694 12.907839994550315 117.94187712737616 95.37657065836791 0.4950885774073193
1.7862620752811045 12.88344439168394 107.06192232551645 100.01178361015353 0.5051713627715166
1.8076058601671519 12.857231849969638 97.29789327560022 104.90127900804806 0.51564624673334
1.8283354052224745 12.829184448432775 88.52982073019275 110.06115434789504 0.5265342351989452
1.848414201545502 12.79924505450284 80.64083244331715 115.50964695484844 0.5378611175906896
1.8678121686545794 12.767400341431875 73.54810977357441 121.26673086022916 0.549655471866461
1.8864931867339505 12.733612394566748 67.15440844344982 127.35365561427896 0.5619466134777671
1.9044288769111184 12.697852881037543 61.390919120935685 133.79334777169592 0.5747657184388368
1.9215676104522141 12.660043008543278 56.20111480734254 140.61028926462365 0.5881450018806338
1.9379219862044303 12.620309910192708 51.50854294472232 147.83261593604408 0.6021245736433358
1.9534257453252613 12.578491631472914 47.27084181597734 155.48936143077202 0.6167422361249462
1.9680656957088671 12.53465017938644 43.43798084276028 163.61297435318565 0.6320417055955627
1.981802792210281 12.488723441023579 39.967572487651765 172.23788216344744 0.6480670352119998
1.9946104618379088 12.44071640794166 36.82552060830247 181.40310440840764 0.6648707489431039
2.0064664478312464 12.390619786255275 33.978201877139384 191.1503209413356 0.6825064944711682
2.0173494443997364 12.338457045657886 31.398020245920417 201.52539179241413 0.7010332774687106
2.0272051249711898 12.284131708020734 29.055386376182863 212.57882086547687 0.7205159734375337
2.0360297987430758 12.227710742214905 26.926710848366984 224.36440428628848 0.7410197925920815
2.043815953957318 12.169236701734004 24.994315903871293 236.944578741239 0.7626265193076395
2.0505064189996243 12.1086151687426 23.236939674197334 250.38447338225942 0.7854136193442227
2.0561044809130915 12.045924999291502 21.63788410666303 264.75824504608494 0.8094733030576651
2.0605898211561144 11.981181549322148 20.182703753249402 280.1470465145748 0.834904037537167
2.063935807430624 11.914387956345157 18.859242197291984 296.64008342947335 0.8618118664162666
2.0661257598122407 11.845557516791564 17.65315881581308 314.33655612165813 0.890314307885634
2.067154666417026 11.774756614182012 16.55536180286026 333.34681779493974 0.9205413542894145
