M[M_sun], R[km], Lambda[1], P_c[MeV/fm^3], rho_c[fm^-3]
0.24162668629717493 15.618656898711224 2160425.4255784233 3.5677272577965504 0.1711233750220791
0.25364337237473217 15.277312009104058 1723222.036446832 3.78480830522954 0.17388803219443544
0.266038018171282 14.981303696511457 1382983.5080361434 4.011377729828736 0.1766663740611491
0.2788122439862997 14.723603331727153 1116441.35979741 4.247691975039272 0.17945709389416672
0.2919664459364117 14.49849682665515 905983.146826678 4.4943760233893535 0.18226675426524486
0.3055009433759018 14.301290283889893 738667.9071273986 4.75158417772927 0.18509103594269896
0.3194170178392555 14.128191388475878 605136.6333158705 5.020000868045433 0.1879366048546604
0.3337145087912384 13.97600778202033 497716.0098325089 5.299847171425583 0.19080002581877573
0.34839354442396087 13.842044631819524 411015.89159568894 5.591855149147232 0.19368766528476136
0.36345581266974075 13.724040156858013 340688.01844907965 5.8961877256085735 0.19659450587682006
0.37890819526063274 13.620050566788347 283339.25737765385 6.213710760488921 0.19952826585480066
0.39473845345515 13.528511771323894 236425.83436999135 6.544684575485944 0.20248517538477417
0.410961602700927 13.447937700728607 197885.00340355188 6.889805749638154 0.2054688474765591
0.42756978197108303 13.377101584795223 166103.36403685 7.249781896787127 0.20848240238853505
0.44456275122937033 13.314979045504899 139822.10012348794 7.624876219771979 0.2115214547159501
0.4619437443671356 13.26060872284926 117990.03432943771 8.01602923589096 0.2145920355975305
0.4797061586301795 13.21320395181028 99828.140884949 8.423949717584136 0.21769585484938014
0.49786183513689314 13.172029417683826 84654.21527224881 8.849084341408442 0.22083046491637698
0.516399021719224 13.136438516159801 71949.82036854749 9.292294744603318 0.22399910942111878
0.5353155497919291 13.105878160358408 61287.154096749924 9.754471015618876 0.22720478672787472
0.5546211617071364 13.079851314121349 52310.651523140106 10.236422540893344 0.23044884744927605
0.5743016312663305 13.057892296032866 44738.87147484846 10.738628465864508 0.23372809063512578
0.5943551311887944 13.03955637229762 38336.163303568515 11.262317475118762 0.2370485041693391
0.6147914998414511 13.024523726275476 32908.80301261553 11.808434481149996 0.2404117999471199
0.6355922629153788 13.012455783387155 28300.758380044073 12.377958233379799 0.24381961045966694
0.6567628435095592 13.00304079213038 24376.003330100757 12.971588742938074 0.24727001164541038
0.6782932743417943 12.995994282836559 21032.84932492192 13.590630652475369 0.25076754252335964
0.7001793209747049 12.991055414837225 18040.662577189025 14.236291823694659 0.2543149594142663
0.7224109720904905 12.987996021727476 15733.92445965919 14.909761610516222 0.25791424630055215
0.7449975673229774 12.986641151244038 13637.554901335307 15.612083151652417 0.2615654364731435
0.7679145151440951 12.986757495656809 11838.40154969192 16.34449545493374 0.2652701553941361
0.7911585635027548 12.988128781101139 10291.826739328355 17.108627047003647 0.26903322435914434
0.8147308541664913 12.990663651244446 8958.697062186318 17.905932532974635 0.27285707507875157
0.8386111219413677 12.994122843175989 7809.77458892746 18.73779175661823 0.2767429208638426
0.862788969357269 12.99839659876424 6816.384604126126 19.605519676153868 0.2806909812246751
0.8872609451459655 13.003337128300856 5956.546827647559 20.51121555554674 0.28470774289206124
0.9120220702755353 13.00883325549755 5212.659892054316 21.456672928960185 0.28879621803469735
0.937039307633421 13.014726496842723 4566.564391869416 22.44339427282374 0.2929564782450587
0.9623156502023621 13.020932063794202 4005.5370975341366 23.473367550112762 0.29719202555375646
0.98783945790047 13.027324448164256 3517.696218763158 24.549032126078675 0.3015091038439777
1.013579872957471 13.033772453275798 3093.1829116256704 25.67235170346808 0.305909506402424
1.039540504647683 13.040231922411872 2722.2602122747753 26.845243662594076 0.31039417140583436
1.0656907237483424 13.04655617762809 2399.126749806476 28.070824661604696 0.31497198902851214
1.0920179498996883 13.052686630991625 2116.3419335709145 29.351173863350756 0.31964357425901047
1.118515315855651 13.058519590368558 1869.2122452518433 30.68899712946361 0.32441327394951325
1.1451443854452508 13.063981697659171 1652.5411098068962 32.087744983792895 0.3292894909629559
1.1719058636469768 13.068999310428529 1462.6283308165184 33.549301521563734 0.3342695555941562
1.198758762215328 13.073449809906979 1295.8760229123168 35.07823470746407 0.3393672109208687
1.2257030063035808 13.07731834047493 1149.4731274169822 36.67659986559137 0.34457941747704
1.2526965807776986 13.080489922372065 1020.5315040882966 38.349391852206814 0.3499202676378033
1.2797360693056894 13.082934893349336 907.0062758111922 40.098890127031645 0.35538658626844954
1.30677863006482 13.084518366124536 807.0322125407279 41.930559955742275 0.3609928997025394
1.3338126787203841 13.0852346574455 718.8175946108197 43.84782749558578 0.36674082542671416
1.3608220955991932 13.085038533590406 640.8651091870001 45.855468270620776 0.372638607099531
1.387751115364297 13.083779509332595 572.0209203016082 47.958769409866136 0.37869595312946813
1.414606311593143 13.081495413464967 511.01167645324523 50.162431755868184 0.38491823828926525
1.4413281219963525 13.078046291876554 457.04362041108243 52.47177681776381 0.3913129692892131
1.4679213303195275 13.073454169466514 409.1682826890944 54.893166337862255 0.3978915637776216
1.494329050056749 13.067592344708949 366.6713287942995 57.432786668156524 0.4046630768814161
1.520540977144105 13.0604541251639 328.9641502442115 60.09726195496266 0.4116372733307111
1.546522960701371 13.051972835314373 295.40367848823865 62.89369354673958 0.4188246858775804
1.5722392284856945 13.042099525400648 265.5698923347187 65.82970317447176 0.42623667848310604
1.5976623337020408 13.030777381319217 239.01577725323665 68.9134802875275 0.43388551483082455
1.6227494308767296 13.01796380910962 215.31101156073368 72.15383397550039 0.44178443279303004
1.6475003642675121 13.003633778331844 194.1757014699777 75.56024996051683 0.44994772555211715
1.6718502880715478 12.98770630278166 175.3029167651864 79.14272891503381 0.45838989349764236
1.6957878511898912 12.970167365193085 158.42680914010228 82.911320715805 0.46712362772587235
1.719252809580917 12.95092884658598 143.3434552585667 86.8788214059808 0.47617074756521155
1.742255782688675 12.930034698812609 129.8315032600865 91.05688596186079 0.48554591996627067
1.764735754224755 12.907396935504744 117.72707466735653 95.45942863424418 0.49527038630767883
1.7866637631179874 12.882970611187766 106.86400774932774 100.1002827384324 0.5053623400509165
1.8080028840471125 12.856726497078247 97.12208699827971 104.99587796341716 0.5158471278133535
1.8287154701211727 12.828603714056193 88.36698371285128 110.1627444659864 0.5267472712120774
1.8487968422953192 12.798647600098148 80.49754321018392 115.61840545196318 0.5380857751160566
1.86818557260336 12.766754419493921 73.41151049923904 121.38324658166054 0.5498926551770469
1.8868581122244803 12.732915862244637 67.03625280554876 127.47858235582191 0.5621973404512358
1.9047830617113066 12.697112672304225 61.28159283524018 133.92694203330143 0.5750294749918962
1.9219284633710747 12.65931141391617 56.09662844469718 140.75377661674537 0.5884245698080492
1.9382447933661384 12.619436396930146 51.41240224581542 147.9868551334612 0.6024212604134462
1.9537561801697756 12.577643919297918 47.18175342685734 155.6547880100908 0.6170557360521892
1.9683660544630674 12.533695479583443 43.3565166983329 163.79107155064435 0.6323751230282211
1.9820864708727726 12.487710209371587 39.89676149315312 172.42932160738107 0.6484205072136675
1.9948815124194696 12.439650193781777 36.76150274847038 181.60906106916403 0.6652459018564225
2.00671487214644 12.389493420689233 33.918246322363466 191.37213143551034 0.6829052458567629
2.017574456198339 12.337249727795268 31.340808121744264 201.7645305106351 0.7014577251044634
2.0274157947784586 12.282881239887393 29.003403123725363 212.83631342014533 0.720966441256636
2.0362313663159446 12.226432556747776 26.88003080877634 224.6426323208305 0.7415007163734574
2.043982724918778 12.16785682437031 24.951360834201 237.24489693885437 0.7631385894222732
2.050649299859476 12.107170901474108 23.196916390173282 250.70970146988924 0.7859618803857669
2.0562227992998605 12.044419658359613 21.602081705170637 265.1101530625617 0.8100588984425073
2.0606830885432226 11.979611232563673 20.149414723156188 280.52814997513406 0.8355299926794705
2.06400256373931 11.912746934945995 18.828954366081835 297.05296903111724 0.8624808150722321
2.06616454414087 11.843851759844469 17.624605622343704 314.7850639930181 0.8910322807729725
2.06716625060302 11.77297879168643 16.529744752661703 333.83390410140976 0.9213106682023042
