M[M_sun], R[km], Lambda[1], P_c[MeV/fm^3], rho_c[fm^-3]
0.24162668629717493 15.618656898711224 2160425.4255784233 3.5677272577965504 0.1711233750220791
0.2536447861671133 15.27725103381339 1723190.7809576748 3.7848347616397366 0.17388836196082555
0.2660408707573975 14.98123985552075 1383124.2164460076 4.01143334658492 0.17666704615682483
0.27881769953788016 14.723451555779585 1116337.6853488998 4.247778633847645 0.17945809900575183
0.29197284180655686 14.498368473167698 888650.8852704425 4.49449599835119 0.18226809021428964
0.30550900998412794 14.301174061289647 738582.6845713869 4.751741542673383 0.1850927357844309
0.3194267976953961 14.128076450519615 605056.4599497904 5.020196782271995 0.18793863754037693
0.3337271977307353 13.975857539053814 497635.3477150099 5.300086792957054 0.1908024384099936
0.34840806593110013 13.841968014503074 410969.7928339277 5.592139076371677 0.19369041235876358
0.3634731927385344 13.723894951179457 340631.4528197521 5.89652233750149 0.19659764862252976
0.3789263419023687 13.61994656358764 283270.06430823973 6.214100106474946 0.19953181622139013
0.39475889840583667 13.5284069558736 236378.83794951212 6.545128251436151 0.20248906582348064
0.41098619081872234 13.44781483453158 197836.17807726143 6.890312320879982 0.2054731616498289
0.42759535697199524 13.377005175294409 166055.09836412448 7.250356117086802 0.2084871527659142
0.4445911657953418 13.314907983324035 139782.24253950064 7.625516502147692 0.21152655177536098
0.46197477910437756 13.260521568090228 117963.16196162853 8.016746748634569 0.21459758613868646
0.4797399978896361 13.213120141316478 99789.04437116855 8.424750055940347 0.21770187227496635
0.49789907510536163 13.171950129420086 84629.88347127379 8.849964554491399 0.2208368380351837
0.5164386742114684 13.136369375797285 71927.24818058759 9.293269077308082 0.22400596878410287
0.5353592548031869 13.105833315591989 61263.33795504648 9.755546074395912 0.22721214714932408
0.5546670589154186 13.079798475343123 52294.533016080575 10.237605333638594 0.23045672438755047
0.5743518415528457 13.057813582831677 44720.5671351481 10.739913853389648 0.23373634322120043
0.5944100942494002 13.03950046274187 38321.10295546859 11.263724788217795 0.237057297087049
0.6148482698152894 13.024501671840365 32894.18663711194 11.809972033836223 0.24042115083280216
0.6356551711374746 13.012414544541679 28054.655464746786 12.379634858368586 0.2438295378806361
0.6568268531139617 13.003002652094004 24365.62509978863 12.973396740883688 0.24728034542026306
0.6783595546306767 12.99597301110365 21022.945196887395 13.592595697942382 0.25077848337005276
0.7002505016221314 12.991044430123056 18168.555335587866 14.23842445329784 0.2543265290339466
0.7224858499056048 12.987993004929516 15725.180766974789 14.912073037882879 0.2579264676883388
0.7450758178088701 12.9866392082675 13630.76914691726 15.614562757917874 0.26157811057558467
0.7679989426048985 12.986751530038315 11833.637330635303 16.347176819940543 0.2652835213261855
0.7912446575462154 12.988137707557952 10286.280739988459 17.111523628439297 0.2690473094538011
0.8148220640245382 12.99066935991095 8954.167937134498 17.90905868077432 0.2728719084265308
0.8387047876255654 12.994141416175124 7805.618152656244 18.74113360491288 0.2767582749276378
0.8628889430041765 12.998416079213916 6812.534223389993 19.609120678131042 0.2807071366495136
0.8873716135883908 13.003363806666234 5953.71003395904 20.515093043346184 0.28472473464481235
0.9121289858609378 13.008853517345758 5209.698315032621 21.46084542161092 0.2888140834399282
0.9371512786635251 13.014753894870443 4564.038731463513 22.44784438899672 0.2929749614941294
0.9624361804004994 13.02096149232071 4003.4645594284916 23.478151136938607 0.29721145312119834
0.9879568863719115 13.027347734706487 3515.522651783098 24.55417170021406 0.3015295209321472
1.0137024365614533 13.0338035001523 3090.8426763321318 25.6778273699977 0.30593063805411563
1.0396670304880997 13.040262288558305 2720.611599016696 26.85112236424826 0.31041638008210876
1.0658212653220571 13.046591485260787 2397.445802714785 28.07713391727172 0.3149953297086991
1.0921554442011636 13.052720876404022 2115.049243852243 29.357891311527492 0.3196677529479125
1.118656221943879 13.058549080552414 1867.8318076859882 30.696202971544487 0.3244386930243805
1.1452893414058551 13.064004792199443 1651.574509087273 32.09541570099118 0.329315846791714
1.172052790448647 13.069018251360042 1461.5555303045976 33.557527092528076 0.3342972766163979
1.1989118446491411 13.073475032825119 1295.0154424856541 35.08705395619581 0.33939637378552084
1.2258575753170242 13.07734367319669 1148.6449495970135 36.68598719884108 0.34460969956097565
1.2528553722303986 13.080502563878667 1019.8087090092305 38.35941166497133 0.34995189053026854
1.2798994092229745 13.082944476704052 906.3868789483745 40.10960341270216 0.3554197295952366
1.306943571308966 13.084526464122467 806.5138204960614 41.941967386002396 0.36102738609243384
1.333982376237115 13.085240016120832 718.3708853731614 43.86005696949689 0.3667771777477961
1.3609929525641067 13.085033116596188 640.393354062536 45.86849416286612 0.37267648462474673
1.3879245667612456 13.08376836025712 571.5983864790284 47.97264735904906 0.37873545425274224
1.4147755090317429 13.081462468390638 510.64801921121347 50.177313941580834 0.38495993981368287
1.4415064529995412 13.078019862520023 456.72745142256684 52.48763961447201 0.39135652258569753
1.4681022402041646 13.073417418327782 408.86870476838385 54.91007998581214 0.39793709227604945
1.4945126349932873 13.067548554441132 366.4058305236056 57.45082709722256 0.40471071355355287
1.520724232030108 13.060398839922511 328.7281474082533 60.11651129406348 0.41168716147382034
1.54670903668709 13.051907109438813 295.1821551130447 62.91424068408487 0.41887697997569406
1.5724252483897174 13.042022283489223 265.3676678933516 65.85164437430089 0.4262915451542887
1.5978387262243567 13.03068221345574 238.82258747660654 68.93691986968936 0.43394313386974404
1.6229367786913371 13.017859683432196 215.1587985524342 72.17888506500441 0.44184499831925667
1.6476878639621693 13.003518037062141 194.02092820134183 75.587035315069 0.450011447275829
1.672038117329271 12.987577643828828 175.1664118746661 79.17124197262342 0.4584564141347884
1.6959753725984177 12.970019211579588 158.30471298315675 82.94183967195102 0.4671937601982103
1.7194551818983679 12.950802725669913 143.22499982998585 86.9115033674005 0.4762447561279962
1.7424315387270242 12.929827209893928 129.74060012011637 91.09174453205443 0.48562346745397306
1.7649189326449488 12.907199813196208 117.6333597733002 95.49679962561635 0.49535238660728625
1.7868450272966077 12.882760221722776 106.78180559878241 100.14019869119392 0.5054484769452713
1.8081823988597758 12.85649402548465 97.0483629054789 105.03854586605298 0.5159377331940361
1.828895389753953 12.828362285310511 88.3006733019381 110.20839009308408 0.5268427040762476
1.8489690945321169 12.798376515838575 80.42964040935485 115.66746176698204 0.5381871085348526
1.8683445256359419 12.766430846363184 73.35815031965161 121.4358028407157 0.5499996404607629
1.8870195161164938 12.73260595596189 66.97927235583525 127.534853491207 0.5623101507118164
1.904942280790088 12.696779305375447 61.2335892914396 133.98720407430613 0.575148450972037
1.92208175457435 12.658953582735247 56.05050795871039 140.81850260484 0.5885506806469069
1.9383936083198783 12.619056700955596 51.37121172450286 148.05643268644334 0.6025550962983065
1.953888424411878 12.577203034016005 47.14566082146653 155.7294136872518 0.617197159180545
1.9685011754214718 12.533261908288578 43.324064068337876 163.8711975892228 0.6325247991341794
1.9822141976362342 12.487255393273935 39.863439666943506 172.51568578558326 0.648579969225854
1.9949995018203817 12.439166242997116 36.73066216078388 181.7019764692726 0.6654151485460652
2.0068333478077927 12.388998558277933 33.889651821065556 191.47220144867103 0.6830851429195812
2.0176774420046533 12.336713159175513 31.3158165671953 201.87242074835711 0.7016492196339256
2.0275118541106427 12.28232114858567 28.980921113014634 212.9524868491673 0.7211696797202745
2.0363172716576043 12.225841728860352 26.859943671716238 224.76816425094714 0.7417177013031554
2.044057462396583 12.16723827440302 24.93278252467794 237.38039894100208 0.763369632783361
2.0507134429115017 12.106519748999995 23.179258459543618 250.85622199833583 0.7862085279621285
2.056282999579116 12.043761777443597 21.5866978067096 265.26894077481273 0.8103231304210646
2.060725567504311 11.978902066122785 20.135583432935128 280.6998779024801 0.835811666449643
2.064026108780797 11.911997233298921 18.814871675443737 297.2392812985527 0.8627826743291174
2.0661833131413445 11.843082809445585 17.612904943955485 314.98745672329306 0.8913562717265564
2.0671700103283746 11.772182874160487 16.517660537630114 334.0537122032096 0.9216578375409499
