M[M_sun], R[km], Lambda[1], P_c[MeV/fm^3], rho_c[fm^-3]
0.24162668629717493 15.618656898711224 2160425.4255784233 3.5677272577965504 0.1711233750220791
0.2536415547429029 15.277367982323002 1723341.5337406246 3.7847952482846514 0.17388786944591628
0.2660378013148767 14.981285904530306 1383017.9179959728 4.011350281677743 0.17666604236644315
0.2788110304466116 14.723601003379292 1116504.1875951746 4.2476492072260426 0.17945659785198298
0.2919630973348092 14.498519604886878 906000.5447992175 4.494316813816997 0.18226609495291485
0.30549778333221633 14.301285994864145 738767.2650977975 4.751506516148626 0.18509019704940866
0.3194116614620656 14.1282614480229 605192.0267136439 5.019904182555009 0.18793560170538007
0.33370757283293423 13.976089119721049 497773.2685729113 5.2997289167892685 0.19079883519080798
0.3483869490742534 13.842144003944181 411077.9653379229 5.591715030291051 0.19368630959628244
0.3634475476374119 13.7241047908738 340724.50634082226 5.8960225948429965 0.19659295493372436
0.3788992820753367 13.62009979092938 283347.7578424331 6.2135186197661465 0.19952651376276145
0.3947264020022221 13.528616021749086 236455.62937621592 6.544465624474887 0.20248325548019552
0.41095099740905205 13.447999922945954 197918.64398022348 6.889555761874254 0.20546671847585846
0.4275571582266096 13.377168841175228 166128.7507416677 7.249498526746059 0.2084800581408068
0.44454930351745703 13.315016180777258 139844.70610198512 7.624560250822567 0.2115189393999454
0.4619274442463611 13.260663497350052 118013.43835951641 8.015675157278391 0.21458929651320202
0.4796895652710382 13.213241116382632 99840.50168966559 8.423554768658281 0.21769288538558618
0.49784327241008636 13.172071584531505 84670.86313956336 8.848649978540974 0.22082731994362753
0.5163785430309497 13.136473588725902 71963.11132692268 9.291813939111577 0.2239957245204822
0.5352948785638169 13.10591875457246 61300.26692249072 9.753940508002005 0.22720115459191556
0.5545975392156468 13.079880917101024 52319.34732976546 10.235838873611115 0.23044496045286575
0.5742757056383168 13.057912859209289 44749.013407278515 10.737994175016395 0.23372401829140219
0.5943303549210519 13.039571440430985 38343.1693282289 11.26162302284885 0.23704416521898966
0.6147639131166944 13.024535793156648 32915.16695303925 11.80767576559392 0.24040718569065
0.6355620308046944 13.012459326406727 28306.696881070497 12.377130896794956 0.24381471173835725
0.6567305790806766 13.003046036731087 24381.440516431925 12.970696584543592 0.24726491243387427
0.6782598086695545 12.995992462255881 21037.680209325747 13.589661004797833 0.25076214378487527
0.7001437963148915 12.991074184217226 18181.362283744285 14.235239488455392 0.254309250444234
0.7223737732449392 12.9880096339752 15736.554667433002 14.90862105547133 0.25790821575609435
0.7449574156199469 12.986648897746942 13640.707637934473 15.61085961634769 0.2615591825722688
0.767874923067983 12.986753863902317 11841.41087641512 16.343172372097204 0.26526356015803665
0.7911153276248204 12.988124970116735 10294.203694273605 17.107197777421202 0.2690262743051562
0.8146871678796991 12.99064554366554 8961.363129244524 17.90438999730477 0.27284975585729465
0.8385641502321853 12.99411743322858 7811.156465385887 18.73614279619204 0.27673534474387934
0.8627412248296191 12.998384849882028 6818.362228310301 19.603742853231434 0.28068300974080573
0.8872112626118637 13.003323900028404 5958.736430971734 20.509302319739117 0.2846993587961003
0.9119696771870014 13.008814458639208 5214.176980794992 21.454614144427886 0.2887874029155273
0.9369839993774648 13.014707325650509 4567.7712680853765 22.441198514998266 0.29294735831712665
0.9622550032304626 13.020922868976026 4006.7056685399343 23.4710072676508 0.2971824397453702
0.9877796291435864 13.02730132606656 3518.6026775469354 24.546496211271606 0.3014990298583045
1.0135180460050517 13.033760873794918 3093.996913573653 25.66964997154321 0.3058990798986017
1.0394768570890816 13.040217823665332 2723.1472847017803 26.842343089261004 0.310383213562087
1.065627434665817 13.046553062075757 2399.605827031496 28.067711671816735 0.3149604727256548
1.0919522579588241 13.052671800330792 2106.598448094408 29.347859488866103 0.31963164454590204
1.118446785972444 13.058508661610565 1869.8091419272446 30.68544180631685 0.3244007323167339
1.1450721464751041 13.06396626089604 1653.0726263631202 32.083960314417155 0.3292764872117558
1.17183255926727 13.068981949763225 1463.1173861755547 33.545243119639004 0.3342558783612311
1.1986839512369927 13.073446231250548 1296.276708770571 35.073883421923384 0.3393528223992218
1.2256272984925316 13.077307088393603 1149.805624140768 36.671968321835685 0.34456447683383173
1.2526183787253906 13.0804820148186 1020.8868064250977 38.34442677133355 0.3499045393500508
1.2796570510783558 13.082921513825658 907.3638384866987 40.093604450176095 0.355370234150089
1.3066978057587646 13.084519412139485 807.3187883385708 41.924931837992084 0.36097588504992445
1.3337313464486213 13.085237857625408 719.1162809620306 43.84179384829396 0.3667228903065903
1.360736121560574 13.085038675493923 641.0753198427246 45.849041734299114 0.3726199196048866
1.3876651200983612 13.083786048851808 572.2239048195105 47.95192254005589 0.3786764647277705
1.4145179532756005 13.081504970086682 511.1505775675104 50.155089489421755 0.38489766444954787
1.4412396591343966 13.078060524244735 457.194191774085 52.46395080833426 0.39129148199947195
1.4678327159241125 13.073469826214177 409.3202312160392 54.88482193958137 0.39786910215815674
1.4942391146616696 13.067613432033186 366.80811125865665 57.42388642913156 0.4046395753467896
1.52044980440231 13.060479935087352 329.0868900057351 60.087765366078486 0.41161266120336365
1.5464318863925521 13.05200395298316 295.52185563726835 62.88355676539928 0.41879888696315953
1.572146754315324 13.042136426918603 265.6711571037745 65.81887872048621 0.4262096106034011
1.597569519745755 13.030823680332373 239.10670147356714 68.90191670802118 0.43385708930971145
1.6226571324918928 13.01802017460086 215.40847038176943 72.14147547532231 0.44175455389029655
1.6466116622352498 13.003617874842085 194.82157197793828 75.60212610866401 0.5654329246567718
1.6645651809334718 12.984227352034791 179.62534019566436 79.53985828620418 0.770855234920369
1.677067099387672 12.957015177308769 168.05225263561206 84.00203895286442 0.9688629571815275
1.6851463704925185 12.92175059603737 158.89405702041896 89.00366572932991 1.1599706471128937
1.6896523429309394 12.878682821642895 151.32795072718312 94.56053658313843 1.3449388583880815
1.6911628972935513 12.827995237709583 144.89267470820982 100.69081847089602 1.5244525463490237
