M[M_sun], R[km], Lambda[1], P_c[MeV/fm^3], rho_c[fm^-3]
0.24162668629717493 15.618656898711224 2160425.4255784233 3.5677272577965504 0.1711233750220791
0.25364163715867066 15.277386885880352 1723246.1012681422 3.784796483480278 0.17388788484203388
0.2660375636887787 14.981300758808644 1383035.9427747175 4.011352878285227 0.17666607374491217
0.2788110323539417 14.723609454698547 1116481.741490621 4.24765325307183 0.17945664477769716
0.29196419648039257 14.498516218313652 905982.7394845521 4.49432241504562 0.18226615732389553
0.3054976544776415 14.301322914864851 738748.1388360849 4.751513862922642 0.18509027640858958
0.31941193276774943 14.128254782620502 605180.5942193371 5.0199133289697855 0.18793569660296355
0.33370618013014913 13.976112122689857 497764.9502481388 5.299740103614899 0.19079894782357976
0.34838758603975045 13.842139243255716 411072.3146453816 5.591728285434756 0.19368643784344416
0.3634482654641188 13.72408990065965 340712.6142804203 5.896038216063975 0.1965931016515376
0.37890014926708737 13.620093541770686 283360.49121453223 6.21353679606828 0.19952667950875122
0.39472812487630493 13.528586237267977 236449.05139405458 6.544486336963125 0.20248343710073616
0.41095209864325527 13.447994951310848 197916.4108005198 6.889579410353629 0.2054669198762325
0.42755809571771514 13.377166220416342 166122.6828263665 7.2495253330881235 0.20848027990280485
0.4445514586081218 13.315006021696096 139845.41507826743 7.624590140915838 0.2115191773443071
0.4619291159778285 13.260654122011179 118013.45702073714 8.015708652412929 0.21458955562514734
0.47969080738710834 13.213246256505375 99843.03585138581 8.423592129972109 0.217693166290436
0.4978455883408461 13.172054374880945 84668.3752125646 8.848691068259502 0.22082761745074594
0.5163805691944378 13.136474363425492 71963.17178121439 9.291859422108896 0.22399604472361884
0.5352966776253354 13.105898337104597 61297.67985803446 9.753990692601882 0.22720149818225058
0.5545997815852476 13.07988575972563 52319.28504468651 10.235894086869626 0.23044532815162866
0.5742779378738134 13.057898428534191 44344.10380850993 10.738054177023255 0.23372440352287252
0.59433302017453 13.03957098678553 38343.29396498721 11.261688715823471 0.2370445756698839
0.6147668853435294 13.024534970615722 32636.245768520945 11.807747537537919 0.24040762218381834
0.6355650900109291 13.012459012752856 28305.06751826982 12.377209159912942 0.24381517514008622
0.6567332654620063 13.003045526478349 24380.966907668855 12.97078097944432 0.2472653948005191
0.6782629573129066 12.995991870378344 21037.346017648266 13.589752729730506 0.2507626544847258
0.7001469366213495 12.991072001873139 18180.419949547864 14.235339035129027 0.2543097904897969
0.7223771623435641 12.98800810823622 15735.886027503799 14.908728947183826 0.2579087862202484
0.7449621861541056 12.986655830422269 13640.949958748382 15.610975357467058 0.26155977416409687
0.7678786120345434 12.986758186433686 11841.36141543602 16.343297529749 0.26526418403754026
0.7911197090225478 12.988130909504902 10294.00463042259 17.107332979608323 0.26902693174760883
0.8146918533870317 12.990645283794947 8961.048808795891 17.904535913660236 0.27285044821996784
0.8385673765218526 12.994121146017687 7810.788480937047 18.736298779573556 0.27673606140680945
0.8627459497344105 12.99838370139655 6818.340542606898 19.603910931449303 0.2806837638017679
0.8872166485863523 13.003323296597355 5958.526851917947 20.509483301567148 0.2847001518865324
0.9119738659777912 13.008823522780435 5214.065191471301 21.454808894015116 0.28878823677686283
0.9369892418862776 13.0147155973829 4567.754174248411 22.44140622118016 0.2929482210103563
0.962264728363619 13.020913924454801 4006.8453903148384 23.471230536499707 0.29718334650650524
0.9877853259620942 13.027302684956199 3518.5859260731295 24.546736093446498 0.30149998279630796
1.013524737759503 13.033762332783436 3093.929657467258 25.669905538614525 0.3059000661811494
1.0394841766495246 13.040215385584291 2723.039182311671 26.842617464959883 0.3103842501040706
1.0656341517460672 13.046551773968366 2399.6158757524095 28.06800614017452 0.31496156209215487
1.0919583652527012 13.052672261139785 2117.0769697241176 29.348173006391104 0.3196327730164913
1.118453237256161 13.058509800334017 1869.7495065580065 30.685778115289416 0.3244019186684269
1.1450798850266377 13.063962875078692 1653.1204708983248 32.084318317372855 0.3292777172746497
1.1718405487282115 13.068980389785754 1463.0825866881532 33.54562701497179 0.33425717212808387
1.1986907925171832 13.073439539856059 1296.2556310830569 35.07429502106483 0.3393541834459978
1.2256340971263069 13.077312635187567 1149.7883919572319 36.67240643057146 0.3445658901047956
1.2526261193774584 13.080482540087166 1020.8673251961097 38.344896429140796 0.3499060271230249
1.2796645522428909 13.082926360454676 907.348796758099 40.09410443298399 0.35537178092986316
1.3067057381407576 13.084518909855914 807.2795324464076 41.925464212030555 0.3609774944972971
1.3337390043374846 13.085230999476881 719.0262380786417 43.84236458085833 0.3667245868189327
1.3607449908822118 13.085039718300903 641.0660535531968 45.84964962976593 0.3726216872823277
1.3876738223387493 13.083788405942215 572.208699626517 47.9525701942738 0.378678308160742
1.4145272913734148 13.081502557175172 511.1853088364491 50.155784002238754 0.384899610550998
1.44124801779754 13.078059235041433 457.17945009648963 52.464691077481945 0.3912935145011966
1.4678404939920922 13.073468479735217 409.30764941388406 54.885611242028226 0.39787122681839077
1.4942475599502505 13.067610067442562 366.8024712728925 57.424728307242226 0.40464179836883585
1.5204581850665417 13.060476228930888 329.0842568548464 60.08866365137157 0.4116149892721363
1.5464404184860079 13.052002373670126 295.51037636973086 62.8845156046749 0.4188013272853471
1.5721557224684142 13.042132595390598 265.66062111239336 65.81990260458728 0.4262121709516382
1.5975787481975339 13.030818368873263 239.0962161660054 68.9030105035254 0.43385977807119586
1.6226660684304113 13.018017241508009 215.39732113436827 72.14264445949586 0.4417573801203338
1.6474172618103562 13.0036857718325 194.2424447036353 75.54828589359072 0.44991926332042814
1.6717665472025764 12.987768000196832 175.36058390290464 79.12999322580633 0.4583601812803804
1.6957037813620608 12.970233830484844 158.48370947650764 82.89768917570177 0.46709230248641664
1.7191679304418421 12.951003596428471 143.40229367130905 86.8642238594777 0.47613769130451156
1.7421727288506403 12.930116400577793 129.87999241946008 91.04131633223659 0.4855112832713315
1.764654047777448 12.907484712431296 117.76922000724016 95.44273696947258 0.4952337610681023
1.7865833958219863 12.88306622223189 106.90454131875731 100.08245450571215 0.5053238674981622
1.8079237344817443 12.856828501261234 97.15942664753756 104.97682073490337 0.5158066597486589
1.8286375556024508 12.828713451648298 88.39791144273471 110.14228577511112 0.5267043806555951
1.8487196401655304 12.798766932358983 80.52868813316461 115.5964952778418 0.5380405162569416
1.8681096128332009 12.766883651799798 73.44017538085862 121.35977341573526 0.5498448724131787
1.8867849604917608 12.733056101997567 67.05906871700539 127.45341444252556 0.5621468286500683
1.904711480323915 12.69726129369537 61.30239320505826 133.9000276883188 0.5749763377180704
1.9218597336713246 12.659472135717044 56.11811526123221 140.72486884578169 0.5883682464771423
1.9381790230907832 12.61960477231627 51.43311767026089 147.9557808678369 0.6023614875174768
1.953683344096707 12.577794082398954 47.20235959679707 155.62145948147753 0.6169925751542343
1.9683059308674673 12.533886675181693 43.37184128713194 163.75522035106542 0.632308051842589
1.9820304350747322 12.48791873480743 39.9102309018377 172.39075132157265 0.6483492913981102
1.9948259578098841 12.439865802786745 36.77356082910612 181.56756541839943 0.665170316953185
2.0066665307129163 12.389721754820416 33.931107583613326 191.3274410258443 0.6828249053713255
2.0175277332980204 12.337489538947676 31.352587828450428 201.71634817379044 0.7013722062093597
2.0273733988440963 12.283136228827725 29.01295071053889 212.7844324515132 0.7208756786059538
2.0361933642682133 12.226697399562095 26.88891823719871 224.58657266277513 0.7414038159199176
2.0439492100386705 12.168133775937102 24.960871937487898 237.1843855502473 0.7630354119460273
2.050620444401114 12.107459895817447 23.204641681108562 250.64416996626747 0.7858514090833297
2.056199009080984 12.044723409180214 21.608956913657416 265.03924466731473 0.8099409027531254
2.060664910641598 11.979926954281098 20.15633164228237 280.45146388603325 0.8354042096448142
2.063988346812688 11.913076131251142 18.834616916210415 296.969771309434 0.8623460198556447
2.066156906808729 11.844195465308575 17.63137541855987 314.69468677075906 0.8908876046159673
2.0671638946390853 11.773337077773826 16.53481320055957 333.7357514672292 0.9211556439569931
