M[M_sun], R[km], Lambda[1], P_c[MeV/fm^3], rho_c[fm^-3]
0.24162668629717493 15.618656898711224 2160425.4255784233 3.5677272577965504 0.1711233750220791
0.2536450368446207 15.277268665686668 1723199.7925582835 3.7848398671072476 0.1738884255980151
0.2660418110180959 14.981231765240572 1382959.5107660587 4.011444079379716 0.17666717585631586
0.2788180785835334 14.72347313583368 1116440.9927902212 4.247795357162461 0.1794582929710022
0.2919736656068603 14.498352449733131 905782.2085983977 4.494519151107 0.18226834802559908
0.30551119730278586 14.301181985674793 738589.7211366553 4.751771911115617 0.18509306382156607
0.31942828338588786 14.12806782110225 605015.4757404852 5.020234590194695 0.18793902981216745
0.3337265399046341 13.975928558423753 497644.1051568035 5.300133035858192 0.19080290399927724
0.3484108295512966 13.841944525745479 410955.48897048977 5.592193869803171 0.19369094250028643
0.3634751961131737 13.723901815844444 340625.14416437387 5.896586912614 0.196598255125652
0.37893036689324217 13.61994962308527 283266.31758231507 6.214175244853557 0.19953250139293055
0.39476403545103694 13.52836425441356 236360.09361462886 6.54521387516233 0.20248981662788723
0.4109907494217945 13.447792519186834 197826.54927525905 6.890410083096611 0.20547399423389
0.42759946400299625 13.377035477607985 166054.70728301074 7.250466935342556 0.20848806953694377
0.4445976374752526 13.31485821625042 138155.0875105832 7.6256400702394 0.211527535456825
0.46197897808952865 13.260502550713444 117948.50689224034 8.01688522212318 0.21459865734307187
0.4797476089281067 13.213119171398402 99790.75104951528 8.4249045148121 0.21770303358975238
0.4979062181225147 13.171965162625078 84624.08812692118 8.850134429304024 0.220838068001409
0.5164469067893012 13.136358107449364 71924.09451979514 9.29345711747799 0.22400729259862195
0.5353680458495851 13.105795852208432 61260.291462626046 9.755753555112818 0.22721356767213796
0.5546763770227479 13.079783963030184 52290.55718854444 10.237832287299979 0.23045822762663443
0.5743614192313151 13.057803467972478 44316.09409233688 10.74016192875819 0.23373793594191059
0.5944199618732616 13.039496576534827 38318.51414400334 11.263996396147647 0.23705899409830983
0.6148600267877453 13.024495115583559 32892.34845533959 11.810268779150556 0.24042295553942195
0.6356663736665084 13.01242734294525 28284.32323727839 12.379958446023913 0.24383145386715446
0.6568390557279671 13.002997810442091 24363.326508266306 12.97374568489499 0.24728233984114042
0.6783724978293082 12.995968873108547 21020.589049230304 13.592974954026937 0.25078059496632277
0.7002643044129176 12.99105517813288 18166.26232168694 14.238836055344802 0.2543287619951396
0.7225011152296221 12.988009362432399 15724.540631409618 14.912519150478392 0.2579288264537947
0.7450913750787869 12.986638377525486 13629.630715701216 15.615041331511334 0.26158055672634406
0.7680138576764163 12.986767441528405 11832.253407736776 16.347694336303647 0.26528610101545796
0.7912625901881104 12.988145265676863 10217.970669034661 17.112082685375963 0.2690500279583716
0.8148392970430606 12.99066848773908 8953.210922101633 17.90966204834032 0.2728747713624886
0.8387240066526136 12.99413478812965 7804.852055663517 18.741778606743733 0.27676123837731764
0.8629080636643659 12.998420823465182 6811.561512730039 19.609815702038695 0.2807102547834586
0.8873918844034618 13.003362406432537 5953.244317878268 20.515841435116375 0.28472801421358934
0.9121500775900868 13.008863336100868 5209.20968038207 21.46165075616849 0.2888175316492893
0.9371718040615469 13.014763555422924 4563.548930862341 22.44870331130308 0.2929785289683938
0.9624595693423367 13.020966200602375 4002.9665960992165 23.47907442752689 0.2972152028786137
0.9879819424047462 13.027352607857221 3515.1441489483464 24.555163705791003 0.3015334616993772
1.0137264388604004 13.03380523443244 3090.6086358684533 25.678884250234514 0.30593471675849315
1.0396942446215063 13.04026474671402 2720.3582058975844 26.852257041815033 0.31042066668963514
1.065847167450675 13.046591583030745 2397.191113103965 28.0783517046251 0.3149998348336538
1.0921816504333342 13.052723562039503 2114.755027729882 29.359187892096337 0.31967241984185585
1.1186825254244235 13.05855698693571 1867.6248597601875 30.69759382780714 0.32444359935997225
1.1453155244837927 13.064013867781613 1651.1816703032262 32.096896292899366 0.32932093395967804
1.1720812695407095 13.069023640663334 1461.3928366030073 33.55911479027286 0.3343026273214963
1.1989399757767452 13.073484110426184 1294.8148843964168 35.08875625490418 0.3394020028258552
1.2258878260586101 13.077346030081111 1148.546325267902 36.68779915788115 0.34461554466035366
1.2528862293459784 13.080507692011993 1019.6587141048992 38.36134063904556 0.3499579646847042
1.279930528361889 13.08294152523919 906.2847601012232 40.111671330682455 0.3554261270426209
1.306982497476534 13.08455148672612 806.3919484414822 41.94416930074552 0.3610340428142909
1.3340151353234309 13.085242278831828 718.2653205517091 43.86241757282315 0.36678419468169593
1.3610246108915098 13.085029402676838 640.3032677047944 45.87100850773185 0.3726837959980684
1.38795801403757 13.08376563733544 571.5370077490178 47.97532618698801 0.37874307906180094
1.414808944709594 13.081459604493823 510.5644836542426 50.18018663267112 0.38496798941069493
1.4415408538310828 13.078017166083214 456.64837349180135 52.49070160760849 0.3913649296716206
1.4681356833131447 13.073411898699256 408.79741733237796 54.91334484183207 0.39794588068128356
1.4945478154962952 13.067538373831828 366.3387948317818 57.45430947554027 0.4047199089509334
1.5207606887223923 13.060388467022461 328.69020713706374 60.12022705104213 0.41169679152994537
1.5467441552064571 13.051895732482778 295.13833436111616 62.91820698122544 0.41888707451725143
1.5724616468372241 13.04200666220561 265.32748173722626 65.85587979734152 0.4263021363509916
1.5978753661916485 13.030667074826559 238.78764792599696 68.94144455984076 0.43395425643567254
1.6229734073166011 13.017842506300978 215.12422123328525 72.18372086370015 0.4418566897346215
1.6477260463543992 13.00349350595714 193.98207062359444 75.59220592377797 0.4500237480314129
1.6720737169316888 12.987552871103867 175.14593955094136 79.17674612377004 0.45846925525644183
1.6960108852593543 12.969989807292414 158.2797556934466 82.94773107924408 0.46720729863501115
1.7194899204110266 12.950773264572687 143.20032280510048 86.91781236509095 0.4762590429036792
1.74247268963848 12.929820281140971 129.7158249439489 91.09847374595834 0.4856384374779747
1.7649544168557434 12.907162992497534 117.6075673955845 95.50401389599303 0.495368216327361
1.7868800283462638 12.88272118294903 106.76407583087435 100.14790430018833 0.5054651053151827
1.8082171396784779 12.856448867592668 97.0332396617866 105.0467827799098 0.5159552242978763
1.828929814819645 12.828315178670142 88.2837187216433 110.21720190581341 0.526861127232654
1.8490031567308842 12.798323283585262 80.42126473615384 115.67693208072814 0.538206670935098
1.8683761623579627 12.766374769958869 73.34434377019414 121.44594888903943 0.5500202940970381
1.8870513430966525 12.73254441961969 66.96943959258418 127.54569366670256 0.5623318464648135
1.904972709616277 12.69671500143132 61.22347792730966 133.99883789304403 0.5751714197424943
1.9221128698670258 12.658883559929766 56.044856968164005 140.83099830209565 0.5885750270170343
1.9384223057715302 12.618981999707934 51.36284235073004 148.06986511111126 0.60258093423546
1.9539153827012523 12.577122753494935 47.13915745066322 155.74382079275696 0.6172244620876488
1.9685280989381708 12.533185668472381 43.31818152860318 163.88666670323548 0.6325536955677125
1.982239370679084 12.487167653481663 39.85776066889702 172.53235937962896 0.6486107551942063
1.995022785422668 12.43907414493648 36.72568398510866 181.7199149993548 0.6654478238273418
2.0068559949317173 12.388898870771065 33.8859063565978 191.49152143518353 0.6831198746910432
2.0176973258917124 12.33661099308357 31.311058731605726 201.89325072879345 0.7016861907944919
2.027529734272334 12.28221510163236 28.976657388293 212.9749162247299 0.7212089185709143
2.0363333760348494 12.225728126837222 26.855053689355973 224.79240068534537 0.7417595945570005
2.04407214490865 12.167119809596654 24.929538391656756 237.4065605359451 0.7634142407059838
2.050726103918558 12.106394030147829 23.176030272280958 250.88449781633116 0.7862561053938245
2.0562929071296017 12.043630183811397 21.58325043311893 265.2995451026933 0.8103739721982919
2.0607329963111116 11.978764750265599 20.131591312285277 280.7330346876666 0.835866051294523
2.064030725424934 11.911853482535319 18.811360296525297 297.2752543783662 0.8628409571641118
2.066186217722865 11.842935252397018 17.610156752136938 315.0265350487525 0.8914188284395019
2.0671713293003195 11.772028555721112 16.515277822273347 334.09615358627025 0.9217248703153004
