M[M_sun], R[km], Lambda[1], P_c[MeV/fm^3], rho_c[fm^-3]
0.24162668629717493 15.618656898711224 2160425.4255784233 3.5677272577965504 0.1711233750220791
0.25363204655299987 15.27760965514142 1723532.3669240235 3.7846103730848273 0.1738855650657372
0.26601612065363256 14.981769148097044 1383587.9935860562 4.0109616536960235 0.1766613460266366
0.27877774531043426 14.724213024889155 1117145.2110504203 4.247043695643903 0.17944957483011667
0.29191872373087957 14.49921460351192 906648.1019862116 4.493478547207554 0.18225676065966717
0.30544104218727375 14.302049381271694 739323.0664538792 4.750407051957595 0.18507832073778657
0.3193405953605304 14.129065323888398 605714.1936710473 5.018535440450477 0.18792140047775963
0.33362266698008913 13.976931579458855 498317.1521378295 5.29805488574649 0.190781980475927
0.3482873614329061 13.842993449068466 411599.92683418904 5.5897315497894215 0.1936671188767925
0.3633311446475054 13.725004434497103 341186.28431810957 5.893685132099063 0.19657100098897348
0.3787680696816359 13.620923603252097 283800.6244611538 6.210798916122561 0.1995017133402683
0.39458023555919136 13.529384304025232 236856.92247152785 6.541366522701143 0.2024560805443212
0.4107864491991092 13.448764706587168 198266.02439511372 6.886017472229692 0.20543658491645972
0.4273727750786769 13.377891420861657 166407.39788297223 7.245487880159231 0.20844687908943463
0.44434758148934733 13.315725218238436 140121.38490516655 7.620088349810702 0.21148334019246806
0.4617074744568955 13.261287979566191 118262.28483377027 8.010664051900095 0.2145505315617962
0.47945072752064416 13.213809206670229 100065.823432988 8.417965423787047 0.21765086132591532
0.49758285882243425 13.1726062743573 84868.8647696727 8.84250301731937 0.22078281331798866
0.5160947505506546 13.136965911342708 72145.56704821446 9.285009951482133 0.22394782402339172
0.5349907692286038 13.106350724547157 61454.14447686002 9.74643341015121 0.2271497570262906
0.5542715519904922 13.080274268113364 52459.94258527061 10.227579783656102 0.2303899581356468
0.5739263341913988 13.0582333703742 44870.44601177385 10.729018985835914 0.23366639479669785
0.5939609374802743 13.039897011170233 38114.69428186303 11.251796857109667 0.236982771157634
0.6143672107189027 13.02480016674237 33012.066586582085 11.796940638132357 0.240341898204519
0.6351405535504361 13.012674284568076 28391.30231965453 12.365425207586332 0.2437454014839561
0.6562805257873469 13.00320410251862 24457.72419448903 12.958074083778865 0.24719276739560314
0.6777873607299009 12.996136840144196 21104.37141326359 13.575942587610745 0.25068576331336145
0.6996466229063957 12.991152815579866 18240.816231118388 14.22035168072053 0.2542284833606727
0.7218498297640337 12.988055203441618 15789.68884286082 14.892485665620509 0.2578229018676718
0.7444059117455599 12.986665015858678 13687.47150826749 15.593550750534659 0.261470711131657
0.7672957503958574 12.986728833770322 11884.287596873635 16.32445582571393 0.26517026286858797
0.7905093756160549 12.988086721698346 10331.871783822273 17.086979722907035 0.2689279607524615
0.8140468805357193 12.990564071978064 8994.26024807724 17.882570390893022 0.27274622338504756
0.8378997352029031 12.994020858563337 7841.159967693193 18.71275339355897 0.2766276049412394
0.8620535472407173 12.99826279205129 6844.520421076083 19.57861061222906 0.28057025722550305
0.8864917088993663 13.0031766504493 5982.303934840109 20.48224143998185 0.28458077382514824
0.9112190413935102 13.008642471832715 5235.147625630789 21.425495538999385 0.2886627254794517
0.9362111409121945 13.01452884420995 4586.660707215464 22.41014341208562 0.2928183730997218
0.9614516716315327 13.020711118229569 4023.7690410994433 23.437626321977984 0.2970468698065475
0.9869447772030725 13.02708859903948 3533.4893463015055 24.5106324914613 0.30135656032480534
1.0126546002677632 13.033551292893572 3107.1917541150915 25.631383306195733 0.30575119570028875
1.0385802659095948 13.039980699460303 2735.098066467029 26.801324660363147 0.3102282533238807
1.0647060179797787 13.046327225991329 2410.321160315739 28.02369080882668 0.3147976204117163
1.0910015645957987 13.052456993253246 2126.6572913915797 29.300992091659477 0.3194629506926867
1.117469097257166 13.058304921679555 1878.163497453557 30.63516892651271 0.3242233914756234
1.1440709474570026 13.063771288004249 1660.6640335051695 32.03009575427402 0.3290903512107652
1.1708017524617014 13.068802649447813 1469.954010315735 33.48786014977902 0.33406249183637116
1.1976268001029147 13.07326747392776 1302.4441458681617 35.01236141587838 0.33914938580388454
1.2245446689403037 13.077166621808793 1155.3512370258657 36.6064856513323 0.3443532398752874
1.251511156648985 13.08035810904796 1025.8861422031675 38.27423090991289 0.34968217424953296
1.2785267460352079 13.082837583397636 911.8314235315844 40.01887820995839 0.35513905612727936
1.3055448784752963 13.084463231958107 811.3025353667076 41.84532608147756 0.3607351200420727
1.3325638006211327 13.085252627461898 722.6901697230585 43.75649885812518 0.36646934948448806
1.3595419289859976 13.0850735579116 644.389738824498 45.75819542980335 0.37235575089195055
1.386451441503202 13.08386434006146 575.1506126255009 47.85505348540634 0.3784005440781143
1.4132776525138018 13.081615965540522 513.8532383339883 50.051305563487375 0.38460685045185466
1.4399985826371662 13.07826634299518 459.5924339001064 52.35333269484864 0.39098776610486596
1.4665645190645056 13.073704760521013 411.4878544979945 54.766880467293156 0.39755162492606816
1.4929634278415995 13.067930531887487 368.76256966688766 57.29809283440751 0.4043074109505414
1.5191647399541908 13.06086994435541 330.84235207316135 59.95354775119648 0.4112648119840244
1.545134023159251 13.052462510197476 297.10705952159145 62.74029620375438 0.4184342774440536
1.5708415585805104 13.042674454813566 267.11044215149997 65.66590496942618 0.42582708090747085
1.5962586744495815 13.03144393188923 240.39004712723693 68.73850348524581 0.43345538791512034
1.6213532062325007 13.01873345757306 216.56708029803673 71.96683524937436 0.44133232965197816
1.64608502430294 13.004492587416319 195.3251512550898 75.36031423344524 0.4494720831955537
1.6704417815117747 12.988666151480816 176.34610049027117 78.92908684401355 0.45788995910839947
1.6943815048405535 12.971249698562406 159.38139295427388 82.68353500601202 0.4666001768281877
1.717874711468368 12.952169177745686 144.20672525358378 86.63490307235843 0.4756183925496603
1.7408788830172761 12.931378996922428 130.6166074735018 90.79673341114301 0.48496717629963526
1.7633592828011062 12.908832474642036 118.44087620617196 95.18053948961891 0.49465844125145103
1.785307121547873 12.88455159612106 107.51137864313111 99.80241427859477 0.5047195528372441
1.8066559986880972 12.858420666989767 97.71604070310275 104.67703196320899 0.515169302369633
1.8274091558725514 12.83049290126874 88.90103342396337 109.82081436043549 0.5260302041678054
1.8474964404923921 12.800634703843839 80.98833483134136 115.2523817550844 0.5373296964633725
1.866923380017483 12.768924370228424 73.85883136185447 120.9911282318212 0.5490944459121183
1.8856156068467114 12.735219449589538 67.43963055141086 127.05817118728093 0.5613535785904936
1.9035774451543148 12.699576831510127 61.65936882348376 133.47652626382137 0.5741388919972569
1.9207656099530455 12.661956881878517 56.439336931069256 140.27093441958525 0.5874838095923737
1.937148322787508 12.622346336328631 51.727724027569415 147.46785061928043 0.6014229294083347
1.9526894587926291 12.58066727052306 47.4695638823794 155.09806604582508 0.6160005541067564
1.9673507554071368 12.536919474259607 43.61945680609046 163.1917378147509 0.6312529679664223
1.9811366639752845 12.491154830210021 40.13361271303617 171.78520810858402 0.6472312220640518
1.9939857942039494 12.443284254302181 36.98028076393509 180.91612831107588 0.6639837152295082
2.005800401872884 12.393386995182977 34.13338028659374 190.6422468516455 0.7147869813065247
2.016325768756161 12.341528802329929 31.582422283397733 201.05808840638255 0.7822448036436797
2.0254408018641423 12.287424121628582 29.305834855257025 212.2297984217535 0.855025798201275
2.0330964979787796 12.230894587447755 27.26580421436017 224.2294894924181 0.9336930384674729
2.0392430322172266 12.171885228469016 25.43592849158004 237.1369963431013 1.0188678262664836
2.043844006671948 12.110266842454287 23.795269003746355 251.0421434958607 1.1112385915141574
2.0468790253050737 12.046049673402877 22.325053753127815 266.0453613637193 1.2115678386078605
2.048321093349088 11.97920527796735 21.004593800228342 282.25963501406096 1.320701218559792
