M[M_sun], R[km], Lambda[1], P_c[MeV/fm^3], rho_c[fm^-3]
0.24162668629717493 15.618656898711224 2160425.4255784233 3.5677272577965504 0.1711233750220791
0.2536391995418674 15.277419784724101 1723254.566076992 3.7847512323549153 0.1738873208085861
0.2660318859469861 14.981457330206787 1383249.05432636 4.011257752914531 0.17666492421094648
0.27880267903500844 14.723763600713621 1116619.114830445 4.247505036787273 0.1794549256921535
0.2919533043006205 14.498662992183343 906122.0792058426 4.4941172201641875 0.18226387243126754
0.30548323835384533 14.301503928621003 738880.0995092171 4.751244724014972 0.1850873691947274
0.31939423710220033 14.128462562840294 605269.6132149658 5.019578265206453 0.18793222018709627
0.333687611684978 13.97628674944287 497898.74106303 5.299330295923915 0.1907948217401255
0.3483630171907916 13.842294685112675 411178.67093314714 5.591242712392776 0.19368173979068645
0.3634195510317205 13.72431296402928 340838.60178082506 5.895465971276302 0.19658772700739185
0.37886689475705543 13.620324009808364 283467.9859123882 6.212870957160925 0.19952060785963838
0.3946936076308403 13.52876343690648 236556.1281925977 6.54372759700344 0.2024767839762972
0.41091176066314955 13.4481814927179 198002.4620220484 6.888713125477741 0.20545954223070712
0.4275131367830634 13.3773250463663 166205.48847327597 7.24854337734197 0.2084721564345706
0.44450131063641074 13.315206320376555 139914.54252745028 7.62349522993933 0.21151046114890867
0.46187533046775814 13.260804267527991 118070.37812070306 8.01448169308565 0.2145800641027968
0.4796323505917018 13.213379937829195 99893.89878668399 8.42222355846233 0.21768287654591034
0.49778185212436593 13.172187719933161 84719.71733958715 8.84718593202795 0.22081671962133428
0.5163118183626463 13.136594263543167 72010.72210158379 9.29019336963274 0.22398431561032045
0.5352221694457023 13.106006908890855 61333.87276948791 9.752152432205078 0.22718891247852613
0.5545205490282784 13.079961755865622 52357.04437616661 10.233871640950616 0.23043185945076677
0.5741918702426165 13.057973221035166 44775.77701263614 10.735856333765092 0.2337102926883485
0.5942442624734843 13.039667319328805 38368.6042612102 11.25928243190378 0.23702954116440883
0.614669046387572 13.024605933119124 32938.69585872254 11.805118603705646 0.2403916338798389
0.6354621824868288 13.012532045519048 28327.25718713327 12.37434248069039 0.24379820131969335
0.656624570266454 13.003088237308344 24400.537179873496 12.967689718684674 0.24724772642164808
0.6781470049363305 12.996033054817289 21053.44378755731 13.586393003761462 0.2507439484306546
0.700025783880578 12.991083307351182 18195.418948980587 14.231692837326397 0.25429000968876486
0.7222494081934842 12.988025047219956 15749.12655182645 14.90477711428408 0.25788789139005275
0.7448246158264401 12.986670525688925 13651.758966512174 15.6067360424132 0.26153810559759033
0.7677362733498169 12.986744558188153 11851.389890868923 16.338713341596296 0.2652413330093531
0.7909709768933075 12.988122510982635 10303.076171117906 17.102380921304846 0.2690028515649867
0.8145331947747281 12.99063863374352 8969.338226803913 17.899191463895615 0.27282508918798115
0.8384055262264276 12.994087982999122 7818.140591717023 18.7305856391414 0.2767098124825819
0.8625767043637251 12.998353171689761 6824.513127302337 19.597754841160835 0.28065614530708655
0.8870405433390799 13.003288804849767 5928.343434526138 20.50285464561146 0.28467110408834523
0.9117900934066847 13.008779076132702 5218.88905126426 21.44767602912114 0.2887576959149717
0.9367997789977173 13.014670412981411 4572.4223191387755 22.433798853697468 0.29291662433681137
0.9620666665428566 13.02085833347069 4010.9858103776996 23.463053234836895 0.2971501360547395
0.9875808467066552 13.027259087513206 3522.173320993933 24.5379503856975 0.30146508135019245
1.0133171837366572 13.033717645606 3097.1587149535253 25.660545424302455 0.30586394369736286
1.0392632835597588 13.040162054984771 2725.957221576064 26.83256855985642 0.3103462871500915
1.0654079921366288 13.046502172580528 2402.2414216254792 28.057221428216216 0.31492166475306893
1.091726862815083 13.052621344407997 2119.3269086326786 29.336690699305386 0.31959144376115517
1.1182135722905164 13.05845910631777 1871.8211260574244 30.6734611832024 0.3243584698923726
1.1448352099201282 13.063925293574835 1654.9766192310472 32.07116104575033 0.32923237096348185
1.1715870362342258 13.068940306173342 1464.6635503269122 33.531567479232045 0.33420979004304213
1.1984379868432753 13.073412658405909 1297.7559448605693 35.059220995179246 0.33930433772897184
1.2253701068473257 13.077279695251208 1151.176236422307 36.65636164290189 0.34451413210345333
1.2523562502808478 13.080452120085615 1022.0679157357038 38.32769636074105 0.3498515410769644
1.2793882324952401 13.082901459771955 908.4379695963363 40.0757939043649 0.3553151342714681
1.3064240147817687 13.08450518071994 808.3022208868895 41.90596757000628 0.3609185531947294
1.3334522526654684 13.085225133721872 719.9582117933329 43.82146334196451 0.3666624575276155
1.3604536095599349 13.085042272377514 641.9373825483058 45.82738757123489 0.37255695224019153
1.387376688522374 13.083803871966133 572.923257963541 47.92885227435864 0.3786107993043523
1.4142249675126755 13.08153698263481 511.823400150825 50.13035027977566 0.38482834245780223
1.4409501285945123 13.078123822220935 457.7660044257108 52.43758190999715 0.39121908288421064
1.4675302181761478 13.073532227249745 409.8293335529157 54.85670665396281 0.39779342086569547
1.4939356001291861 13.06768682819079 367.27233758289464 57.39389860785058 0.40456039097677104
1.5201431701453432 13.060572142144121 329.5004143452565 60.05576856519279 0.4115297357079343
1.546121848549642 13.05211607153356 295.8986549604097 62.849403315270536 0.4187119637172622
1.5718364491972276 13.042265360981093 266.0100329317471 65.78240870189161 0.42611841283236596
1.5972526378431637 13.030961061521174 239.40992181923463 68.86295682397656 0.4337613183586952
1.622344311463011 13.018187637730554 215.6875396272953 72.09983780678854 0.44165388731828203
1.6470957862382878 13.003881140962566 194.50602543863425 75.50251662638148 0.4498103793183919
1.671449387169419 12.987990589228518 175.6048525161689 79.08119553075349 0.458246194833414
1.6953837177746691 12.970483202278935 158.70803661194049 82.8455419948859 0.466972468416779
1.718848672088702 12.951271403314985 143.59279943036225 86.80838191067267 0.4760112367652297
1.7418649183870436 12.930439552194917 130.06459099628896 90.98175636558557 0.48537878426876857
1.7643452411184501 12.907828550677715 117.9353331595961 95.37888558207179 0.495093656866823
1.7862734536731668 12.883430501068867 107.05732116855172 100.0142561114308 0.5051766983220065
1.8076170152152717 12.857216367655205 97.2952663640998 104.90392189679167 0.5156518589131268
1.8283457948515742 12.82916854922138 88.52328164345852 110.06399276615818 0.526540187811738
1.848424342233568 12.799229067846333 80.63745642735235 115.51268535171772 0.5378673938701514
1.8678227219160444 12.767383522838118 73.5421457939526 121.26998593029334 0.5496620979962616
1.8865034819403785 12.733593357290436 67.15298106971626 127.35714561530993 0.561953617881989
1.9044379032252476 12.697833384602745 61.3904132425532 133.79707986777422 0.5747730867553009
1.9215781419783111 12.660021188100682 56.19457574904645 140.6142976786949 0.5881528117955674
1.9379313387442796 12.620288219603765 51.50212553295383 147.83692464801422 0.6021328616651821
1.9534348744810948 12.578475325982188 47.265260844295724 155.49398260381807 0.6167509937104543
1.9680733907172603 12.534623062589983 43.435597044886585 163.61795047030404 0.6320510230465912
1.9818102875820005 12.488695399456399 39.964355392654255 172.24322984431166 0.6480769091200123
1.9946178213940395 12.440686247547 36.824353830469754 181.40885752850065 0.6648812283311248
2.0064734225290493 12.390588279830075 33.977220221854935 191.15651682108205 0.6825176328784969
2.017356614887398 12.338423374181701 31.39695807548203 201.53207159807653 0.7010451334648529
2.027210586433848 12.284096779905632 29.053769302742978 212.5860132348906 0.7205285560575172
2.0360350732961074 12.227673912851198 26.92572891461042 224.3721757120067 0.7410332256864468
2.0438218845095344 12.16919775852672 24.992978716688324 236.9529670471453 0.7626408221397726
2.0505104314043785 12.108575373397539 23.236128402214174 250.393557287576 0.7854289327552705
2.0561077459177803 12.045882385112419 21.636847157500483 264.76807396854514 0.8094896589556873
2.0605920736022996 11.981137960936637 20.18251162217396 280.1576951112552 0.8349215348456965
2.0639377400618586 11.91434172380224 18.85805772034322 296.6516150519015 0.8618305497108492
2.0661266944057513 11.845509992927681 17.652202275011817 314.34908239682056 0.8903343599884405
2.0671549811147116 11.774707045252459 16.554857464504057 333.36042124694296 0.9205628398552175
