M[M_sun], R[km], Lambda[1], P_c[MeV/fm^3], rho_c[fm^-3]
0.24162668629717493 15.618656898711224 2160425.4255784233 3.5677272577965504 0.1711233750220791
0.2536349031161152 15.277497955978735 1723460.125955979 3.784653540491231 0.17388610312663338
0.2660221232061767 14.981616189401088 1383673.6540572725 4.01105239391666 0.17666244256865177
0.2787859940767681 14.724051887935454 1116963.9845132402 4.247185072095073 0.17945121458390048
0.29192846984368603 14.499067686431848 906462.1319142749 4.493674263026398 0.18225894000073328
0.305454024833001 14.301893581624023 739218.4359967795 4.750663744847696 0.1850810935109054
0.31935716891870025 14.128876141980946 605588.9978724202 5.01885499423554 0.18792471597161609
0.3336424364816094 13.976712448772433 498195.8095439825 5.2984457042448305 0.19078591536972014
0.3483114067664722 13.842762524232983 411460.9814933054 5.590194601541039 0.19367159902987055
0.3633600223824876 13.724719962627722 341073.56137107045 5.894230809294198 0.1965761261046678
0.3787985642515855 13.620732819588355 283697.81955165986 6.211433811665693 0.19950750282315768
0.39461490571004826 13.529192309075711 236764.0752979096 6.542089970209445 0.2024624242016393
0.4108240264824089 13.448568496803048 198184.1044133041 6.88684342337776 0.20544361906303363
0.427416672322482 13.377704438736592 166365.84770795502 7.2464240728117515 0.20845462397132333
0.4443948756817486 13.315537743310452 140057.77541011988 7.62113218980312 0.2114916498299946
0.4617586325843334 13.261146693475139 118208.38586752406 8.011833727168684 0.2145595799456406
0.4795051551278954 13.21369909391423 100013.34651470267 8.419270039923934 0.2176606702154448
0.4976432938381865 13.172486734498484 84822.67707722665 8.843937758567558 0.2207932014576433
0.5161607087154875 13.13685484880697 72105.10335256055 9.2865980111842 0.22395900406269825
0.5350606064199502 13.106256869528979 61420.48600971446 9.748185537290947 0.22716175301614416
0.5543484405244727 13.080186559498973 52425.061606466785 10.229507379550252 0.23040279517234424
0.5740069936403756 13.058170841491705 44841.40084420552 10.731113672379115 0.2336798433331579
0.5940482937482622 13.039809751316454 38426.81227544847 11.254090098969197 0.23699709937427155
0.6144606045951487 13.02474656891486 32988.0057066033 11.79944595888791 0.24035713473474815
0.6352385749667037 13.01262500215482 28371.577328066294 12.368156973507253 0.24376157647267901
0.6563849908410005 13.003176743846677 24443.135483399245 12.961019751744972 0.2472096036257694
0.6778977443563652 12.996098691519743 21090.505198675775 13.579143934964133 0.2507035875577328
0.6997622411160151 12.991149474117435 18226.649603245805 14.22382584173479 0.2542473308537316
0.7219721928542605 12.98805366296139 15777.311372417082 14.896250874194472 0.2578428099447085
0.7445354012616816 12.986662464088939 13676.530441183675 15.59758971685611 0.26149135564834003
0.76743056051946 12.98673726449368 11874.252355437391 16.328823172912564 0.2651920329990047
0.7906504145617915 12.98809123942633 10322.749340100918 17.091697329500967 0.26895090087581214
0.8141984169143938 12.990599373595666 8986.97774949095 17.887661584244313 0.27277038073346166
0.8380559993591398 12.994027948340577 7834.6092180242895 18.718243057780338 0.2766530298248751
0.8622139092405884 12.998298049778352 6838.40423013072 19.58447450814562 0.280596564828315
0.8866596222812868 13.003214076070368 5976.863926474243 20.488555186867107 0.28460844164296134
0.9113940622556624 13.008690633210687 5230.176422679904 21.432289233102864 0.28869181411023737
0.9363923120819807 13.0145746912794 4582.238487420882 22.417388779426165 0.2928484662307678
0.961640694615217 13.020756592564915 4019.606362041074 23.445414146049522 0.29707849847409
0.9871386035548134 13.027140879900042 3530.098021612766 24.51899935744526 0.30138979791142184
1.0128555856318024 13.033607328770056 3104.1216032836483 25.640355764436407 0.3057860279116308
1.0387927367647096 13.040051417245802 2732.282753378917 26.810893697376756 0.310264403422626
1.0649219518280235 13.04638248154832 2407.989503357023 28.033960030055564 0.31483561072644156
1.0912245785772627 13.05250727167996 2124.3028414272894 29.311925145461966 0.31950230297344645
1.1176978440126344 13.058346430803772 1876.2020559199589 30.646896116811995 0.3242647598993071
1.144308106516069 13.063819814981212 1658.8971704697883 32.04267198925837 0.3291338447236169
1.1710410765431243 13.06884688389766 1468.2948295157853 33.52746477456605 0.33417269397953914
1.1973499342644878 13.072862969388964 1303.8490141023894 35.03846464520932 0.37546724384633906
1.222352846023691 13.074417807709432 1164.6928692264185 36.6766647525374 0.42196178075611834
1.24617322415864 13.072905656623416 1045.102899139175 38.420897058751486 0.4676398585763362
1.268961931444185 13.068185159974357 941.353672210798 40.275643745030294 0.5126073640176262
1.290845855237188 13.060204375458659 850.4363728513938 42.244155416782455 0.5567672776499886
1.3119612387981783 13.049118060461346 769.9907135301886 44.33304881239953 0.6004925097349523
1.33237010774377 13.034903989411164 698.3744031121821 46.54591333544035 0.6437020840152577
1.3521611145309593 13.017674854204472 634.2918284885202 48.88947766302055 0.6866405287954088
1.3714149351173666 12.99759389699466 576.7535138136124 51.37000838530298 0.7294322013173477
1.3901749734434898 12.974710454711461 524.8193326540677 53.99393866969004 0.7721847491976869
1.408487922805384 12.949206273678664 477.93466221134884 56.76836498694626 0.8150223190414808
1.4263960547766785 12.921166307483864 435.42797928009696 59.7011429284815 0.858080496884018
1.4439248051704814 12.890709303301241 396.87960960706977 62.800971474949925 0.9015030369797289
1.4610937447446724 12.857928977502405 361.84259789838035 66.07747261160141 0.945439895517221
1.4778987865556434 12.822850484648436 330.000137987388 69.54072170111688 0.9900267509408458
1.4943649408361792 12.785645863531885 301.03913533341597 73.20030845681814 1.0353580619556084
1.5104932347906737 12.746382176508298 274.7196807501981 77.06972127741997 1.0816344566380798
1.526269259100998 12.705106262260726 250.72783489878537 81.1611260719568 1.1289774552299585
1.5416940902852883 12.661933510640468 228.9196831398696 85.48755225158759 1.1775113171026592
1.5567392377310918 12.616771827257022 209.06517883181223 90.06504596919675 1.2274104638045122
1.571405847233036 12.569860083918083 191.00511144129771 94.90989964855007 1.2788116163762988
1.5856542944761594 12.521066569362382 174.58357619927256 100.03904256692938 1.3317779452018714
1.599487600665609 12.470608441527224 159.6561857811236 105.47210962235495 1.386331262887584
1.6128481342937122 12.41829464170789 146.05743362208173 111.23075647935603 1.4431886515480523
1.625750202762523 12.364465588607784 133.71545078322882 117.33697141881686 1.5025661997553728
1.638116545779338 12.308741353420553 122.48449263076292 123.81597939848774 1.5646959993696277
1.649953645923635 12.251492147835155 112.2849754514598 130.69546632972921 1.629829429338268
1.6612047277663406 12.19248492635507 103.02005408083984 138.0052652585109 1.6982306625720789
1.6718616752303566 12.131985771763468 94.60885273904911 145.7767578792124 1.7701674911561331
1.6818590372002218 12.069670983151514 86.95084145853696 154.04699611444727 1.845968860441507
1.6912045695450253 12.005910861881695 80.0119820332653 162.85343913686646 1.9259469259456659
1.6998338228760224 11.940427727364586 73.70149335430699 172.23954832440043 2.0104736244166967
1.707721873594692 11.87325431083179 67.96313069608831 182.25181802437223 2.099936570496146
1.714853790721344 11.804575330379734 62.751339047913554 192.94107048622806 2.1947545767211123
1.7211919418548995 11.73430093804674 58.01357718140527 204.3634811132814 2.2953878544869237
1.7267092800020702 11.662453609183531 53.71309884398812 216.58071345299115 2.4023366372868002
1.7313786521937276 11.58897907941648 49.79495409230546 229.66089611505654 2.516150522803373
1.735175479862388 11.513959526635215 46.23263289886915 243.67871886416074 2.63742828589342
1.738084048504734 11.437409801612104 42.99439148313355 258.71564805637973 2.7668246422347234
1.7400831300066615 11.359334706337144 40.046831943071325 274.8632807682784 2.905115706566737
1.7411565986937916 11.279841774731699 37.36678260931752 292.2216268381985 3.053333472794794
1.741287158001336 11.19883691224718 34.924272295435 310.9016389720326 3.2142536744397017
