M[M_sun], R[km], Lambda[1], P_c[MeV/fm^3], rho_c[fm^-3]
0.24162668629717493 15.618656898711224 2160425.4255784233 3.5677272577965504 0.1711233750220791
0.25363981441190775 15.277395203061536 1723159.7967614585 3.784761429435762 0.17388744791027963
0.26603296193553105 14.98142113236715 1383142.7117522934 4.011279188728884 0.17666518325011238
0.27880466434199347 14.723714539156685 1116591.5617455486 4.2475384360431425 0.17945531307318996
0.2919554694361728 14.49862406341753 906108.3651859931 4.494163458767316 0.1822643873088448
0.3054865429372743 14.30148682852619 738889.2056674216 4.75130537138103 0.18508802430202806
0.3193993612354988 14.12838495912418 605235.7210509676 5.019653767534901 0.18793300355289513
0.333692149911562 13.976246614369904 497857.53606198466 5.299422640274703 0.19079575149451095
0.3483689197298438 13.842292292776643 411170.1239005902 5.591352128767062 0.19368279842420708
0.3634264829418348 13.724288433432566 340806.97141034016 5.895594917017455 0.1965889380930806
0.37887342011906394 13.620297369079882 283434.15989740833 6.213020991873529 0.19952197599556376
0.39470109947878695 13.528715384871793 236525.13227582307 6.5438985643560255 0.2024782831290138
0.4109209155475816 13.448135250371323 197979.00928189428 6.888908324859122 0.20546120463055118
0.42752250565020955 13.377300888149893 166196.67674212973 7.248764639483153 0.20847398687955998
0.44451245447999904 13.315138244197714 138270.98378080773 7.623741942782025 0.21151242514177235
0.4618875943838442 13.260796139372523 118063.00038959009 8.01475815839608 0.2145822027854856
0.479646507491675 13.213332666017491 99884.74124761124 8.422531930873877 0.21768519507534845
0.49779640366598493 13.172156482882418 84706.85456297621 8.847525074103178 0.22081917515486318
0.5163270940703368 13.136571781587877 71994.68779217833 9.290568767771486 0.22398695843662056
0.5352387343161238 13.105990802327366 61327.24457011962 9.752566630257643 0.2271917482976418
0.5545378959155567 13.079941358902385 52346.069478597485 10.234327337278078 0.23043489421053995
0.5742104121786946 13.057950621113315 44768.40291646626 10.736351548158458 0.23371347211815213
0.5942640172601933 13.039641900337658 38362.045383471625 11.259824608818844 0.23703292869558554
0.6146912438228065 13.024588701729709 32932.588196841316 11.805710944199319 0.2403952362983387
0.6354855524743713 13.012501514216583 28322.428346795055 12.374988385445878 0.24380202576967866
0.6566492829138144 13.003074033943982 24395.4922910768 12.968386221728482 0.24725170734743196
0.6781728035696791 12.99602270791084 21049.6482769828 13.58714999152737 0.250748163135726
0.7000525355129931 12.991081511427197 18191.202090134248 14.232514366242128 0.25429446652322746
0.7222779616500973 12.988026609105704 15747.385480241977 14.905667501309736 0.25789259920189134
0.7448572516403775 12.986646440251143 13649.599840117662 15.607691197682227 0.2615429877177461
0.7677687392346908 12.98675239761024 11849.196564438664 16.339746194174502 0.2652464815204071
0.7910045726488597 12.988120394526684 10300.970879566681 17.1034966517053 0.26900827698410607
0.814569660444655 12.990633436321566 8967.84640017913 17.90039559596154 0.27283080270853444
0.8384441220510452 12.994084512451508 7816.610416754481 18.731872833313272 0.2767157264737895
0.8626147901096539 12.99836006147104 6823.058798861053 19.5991418260803 0.2806623678336946
0.8870800501559253 13.003304682878715 5963.206538706103 20.50434809261897 0.28467764860469474
0.9118295538263766 13.008792281117842 5217.814079176086 21.4492830662185 0.28876457678244555
0.9368417127419629 13.014672943132311 4571.29292019085 22.435512788611963 0.2929237430466796
0.9621104514676957 13.02086780449617 4010.0537905162246 23.464895565117224 0.29715761830541754
0.9876260454360166 13.027265653296748 3521.3509483875378 24.539929777400754 0.30147294453376816
1.013364140941517 13.033733330738912 3096.496250662455 25.662654218216638 0.30587208193920845
1.039313501939682 13.040176223122257 2725.3478538437707 26.834832522302772 0.31035483999254315
1.0654589594141424 13.046514500901345 2401.69633255034 28.059651149662038 0.3149306533492209
1.0917788583680466 13.052628988474662 2118.735457306235 29.33927757189372 0.3196007549141253
1.1182691938665865 13.05846720105223 1871.4061915352186 30.676236073670207 0.32436825849830625
1.144890252058204 13.06392845247162 1654.5213692198201 32.074136964298305 0.32924266284748155
1.1716449968752385 13.068948413374232 1464.3850492858844 33.53473492759236 0.33422046467059396
1.1984906152201045 13.073409456911659 1297.4270586096811 35.06261697538688 0.3393155673148662
1.225428004559487 13.077291035987587 1150.723143888276 36.65997630486477 0.3445257924434079
1.2524140582906125 13.080464463864699 1021.8290291363601 38.331571266584646 0.34986381592921306
1.2794505664756513 13.082907916457087 908.1846130176773 40.07991895818223 0.3553278958098875
1.3064868673958947 13.08450691295039 808.0618172296328 41.910359812146886 0.3609318316081422
1.3335158740876434 13.08523084668007 719.7655518524066 43.826171983615126 0.3666764540457313
1.3605151049200952 13.085049503819162 641.7184092479432 45.83240275178596 0.3725715357039733
1.3874435895391173 13.083798907101773 572.7697606576705 47.93419540076494 0.3786260075669034
1.4142924082310286 13.081526880385788 511.6821498754167 50.13607989953642 0.384844397483789
1.4410187944553041 13.078112240715784 457.63516310876025 52.44368893305343 0.3912358504814194
1.4676009650949147 13.073517242651672 409.7164765994799 54.863218102577186 0.3978109485143069
1.4940051707352595 13.067672740716642 367.18972607204796 57.400843692192346 0.40457872982583837
1.5202141101056463 13.060552744939638 329.4084105347281 60.06317887913384 0.41154894087650856
1.5461939075628706 13.052090206632293 295.80820963626167 62.85731305170942 0.4187320946253511
1.5719081171571352 13.042237318321625 265.9585399007381 65.79085488977822 0.4261395335649207
1.5973253999089154 13.030925732254799 239.33521295144877 68.87197958947631 0.43378349806620453
1.6224165787809661 13.018146307608434 215.61056194018326 72.10948066132266 0.441677200657971
1.6471680599829948 13.003837157049555 194.44952135748218 75.51282678462057 0.4498349069405093
1.671521741229625 12.98794018267729 175.55165305928853 79.09222426202736 0.45827202391764016
1.6954570852561681 12.97042686032419 158.6608895348525 82.85728871292959 0.4669994623406314
1.718921140865449 12.951207911580646 143.54672787069177 86.82096082257219 0.4760397218117397
1.7419349626168408 12.930371335690014 130.02277987166156 90.99517270910702 0.4854086306947253
1.764415348385793 12.907752819971474 117.8978350293018 95.39326848984655 0.49512521617802807
1.786342319475887 12.883348213104926 107.0178640014773 100.02961810362106 0.505209848834692
1.8076857971917724 12.857129185133129 97.26452976262942 104.92034256899348 0.5156867282449664
1.828325949460552 12.829083270859186 88.52273023213786 110.06923711891685 0.5703202283231014
1.8457957308019497 12.799040534465894 81.37235473467513 115.78258756219319 0.7452853755830976
1.859296646153444 12.76455107271134 75.59022149478558 122.09914009803862 0.9172767999159308
1.869192585273732 12.724652502222535 70.81298784394966 129.0804177959525 1.0885705346478094
1.875855983749812 12.678992644356567 66.77570423726918 136.76498355598528 1.2598583662498453
1.8796540420700816 12.627473306104086 63.310693433551045 145.19700311149512 1.431606997707981
1.8809209349752938 12.570305257099038 60.28149463337483 154.42346316054514 1.6045751002212805
