M[M_sun], R[km], Lambda[1], P_c[MeV/fm^3], rho_c[fm^-3]
0.24162668629717493 15.618656898711224 2160425.4255784233 3.5677272577965504 0.1711233750220791
0.25364558151822414 15.277243264898082 1723061.7028481674 3.784855226749268 0.17388861704854314
0.2660432931712502 14.981189706683663 1382936.901363679 4.011476368786692 0.17666756605474326
0.27882116054647954 14.72339031959018 1116278.3793564958 4.247845669120249 0.17945887651389403
0.2919780635270981 14.498271898660203 905750.1735044292 4.4945888062377595 0.1822691236516462
0.30551537169790605 14.301090093570597 738539.5218805276 4.751863274993782 0.18509405072582083
0.3194344408186937 14.127978939551971 594756.5087690143 5.020348336246389 0.18794020997135572
0.33373749358160143 13.975760362042106 497575.1847530231 5.30027215924364 0.19080430474092125
0.34841907237317266 13.84187509294605 410912.16799129377 5.592358718306883 0.1936925374549081
0.3634844093073052 13.723837520242819 340562.23668270535 5.896781190422768 0.19660007982394553
0.3789404833742293 13.619865304660635 283225.59114473785 6.214401303617179 0.19953456277666232
0.39477568843378563 13.528317678143859 236339.62109307948 6.545471480599758 0.20249207547956558
0.41100449885762447 13.447748939344525 197807.12973551222 6.890704209096345 0.20547649913432894
0.4276157118530029 13.376924240614432 164013.47078634234 7.250800342678897 0.20849082773039235
0.4446133724347357 13.31481341607897 139746.67690503213 7.62601183780144 0.2115304949656646
0.4619971599201138 13.260446137887946 117927.7002707802 8.017301835517436 0.21460188018449392
0.4797674705403081 13.213060867476655 99766.38083040477 8.425369223602596 0.21770652755020595
0.4979277866373706 13.171916254760745 84606.41297146482 8.850645520360063 0.22084176851902715
0.5164708859043157 13.136314461301946 71910.0062743685 9.294022863281002 0.2240112754843453
0.5353926031759507 13.105766092779927 61249.40102793783 9.756377792616334 0.22721784153251517
0.5547041317446416 13.079747663166625 52280.62334650914 10.2385124071294 0.23046271555822298
0.5743900135542082 13.05779453889911 44707.66356143605 10.740908305981877 0.2337427279148854
0.5944511787181783 13.039462090404427 38307.58420286172 11.264813577735843 0.23706409986366084
0.6148926529466421 13.024458553301214 32885.19836126639 11.811161593971043 0.24042838534315913
0.6357014313974859 13.012403131801372 28277.098506902697 12.38093202426272 0.2438372184961488
0.656875984335607 13.00298554071539 24357.126035675246 12.974795555637934 0.24728834047178733
0.6784117853722916 12.995956892243965 21015.65262322834 13.59411602859744 0.2507869481638192
0.700305478995142 12.991036816450976 18161.496135537916 14.240074453746454 0.2543354803669086
0.7225451460505506 12.987991339505244 15719.37892715946 14.913861386009566 0.25793592335900756
0.745136866389915 12.98663732167428 13625.507365406867 15.616481237462674 0.26158791657043995
0.7680618928481155 12.986767724351251 11828.246729390317 16.349251416102923 0.26529386266772825
0.7913111141568101 12.988149552468569 10282.92528132394 17.113764755968873 0.269058207298068
0.8148903857318717 12.990686427005556 8950.018824601184 17.911477445021596 0.2728833852899342
0.8387791238891359 12.994153795981559 7802.394247564306 18.743719276628443 0.27677015475130834
0.8629651524974733 12.99842648975634 6809.56650916671 19.611906884214804 0.2807196365990432
0.8874505214935525 13.00338872486722 5951.13788815555 20.51809319740228 0.2847378817850674
0.912211718623999 13.00887844652937 5207.444766177398 21.4640738559296 0.28882790666076824
0.9372357598250718 13.014776718963525 4562.366391592509 22.45128765335215 0.2929892628539644
0.9625245739324986 13.020986493937732 4001.5357464970652 23.481852451293822 0.29722648525856254
0.9880491385736908 13.027375509330717 3514.1002339145807 24.558148491174105 0.30154531883476016
1.0137984901251447 13.033829720966661 3089.739030316027 25.68206424162296 0.30594698895769296
1.0397650774747156 13.040290101149457 2719.247515789038 26.85567112503826 0.31043356448128007
1.0659234555129953 13.046617751201364 2396.521106168637 28.082015865862083 0.3150133901593688
1.0922595915167976 13.052737907606765 2103.331064255288 29.363089142490338 0.3196864619478943
1.1187628915903842 13.058573261703899 1866.8475214772322 30.701778756627622 0.3244583619675631
1.1453999946085605 13.06403470029534 1650.655839806028 32.101351238675434 0.3293362407145701
1.1721666145506788 13.069033748941637 1460.8966988126447 33.56389202321738 0.3343187270890727
1.1990275150533805 13.073492774859114 1294.396239863761 35.093878329739184 0.3394189401387369
1.2259781135839976 13.07735402999814 1148.059949627533 36.69325120748301 0.3446331321284101
1.252977963220289 13.080521663235734 1019.2781837772872 38.367144795411086 0.3499762414166748
1.2800246721762252 13.082949374541764 905.9259867856598 40.11789358330121 0.355445376613503
1.3070792950703767 13.084553616515814 806.0765142921465 41.950794762642374 0.3610540725893582
1.3341136517098444 13.085235541911617 717.937842555549 43.869520548675496 0.3668053083993177
1.3611241130330576 13.085031061718032 640.0288052069407 45.87857411069101 0.3727057957437641
1.388065056857067 13.083779602722059 571.2522471062392 47.98338674157826 0.3787660220021684
1.414912143265535 13.08144960743792 510.33965523044833 50.18883055328915 0.3849922106288464
1.4416455472196636 13.0780014147274 456.4627516669796 52.49991516854275 0.3913902266579231
1.4682422366586263 13.073389455816042 408.6271321510109 54.92316885237885 0.3979723251508657
1.4946532820012577 13.067513424852661 366.17804363361256 57.46478805122575 0.40474757816393064
1.52086673685444 13.060356535486443 328.5343291105751 60.13140790970134 0.4117257687469788
1.5468523338749796 13.051856916362178 295.0194782464577 62.93014176862965 0.41891744950005283
1.5725698102103083 13.041961388060166 265.1992391171724 65.86862444566663 0.4263340059130228
1.5979841115308162 13.030613466150175 238.66624108658968 68.95505968266842 0.4339877250481539
1.6230939941708626 13.017791821444124 215.01779123165787 72.19827219169737 0.4418918701940306
1.6478350455715647 13.003425520317185 193.89445762286115 75.6077647857145 0.45006076219524105
1.672183359600629 12.987477541783598 175.06545146330387 79.1933087037235 0.45850789556598504
1.6961200030469012 12.969910117629206 158.2015196439952 82.96545902886152 0.46724803741159987
1.7195995141016807 12.950678641016625 143.13560427429226 86.93679697591517 0.4763020337065898
1.7425842480631035 12.929729052200965 129.64966074032057 91.11872291896589 0.4856834844344638
1.7650600819647118 12.907050752606198 117.55476409437351 95.52572277202148 0.4954158504487239
1.7869711281842464 12.882562884854472 106.72376195427039 100.17109178404476 0.5055151428993845
1.8083200962549335 12.856316010334462 96.98910412973441 105.07156915236993 0.5160078582117497
1.8290322721544883 12.828169513447484 88.24175135707807 110.24371836653044 0.526916566098429
1.8491029036270825 12.798169477852154 80.38644114202086 115.70543024243837 0.5382655383032318
1.8684561725469995 12.766183300299929 73.31123947396551 120.89266116822542 0.5487051907849951
