M[M_sun], R[km], Lambda[1], P_c[MeV/fm^3], rho_c[fm^-3]
0.2356318483171165 15.755283335213669 2384982.360833864 3.6131221163010516 0.2535448576535476
0.2448428162958808 15.433372344905258 1970286.787838662 3.8569951255604793 0.27524779729879484
0.2541137494205739 15.143821272641873 1636447.932250298 4.110818625616912 0.29461744842677173
0.2635077233335324 14.880444787950784 1364562.7124551414 4.382355548251648 0.3141441476586393
0.27310076937106675 14.638570796208585 1140412.5824500062 4.6695860925969015 0.332919384062142
0.2829398575073388 14.415463996469372 954752.0908777389 4.968760274580163 0.35018816333003383
0.2930674226674079 14.208726279108523 800379.2749151611 5.285784285045055 0.3671800277988271
0.30353957670129006 14.016641985074262 671333.6894052876 5.620400483847535 0.38364735475779166
0.3143899436379003 13.838084767662023 563320.6769958837 5.965834414757439 0.39855204760023233
0.3256544659789794 13.672227829325774 472847.84904435603 6.32920300744648 0.4130167208113094
0.3373565029705685 13.518147282000639 396917.5712292673 6.710340546522638 0.42691114255862267
0.3495321542427747 13.37526893470843 333243.39647499914 7.109099979403827 0.44016654914294107
0.36220034289006625 13.243051502079787 279877.0529334329 7.522663549694783 0.4526067700028427
0.375381475611811 13.121121972814345 235071.67857994215 7.953055972214251 0.4644652462617248
0.3890946669962673 13.008909681401436 197539.09219968627 8.401987840494433 0.4758783765450642
0.40334903983145637 12.905998004781887 166063.41845204207 8.869647023269376 0.4868408857947305
0.4181561509771527 12.811975178467458 139665.90570013365 9.3563138114525 0.4973608148326267
0.43353063730095537 12.726514732765985 117560.95338426373 9.862361402416175 0.507454732578108
0.4494777427513561 12.649085379931872 99031.53689479167 10.388255107444374 0.5171444255745743
0.4660002416721165 12.579333837849251 83505.005215388 10.934551242612718 0.5264546497062864
0.4831064291225253 12.516819822224189 70471.68137319226 11.501896238330005 0.5354116297508122
0.5007921651537838 12.461141712402656 59541.299668969055 12.091026255350497 0.5440420784355009
0.5190636073625788 12.411981128293494 50373.517479752125 12.702767451635452 0.5523725732864678
0.5379162742920115 12.368902133422832 42664.79537196363 13.338036968790902 0.5604291753498698
0.5573435743721439 12.331421453362962 36183.58851840135 13.997844663756444 0.568237213097925
0.5773483167910305 12.299565615091893 30731.956803340665 14.683295593933918 0.5758211760878622
0.5979096693754593 12.27219990291764 26136.43641000311 15.393508272686724 0.5831447447034898
0.6190436423590366 12.249734839123867 22260.333905677606 16.1299080341275 0.5902446983832736
0.6407227280091955 12.231314434371487 18990.731770589256 16.8954215569297 0.597189902101624
0.6629430181406297 12.217213955572042 16225.035429683147 17.69156716451468 0.6040018009750491
0.6856901233568161 12.20673917674834 13885.5007745791 18.515171726537726 0.6105965442469645
0.7089552909197615 12.199518887209566 11901.113945657104 19.37181886637747 0.617089509218427
0.7327208089196585 12.195321772495278 10216.405229172446 20.2618756032096 0.6234737692645571
0.7569724586737225 12.194129810928144 8785.95838175426 21.184892174904764 0.6297297590555629
0.7816974545930248 12.195199265095365 7566.487925607997 22.145247080946703 0.6359257584971144
0.8068648479938498 12.198815533208187 6527.663699580993 23.141573365189743 0.6420262586740495
0.8324652539970592 12.204564144050702 5640.675113440687 24.17753105332689 0.6480796554552332
0.8584868665209215 12.211884881995696 4882.277054184278 25.255246126997093 0.6541031465524375
0.8848940115297995 12.220943900868493 4232.0087182226525 26.37351855346068 0.6600707015139335
0.9116749524119964 12.231263618328915 3674.699322664259 27.537386383427062 0.6660378044206056
0.9388158539623811 12.242625378716701 3195.870642615136 28.748425453049624 0.6720105550172789
0.9662671515399556 12.255121410736162 2783.829844151637 30.008475793259503 0.6779982261564269
0.9940073780663766 12.268615254851786 2428.9775258434097 31.319397641050518 0.6840099658432959
1.0220160130163536 12.282690522286234 2122.6963985341745 32.68368590412528 0.6900605340541796
1.0502880641274173 12.297167472650084 1857.8731877691146 34.104578436648566 0.6961697253918331
1.0787569633867162 12.312100913173504 1628.7277147182651 35.584423955430005 0.7023473633252059
1.1074250536340837 12.327090843065639 1430.0076968083583 37.12596427852818 0.708582226351944
1.136238181561091 12.342114116014463 1257.4334789731934 38.73291084184094 0.7148530829961532
1.1651678178387914 12.357196237839148 1107.3583833190762 40.408956223188504 0.7212122020786212
1.1942115295981968 12.371890354636422 976.792648967304 42.157784489290584 0.7276778310333788
1.2232952733139137 12.3863209958264 862.7502956191124 43.98105842674029 0.7342501075789464
1.2524333707577442 12.39999772530745 763.316221231971 45.885925151658434 0.7409657093784917
1.2815610848573917 12.41322628542299 676.2871216376054 47.87362184680407 0.7478186696078967
1.310637428929493 12.42578435676033 600.0872621178537 49.95134869566483 0.7548408142390399
1.3396502670836312 12.437410184173402 533.2322796878674 52.12255943465168 0.7620380864919174
1.3685378299703137 12.44811594865657 474.5597697133936 54.3922365661383 0.7694250124216414
1.3973076787991603 12.457848775491543 422.89281746587596 56.76671013542092 0.7770222173552292
1.4258859577595921 12.466367629262724 377.3899745912011 59.25171957148412 0.7848453421536592
1.4542482177633493 12.473783505549553 337.3196211087189 61.85357523912812 0.7929118472508678
1.4823707237059263 12.479773240982121 301.87710481359034 64.57918408364219 0.8012409662251
1.5101976568395354 12.484392459345012 270.55550825593525 67.43534361452856 0.809850180040764
1.5377121580412756 12.487586058778192 242.8260937141982 70.429643033143 0.818759798451401
1.5648312836863327 12.489259064929549 218.23520733921038 73.5718431416642 0.8279990157200379
1.5915978256688617 12.48922990948226 196.4291211187504 76.8685449589408 0.8375813889357427
1.6179146176228838 12.487521973907413 177.0340193063981 80.33126843775815 0.8475417603337728
1.6437781318009363 12.484118427901558 159.75941840630392 83.96975941498552 0.8579058064529315
1.6691122108171783 12.4788743012625 144.38209300281886 87.79476332671251 0.8687027872377748
1.6939222982410707 12.471756367315129 130.65115795191733 91.81809727273196 0.8799656899101207
1.7181349439738134 12.462712322670729 118.38725071583556 96.05271674691957 0.8917313685458181
1.7417609729425192 12.451601735713275 107.4441280442446 100.51279619533534 0.9040407525368086
1.7647508246922303 12.43854378651087 97.63366002560387 105.21254467631098 0.9169346192024401
1.7870445026042148 12.423407015462274 88.84315399194503 110.16874996662442 0.9304629258616395
1.8086218615971978 12.406077802692206 80.9510618516152 115.39764462886126 0.9446738722276525
1.8294609512125566 12.386602554885727 73.86559388884395 120.9188655280444 0.9596275695377864
1.8495015739028104 12.364965312217464 67.48752963589409 126.75265139544432 0.9753865445769575
1.8687593871539647 12.341071101460303 61.74830568999298 132.92048267244485 0.9920184068751032
1.887167634076402 12.314849325538038 56.57938469401406 139.44662900469538 1.0096006004426645
1.90469591870714 12.286348277899188 51.912816600556084 146.35692315254792 1.028216960263906
1.9213084276214438 12.255552421057155 47.699406890465596 153.6796935332773 1.0479606536226047
1.9369945247326745 12.222304564368253 43.89323725391214 161.44542641025996 1.0689337212923378
1.9517138021203766 12.186778286450426 40.44680623480938 169.68780164065598 1.0912500526899147
1.9654609020761837 12.148858592870553 37.32467862394765 178.44322985921053 1.1150348062289017
1.9781965153708598 12.10848645376444 34.4947421627926 187.7519173090955 1.1404273256564565
1.9898964589351311 12.065748577979779 31.930779847730392 197.65712496433977 1.1675805498004128
2.0005097200851587 12.020601569092664 29.596608078760447 208.20686158545783 1.196665151535175
2.0100721200581835 11.972977806640488 27.484811112366717 219.4543588361423 1.2278710106589494
2.0185016531875872 11.923018762937284 25.561271268023646 231.45692326592857 1.2614069865478126
2.025809336652744 11.870626066314577 23.809060294087754 244.2787539028982 1.2975064243800079
2.0319673462512164 11.815863910008156 22.216602758912742 257.98999409257135 1.3364276789621758
2.0369640769357553 11.75868969831116 20.764705605915776 272.66849597265116 1.378458293237335
2.0407787143767178 11.699186497011866 19.442759948861365 288.40023866362964 1.4239179451371076
2.0434041948296473 11.637381358240882 18.23748151941596 305.2803921098705 1.473162466169778
2.0448043315829345 11.573265155972447 17.138565769214946 323.4156237114326 1.5265885364930138
2.044991813760512 11.506908380515943 16.138274183359663 342.9234348484835 1.5846379420612364
