M[M_sun], R[km], Lambda[1], P_c[MeV/fm^3], rho_c[fm^-3]
0.24162668629717493 15.618656898711224 2160425.4255784233 3.5677272577965504 0.1711233750220791
0.25364590714174534 15.27721385524843 1723096.4889726022 3.7848530985182274 0.17388859052116992
0.26604308308197305 14.981207811014409 1382913.5184084796 4.011471894757385 0.17666751198873948
0.278821303566892 14.72338857342859 1116331.8826774524 4.247838697864522 0.17945879565783307
0.2919777310471646 14.498294755387969 905802.167256282 4.494579154757604 0.18226901618017466
0.3055147628401899 14.301112472344359 738520.3557798066 4.751850615499278 0.1850939139791192
0.3194336779371849 14.127987947858005 605010.7332248751 5.020332575414343 0.1879400464466401
0.333734194577544 13.975797717779546 497535.8068184227 5.300252882043771 0.19080411065150524
0.3484179273708995 13.841884762482547 410918.1611819164 5.592335876536739 0.1936923164544984
0.36348388595659203 13.723823664106398 340582.8565822354 5.896754270802884 0.19659982698917877
0.37893898909608453 13.61987127946236 283228.1644460657 6.214369980278442 0.1995342771455288
0.3947741427976604 13.528336266317956 236340.8350475374 6.54543578599212 0.20249176248607764
0.4110025545244855 13.447737752374394 197802.79332294836 6.890663453996983 0.20547615204680056
0.42761365956251274 13.376947438508886 166021.1117523643 7.250754144523099 0.208490445544889
0.44461154271133035 13.314834937230358 139756.12698480385 7.625960324210008 0.21153008488435368
0.46199468063798377 13.260450946028012 117936.52108209718 8.01724410778535 0.21460143361381537
0.4797643226025182 13.213059742221736 99770.4686298533 8.425304831429365 0.21770604341108185
0.49792574172874104 13.171885515948919 84609.80215523309 8.850574701115283 0.2208412557574362
0.5164682700834924 13.136308078334112 71913.60544659129 9.293944470645366 0.22401072359530322
0.5353898762776271 13.105763279858973 61250.4161881093 9.756291294889419 0.22721724932329082
0.5547002411836445 13.079734160897996 52281.53466322151 10.238418165873966 0.23046209368500462
0.5743858139868094 13.057784197270244 44710.26762388951 10.740804883511561 0.2337420639105897
0.5944478206000988 13.03948414058962 38310.67879406745 11.264700343956244 0.23706339237695678
0.6148879427222076 13.024463349873496 32886.13756515543 11.811037879722317 0.2404276329541142
0.6356959751375637 13.01241629904576 28277.902728250847 12.380797118628086 0.24383641970987577
0.6568705921692437 13.003005130151493 24163.96783873692 12.974650078140412 0.24728750898206736
0.6784077667318429 12.995950207439089 21016.615459990862 13.593957912927848 0.2507860678181326
0.7002994114862635 12.99104305023773 18162.212876524503 14.239902851818032 0.2543345494180719
0.7225389492609546 12.987993230103143 15720.89197053273 14.913675395231879 0.25793493995565614
0.745130561239678 12.986643694658222 13626.20584549923 15.616281712357239 0.26158689673045116
0.7680556529492303 12.986756311330524 11829.160018912018 16.34903565398781 0.26529278714769944
0.7913056370670633 12.988140075208255 10214.884684307215 17.11353167359126 0.269057073897394
0.8148837516115293 12.990684799759283 8950.803413237409 17.911225887294204 0.27288219166650496
0.8387714088333605 12.994146438187704 7802.6382485079475 18.743450359459267 0.27676891921605745
0.8629568917450567 12.998424902345903 6809.649431342057 19.61161711006401 0.2807183365651796
0.887441961606842 13.003382778034787 5951.353283387956 20.517781171083282 0.28473651443735715
0.9122030803394954 13.008878003005202 5207.723128090551 21.4637380866951 0.2888264689941405
0.9372282686058243 13.01476704720559 4562.468800643878 22.450929540139125 0.29298777545555627
0.9625152423664471 13.02098425034856 4001.725223151734 23.481467498712107 0.2972249218517476
0.9880413239222253 13.02736324559896 3514.1143339845216 24.55773488660813 0.30154367578016683
1.013788896964443 13.033825908994634 3089.9245924209176 25.68162358640562 0.3059452883843438
1.0397570089739603 13.040286457782106 2719.47323991883 26.85519803040114 0.310431777214931
1.0659123848161918 13.046615518377427 2396.5952381787033 28.08150811641929 0.31501151177339354
1.0922499854854326 13.052737669875238 2114.179005005531 29.36254853820866 0.31968451610441295
1.1187522978013078 13.0585783513988 1866.9162249190633 30.70119884114131 0.32445631627810756
1.1453883419469786 13.064033555151052 1650.7793183367223 32.100733905174636 0.3293341196174663
1.1721554341275724 13.06903581192179 1461.0031071246735 33.56323002802226 0.33431649609701053
1.19901486659414 13.073487475760924 1294.3545834351917 35.093168547143485 0.33941659308011546
1.2259651821503121 13.07735260133531 1148.1128448791562 36.692495697777744 0.3446306949710513
1.2529648808584664 13.080514017420288 1019.3497429863728 38.36634049148639 0.3499737087407218
1.2800118396267606 13.082950796227689 905.983251226463 40.117031340120484 0.3554427091211587
1.3070655657454238 13.084548188519586 806.1103508263333 41.94987664327091 0.3610512969754038
1.3341004167037378 13.085240584766508 717.9497954070733 43.868536255661354 0.3668023825714408
1.361110438476462 13.085029178684215 640.0707382550844 45.877525707097206 0.3727027471285282
1.3880513546297548 13.083777215234187 571.2942617126312 47.9822697477187 0.37876284267707067
1.4148977154175508 13.081448218436377 510.38003413346723 50.1876327162006 0.3849888541573199
1.4416311399449688 13.078003492085003 456.47533082591667 52.49863839039641 0.3913867211035007
1.468227184643246 13.073392534748741 408.652467629034 54.92180747757174 0.39796866057472285
1.494638909987514 13.067516957450465 366.20477253081594 57.46333596593709 0.40474374385873996
1.5208521931096441 13.060359248584854 328.5523536746304 60.12985850085576 0.4117217531737782
1.5468370905081514 13.051860892112577 295.0318377514659 62.928487878765594 0.41891324021885873
1.572556216803211 13.04196683160247 265.22514166906114 65.86685832325226 0.42632958950651206
1.597968923867392 13.030621268977205 238.68605802564522 68.95317292735433 0.4339830870376671
1.6230781757049726 13.017801678115054 215.03139279001175 72.19625569393024 0.4418869949470525
1.6478204183776157 13.003433605077824 193.91014176034412 75.60560866006712 0.4500556328234225
1.6721682816066306 12.987487538614332 175.07733108663342 79.19101347915019 0.4585025408333146
1.696105159777281 12.969921369907688 158.2170900319861 82.96300230193783 0.4672423918602844
1.7195849348856442 12.950690905052886 143.14366202734155 86.93416609443369 0.47629607605445257
1.742568856091317 12.929744516608134 129.65398675447824 91.11591678805252 0.48567724182608124
1.7650454591125433 12.907066728148147 117.56414757684058 95.52271434661964 0.4954092492916435
1.7869562373589678 12.88258290120552 106.72788489309843 100.16787844424286 0.5055082086514988
1.8083056196313336 12.856335158495439 96.99371729761837 105.06813422816809 0.5160005641430072
1.8290097754872703 12.828171161741986 88.24715281852258 110.24004367457486 0.5269088832950465
1.8490886241460085 12.798190337367934 80.39186868937337 115.70148091047916 0.5382573803462137
1.8684614015487038 12.766227486036493 73.31651144346202 121.47224945644646 0.5500738324141962
1.8871353972842004 12.732388843613576 66.94338534578485 127.57379365192023 0.5623880863604455
1.9049046075169118 12.696760293310307 61.2423397794353 134.07204513697647 0.883840590859772
