M[M_sun], R[km], Lambda[1], P_c[MeV/fm^3], rho_c[fm^-3]
0.24162668629717493 15.618656898711224 2160425.4255784233 3.5677272577965504 0.1711233750220791
0.25364165639275627 15.277343245226195 1723220.6492189479 3.7847931433412376 0.17388784320881207
0.26603721773346517 14.981307173484835 1383063.2010255828 4.011345856703807 0.17666598889324456
0.27881078592288894 14.72360354215516 1116528.9247249581 4.247642312556199 0.17945651788420286
0.29196319058799586 14.498522891981946 906003.3412809987 4.494307268569531 0.18226598866436897
0.30549613908476336 14.301362602765352 738771.1095861018 4.751493996264322 0.18509006181076362
0.3194105978546442 14.128274577649098 605192.276907997 5.019888595851288 0.18793543998731305
0.33370684221309843 13.976063461721782 497759.6354479778 5.299709852965966 0.1907986432497399
0.3483859476848301 13.842148204964843 404835.8758331275 5.591692441793793 0.1936860910463576
0.3634461667133249 13.72411596398845 340723.5473115372 5.895995974255952 0.19659270490753733
0.37889777751996756 13.62010901813866 283368.98715260567 6.213487645006843 0.19952623131025263
0.3947264989922945 13.52860407116243 236465.53023793214 6.544430327746113 0.2024829459755677
0.4109491214115001 13.448008520933111 197922.5034765593 6.8895154618634535 0.20546637526405523
0.4275543860591218 13.37716481745746 166130.59496074065 7.249452845361538 0.2084796802304198
0.4445470679569241 13.31504339617494 139849.04831510113 7.624509314362526 0.21151853391297146
0.46192556498209375 13.260675132978752 118022.35451020056 8.015618077407739 0.21458885495425542
0.4796866724133124 13.213252568845192 99843.58401935051 8.423491100372111 0.21769240668908083
0.49784013207909245 13.172077224178915 84671.54111582995 8.848579956626573 0.2208268129550492
0.516375276279793 13.136486272657757 71965.70819090522 9.291736430553184 0.22399517885539902
0.5352909758083076 13.10590692611853 61299.81380132024 9.753854987386427 0.22720056907251263
0.5545936318504804 13.079871521740918 52320.28462616813 10.235744783603993 0.23044433385012295
0.5742717553001038 13.057921652529004 44346.903004797365 10.737891924454736 0.23372336181112308
0.5943266257944548 13.039572275128272 38345.3763821029 11.261511074259484 0.23704346576217744
0.614760514903369 13.024546834836196 32916.98848611282 11.807553457786609 0.24040644185511548
0.6355570233255643 13.012461659834957 28307.090164147125 12.376997527335877 0.24381392204789365
0.6567263258434565 13.003040807123343 24382.35015255931 12.970552765876555 0.2472640904253491
0.6782536952627438 12.99600598900411 21038.3265877932 13.589504694990392 0.25076127349374533
0.7001382699611197 12.991075651842166 18181.71917202414 14.235069849592453 0.2543083301451234
0.7223685014559583 12.988005720938993 15736.953007422308 14.908437195808206 0.25790724362074896
0.7449516509810505 12.986654811954521 13545.101910831943 15.610662380493995 0.2615581744334164
0.7678674359902515 12.98675704618437 11841.642296648257 16.34295908952709 0.26526249699791776
0.7911092013779406 12.988125284469666 10225.948576093188 17.106967377965454 0.2690251539506227
0.8146786328326874 12.990655454242662 8961.579600945783 17.904141339853812 0.27284857599546974
0.8385564489448372 12.994119755374054 7811.633419021045 18.73587698354013 0.276734123472279
0.8627339743447999 12.998379680129558 6818.832973798259 19.603456429813868 0.2806817247395689
0.8872040479603196 13.003332429134206 5959.295588927006 20.508993907341406 0.28469800728515343
0.9119603687260285 13.008813573083751 5214.403015187885 21.454282270472646 0.2887859819273573
0.936975255055571 13.014718140853702 4568.156480068319 22.440844561784743 0.2929458881969881
0.9622494506587853 13.020906245844555 4007.209894028216 23.470626794218646 0.2971808945297125
0.9877702302294921 13.027308344947802 3518.7742182989728 24.54608742721944 0.3014974059533242
1.0135084607341054 13.033754077371078 3094.113164492896 25.669214458995853 0.30589739917180647
1.0394680167425554 13.040214415227839 2723.382470274234 26.84187552513765 0.310381447189023
1.0656168668120227 13.04655088852363 2399.804281619259 28.06720986803663 0.31495861633527117
1.0919404398635997 13.05266752205589 2117.1888185221464 29.347325223624722 0.3196297215190736
1.1184352241539897 13.058503090777974 1869.9028292220369 30.68486870249258 0.32439871065585757
1.1450621762322255 13.06396142422349 1653.1319420842858 32.08335024217614 0.3292743910636254
1.1718210058345113 13.06897610038846 1463.214234856094 33.54458892461982 0.33425367365656616
1.1986712824002148 13.073441595206111 1296.3488693068675 35.07318201732816 0.33935050304437664
1.2256148461476486 13.077307139191404 1149.8837504326336 36.67122174269419 0.34456206848508925
1.252606035568057 13.080473561249903 1020.942073084053 38.343626430040366 0.34990200404428623
1.2796448243376797 13.08291829046173 907.4262215171244 40.09275243263512 0.3553675982924579
1.3066847125570566 13.084514136639928 807.3663993975817 41.92402462321379 0.36097314240220724
1.3337171851438818 13.085231408370529 719.1483390859192 43.840821267634205 0.36671999929388777
1.360722940792508 13.0850379075593 641.1260657862272 45.848005825179676 0.37261690732188485
1.3876508844610174 13.08378865579218 572.25034243448 47.950818878992884 0.3786733233521157
1.414504803223501 13.081503142395118 511.2216064256963 50.153905977862614 0.3848943481197335
1.4412328038018245 13.078080379532835 457.22969106139925 52.462689324611915 0.39128801843780747
1.4678191150352307 13.073471207606694 409.35285331603365 54.88347689955702 0.3978654815523114
1.494224342962181 13.067616254716379 366.837777397659 57.422451796420965 0.40463578712602055
1.5204340185641825 13.060484564392189 329.1067843621161 60.086234611569104 0.41160869397624855
1.5464171937041002 13.052010114966468 295.5433638754375 62.88192282272855 0.4187947284491583
1.57213148359987 13.042143664069041 265.6871748198396 65.81713393703116 0.4262052475575851
1.5975547376667494 13.030830224915725 239.1257548373003 68.90005279089596 0.4338525074399222
1.622643013098063 13.018027478462034 215.419788135069 72.13948343181599 0.44174973776590376
1.6473932396009339 13.003699174663419 194.2608420092132 75.5449060660219 0.44991122279073814
1.6717432747392191 12.987784025489603 175.37788554963078 79.12639542541005 0.4583517876532174
1.6956810989778668 12.97025154484118 158.50129016761733 82.89383831165034 0.467083453212042
1.719153118348522 12.951052334214557 143.41181518488605 86.86010011502648 0.47612835305225043
1.7421504914699826 12.930137440142898 129.89938170455372 91.03691799066449 0.4855014985803049
1.7646345231345852 12.907515845057963 117.77093893748956 95.43802167446056 0.4952234146579717
1.7865605038520675 12.883092212744495 106.91452600455418 100.07741815196624 0.5053129992652745
1.807900736798978 12.856856920907198 97.16918053469269 104.97143721469314 0.5157952278322082
1.8286147288192176 12.828744500788735 88.4078697588978 110.13650384185595 0.5266922550255184
1.8475818224020681 12.799157577010774 80.87507003238221 115.70744184120338 0.7038400435329129
1.8607468991404346 12.76616771805294 75.29785025123988 122.09369172675427 0.9602119444293448
1.868513485196004 12.72692511762675 71.09593751199749 129.36957478457745 1.2136649837703697
1.8716335739822314 12.680678993467746 67.84565811488457 137.58069643700546 1.4648971070840135
