M[M_sun], R[km], Lambda[1], P_c[MeV/fm^3], rho_c[fm^-3]
0.24162668629717493 15.618656898711224 2160425.4255784233 3.5677272577965504 0.1711233750220791
0.2536422234281344 15.277374308304388 1723096.6358745534 3.784806708879973 0.1738880122967082
0.26603772237263235 14.981318282708877 1382986.9883955307 4.011374373994843 0.176666333507877
0.2788119785727456 14.723610587381208 1116488.8439085388 4.24768674619981 0.17945703324750867
0.2919660058870767 14.498474256270017 905916.61176744 4.49436878434788 0.18226667365683796
0.3055007159785206 14.301274803258472 738718.4378914867 4.7515746827011 0.1850909333782732
0.3194156676185647 14.128210956778355 605136.849081237 5.019989047100945 0.18793648220779885
0.3337132739277658 13.976023716489735 497724.87989451987 5.299832713369064 0.19079988025013683
0.34839279011709956 13.842093642376438 411053.2235527735 5.591838017894016 0.19368749953517386
0.3634557743786735 13.7240155823854 340678.3381525727 5.896167536302421 0.19659431625458418
0.3789072973700756 13.620052103436253 283354.56569695997 6.21368726883138 0.19952805163916967
0.3947375330027838 13.528521610079475 236442.69956229994 6.544657805880796 0.20248494065150097
0.41096167415388835 13.447919968232048 197906.97211644688 6.889775185328739 0.2054685871780743
0.4275678400851371 13.37713312483012 166105.35769865493 7.2497472509874665 0.20848211577271342
0.44456159764061076 13.31500799019974 139829.2087252838 7.62483758825191 0.21152114718421036
0.46194137704973803 13.260618330751777 118003.0997880201 8.015985944863546 0.21459170070643416
0.4797040050607165 13.213220847172408 99833.15932574806 8.423901429504065 0.2176954917905235
0.49785995266547683 13.172027339546887 84661.07992416807 8.849031234331434 0.22083008039844854
0.5163962361485809 13.136449321154 71950.40977700736 9.292235959143516 0.22399869556781693
0.5353133540887106 13.105876703370248 61288.3979295223 9.754406153233845 0.22720434264565312
0.5546180419632708 13.079858777467846 52311.25804226108 10.236351178825236 0.23044837220574088
0.5742985133737523 13.057884113355641 44337.23019593077 10.738550914186348 0.2337275927293295
0.5943532803739701 13.039548761206829 38336.26216652841 11.262232567641489 0.23704797366588456
0.6147885711915528 13.024542670223184 32910.22253205512 11.808341716330398 0.24041123578224205
0.6355889510556045 13.012440800639581 28301.123474130545 12.37785707838677 0.2438190115134472
0.6567589929477634 13.003043398199148 24377.378866102223 12.971479662288068 0.24726938818514557
0.6782885179928911 12.995985818994356 21032.940073186903 13.59051209730785 0.2507668824399497
0.7001750378323165 12.991056427296224 18041.076024926842 14.236163158400464 0.2543142613987658
0.7224070665676804 12.987998719920608 15734.341776456602 14.90962215864984 0.2579135089659678
0.7449917696313952 12.986657113475003 13637.973372359294 15.611933553844436 0.2615646718283813
0.7679103504852994 12.986753947446998 11839.189187591985 16.344333685472844 0.2652693490139468
0.79115214255607 12.988137356574622 10292.020715850966 17.108452294086636 0.2690323745948852
0.8147262078151569 12.990654945336377 8959.06421868643 17.905743930980172 0.27285618017577357
0.8386041208051218 12.994125633577088 7809.863005678147 18.737590142036748 0.27674199454915893
0.8627841285042824 12.998393596235077 6816.714777505983 19.605302427726723 0.2806900065679939
0.8872562377768147 13.003336736259628 5956.986820646294 20.510981627774914 0.284706717784294
0.9120145110996403 13.008837005474325 5212.898921188771 21.456421204756122 0.2887951402245516
0.9370328473353609 13.014734433630457 4566.790614710367 22.443125800720978 0.2929553631647887
0.9623091438193793 13.020918755813268 4006.1986590905567 23.47307896128872 0.29719085350879393
0.9878321996091032 13.02731836645966 3517.8010743027567 24.548722062326103 0.30150787210788293
1.013571421506918 13.033770292221174 3093.2423102759394 25.672021364924404 0.30590823156236435
1.0395325524372063 13.040227007199771 2722.430881493457 26.84488901120368 0.31039283159674336
1.0656819330162044 13.046554065430113 2399.223955176702 28.070444037452766 0.3149705809342661
1.0920096456239883 13.052687792372108 2116.447770420026 29.35076861533663 0.3196421156149832
1.1185072899686055 13.058520753417985 1869.2772140261245 30.688562419851486 0.324411740483188
1.1451345343772186 13.063980981905145 1652.7420872234416 32.08728223127017 0.32928790099086713
1.1718966293854183 13.06898911985437 1462.6582373392926 33.548805298704984 0.3342678832719595
1.1987505150543065 13.073445723671476 1295.926156862146 35.07770267250808 0.33936545162550424
1.2256939451477586 13.077317760931273 1149.5353994917741 36.676033562323724 0.3445775906703605
1.2526878742102472 13.08048822624677 1020.5821220091134 38.348784765788075 0.3499183445211153
1.2797271829249388 13.082932363891894 907.0553387391973 40.09824383986438 0.35538458687186464
1.306769059076058 13.084523904560381 807.0687801925928 41.92987179666249 0.36099081929338556
1.3338036697566118 13.08522893777966 718.8161554907061 43.84708975017105 0.36673863246580773
1.3608113960328274 13.0850335055739 640.8960624935764 45.85468248452938 0.37263632214031817
1.3877406578200182 13.083783272193914 572.0452443645227 47.957932227202555 0.37869357023735917
1.4145955576575182 13.081495998467618 511.03054036528175 50.16153399789605 0.38491572267249236
1.4413177454332537 13.07804809069642 457.07906179894235 52.47081990948471 0.3913103419776013
1.467909982127956 13.073455507905873 409.1889226092172 54.89214604275857 0.39788881732669856
1.4943192681962836 13.067594652690078 366.70089698617744 57.431698406575244 0.4046602032712621
1.5205295366273406 13.06045613947373 328.98381438775976 60.09610077339594 0.4116342639187062
1.546511765965069 13.05197680771772 295.41800993089663 62.89245408404088 0.4188215313464706
1.572227957137788 13.042102482590202 265.58037146745437 65.82837962466571 0.4262333687838841
1.5976509766944689 13.030785122471785 239.0283093295874 68.91206635883023 0.43388203911986367
1.622731892480277 13.017942776757993 215.34050805300927 72.15232284512174 0.44178077936284427
1.647490021044754 13.00363970279998 194.1855224668824 75.55863422476038 0.44994388175504274
1.6718390426540537 12.987714435952737 175.31396493947815 79.14100896949346 0.45838588088437415
1.6957766165071306 12.97017549568491 158.4360999995097 82.9094797823949 0.4671193972662576
1.7192414805067289 12.950940347581126 143.34762167691673 86.876850009599 0.4761662833223523
1.7422445907961601 12.930047191189173 129.83692905166046 91.05478328187075 0.48554124227726153
1.764724897828041 12.90740706927808 117.73161414793456 95.45717441820128 0.4952654400543387
1.786652316206596 12.882984635884535 106.86750049646189 100.09787502363248 0.505357144306834
1.8079924800257858 12.856739790401937 97.13021227336658 104.99330426661041 0.5158416625627897
1.8287049040686831 12.828618331716129 88.3712422748313 110.15998924522451 0.5267415076372112
1.8487861802570915 12.798664782928027 80.50022026011688 115.61544644842374 0.5380796628358177
1.8681747224585716 12.766772082394395 73.4151098461214 121.38007648643558 0.5498862020248791
1.8868481364017142 12.732933912973568 67.03929985609723 127.47518337382525 0.5621905187214894
1.904773594829106 12.697132727768343 61.28704492111961 133.92330718417315 0.5750222986711063
1.92191912201307 12.659334002958582 56.099415400189265 140.74987254073545 0.5884169631833368
1.9382359130947617 12.619458641857975 51.41389113498706 147.98265845541474 0.6024131878944261
1.9537475721405317 12.577667994418853 47.184233254005356 155.6502868759795 0.6170472059524784
1.9683572517620052 12.533721041976591 43.358309051378534 163.78623868867706 0.6323660952019023
1.9820796843999353 12.48773887630694 39.89767152301961 172.42411252797714 0.6484108892180972
1.994873480173609 12.439680156037767 36.762069943840466 181.60345689197774 0.6652356937699714
2.006707147787487 12.389521843044985 33.91898820573852 191.36609577483975 0.6828943954771886
2.0175677417948013 12.33728241864915 31.342992030585293 201.7580232292577 0.7014461753219089
2.02740958076625 12.28291507210808 29.00434006750703 212.82930659969406 0.7209541832434612
2.0362270006895833 12.226467785453474 26.882021154679773 224.63506112114396 0.7414876293745546
2.0439781972174855 12.167894213199125 24.952720679534334 237.23672448145055 0.7631246546316649
2.0506446734780335 12.107209900162253 23.197992703459533 250.70085098381378 0.7859469604667978
2.056219948333051 12.044461204157383 21.602778089483394 265.1005763589805 0.8100429622513534
2.0606807132076423 11.979653577036736 20.150564879948455 280.5177929187321 0.8355130046963875
2.0640005062542652 11.912791874879437 18.83024624052875 297.0417324885393 0.8624626098598797
2.0661632935609964 11.843898411906924 17.625732080477416 314.77285775501974 0.8910127409867193
2.067165470296605 11.773027732611462 16.530137918715596 333.8206476782961 0.9212897307409118
