M[M_sun], R[km], Lambda[1], P_c[MeV/fm^3], rho_c[fm^-3]
0.24162668629717493 15.618656898711224 2160425.4255784233 3.5677272577965504 0.1711233750220791
0.2536389791901381 15.277443308736922 1723332.042186179 3.7847444093658047 0.17388723576331835
0.26603184094131066 14.981427013048174 1383193.6200696058 4.0112434099997865 0.17666475088528638
0.27880111041881706 14.723784225650363 1116703.4577442068 4.247482689084698 0.17945466649248087
0.2919514756546727 14.498693934960844 906159.949366289 4.494086281647153 0.1822635279236999
0.30548097196501306 14.301557844557628 738919.8164253305 4.751204144634812 0.18508693085997477
0.3193932478570355 14.128439908210902 605289.32005674 5.019527746460706 0.1879316960356107
0.333684492080072 13.97632626341693 497935.6180148275 5.29926850833369 0.1907941996416161
0.34835983400548265 13.842364751725384 411216.75218204164 5.591169502117028 0.19368103146112914
0.3634153745140377 13.724340383274996 340855.2742391233 5.895379694190751 0.1965869166747462
0.3788612839115956 13.620367177226253 283482.29357004893 6.2127705698170255 0.19951969244793624
0.3946873566093378 13.528799368154019 236556.84737563002 6.543613204054023 0.2024757809046681
0.410905662299233 13.448183078029306 198014.28594589405 6.888582519431649 0.2054584299348119
0.42750720805041675 13.377362542906237 166229.04449286137 7.248395333366988 0.208470931704706
0.44449300184397006 13.315242761226417 139924.1219982954 7.623330157604931 0.21150914706698568
0.46186731143598325 13.260843752499088 118083.70324178472 8.014296714274893 0.21457863314214667
0.4796234720426756 13.213401924674011 99914.37689938916 8.422017231653447 0.21768132525674713
0.49777201573860463 13.17221278485855 84726.61611934307 8.846959018300831 0.22081507666899716
0.5163010884682148 13.136611931331409 72012.32782196524 9.289942198320865 0.22398254734862613
0.5352108132478772 13.106028296055586 61339.99114369526 9.751875301403317 0.2271870150943634
0.5545077088848274 13.07998050488474 52359.878943610296 10.233566745387924 0.23042982896525938
0.5741779691980193 13.057996345905991 44780.417260637885 10.735524998371895 0.23370816541248932
0.594231256223703 13.039657766785279 38373.25064390411 11.258919676046807 0.23702727465924991
0.6146548048973783 13.024614699547266 32942.749897867165 11.804722285816917 0.24038922360583362
0.635447237585076 13.012519184848713 28330.93525997898 12.373910325655272 0.24379564249766325
0.6566081064185556 13.00310701324931 24403.08781393661 12.967223710933647 0.24724506291243867
0.6781281532766847 12.996039249508105 21055.557193294175 13.585886528974871 0.25074112851473557
0.7000062352678196 12.991098501191757 18197.29566773204 14.231143181709484 0.25428702778021717
0.7222300874927825 12.988027228685926 15752.415971456885 14.904181389752383 0.2578847415698936
0.7448069504250658 12.986646661321577 13653.772971015569 15.60609698528727 0.26153483916146597
0.7677154881800327 12.98675194632111 11853.132111904757 16.338022302069813 0.2652378883506323
0.790948837743187 12.988111299186578 10304.513641577438 17.101634433599518 0.2689992216480576
0.8145118078891486 12.990627704416198 8970.973794458385 17.898385832556475 0.27282126652488237
0.8383806830975902 12.994096563440587 7819.10903850314 18.7297244365166 0.2767058557021192
0.862551177126505 12.998348425447034 6825.481655788699 19.596826875617356 0.28065198211093023
0.8870133541552657 13.003282511892971 5965.30303970466 20.501855454058685 0.2846667254760339
0.9117626520139641 13.008771379476551 5219.772827281443 21.446600842980796 0.2887530922792787
0.9367701827342896 13.01465773589176 4573.364472816335 22.43265215023826 0.29291186158347576
0.9620363857417553 13.020855574268463 4011.313881951208 23.46182063219803 0.29714513008918114
0.9875498428762629 13.027257645478766 3522.700304980626 24.53662608640916 0.3014598205377943
1.0132847539332395 13.033707050356652 3097.666320278927 25.659134552460667 0.3058584988712068
1.0392316155424959 13.040162187213864 2726.410926745371 26.83105387799405 0.3103405649547636
1.0653748193373707 13.046492565675381 2402.635487355267 28.055595851531326 0.31491565103805663
1.0916905167820397 13.052614705640165 2119.68143516157 29.33495998646477 0.31958521425759207
1.1181770935270376 13.058455602449655 1872.1776645689097 30.671604684849893 0.32435192097413607
1.1447975061649875 13.063912145359312 1655.1699629654504 32.06917005842475 0.3292254853547969
1.1715490267864697 13.068932025457576 1464.917926514706 33.52944835719523 0.33420264838328745
1.1983981829829533 13.073411625904505 1297.993712466838 35.05694898496679 0.3392968248071426
1.2253298084016804 13.077274958421153 1151.3667289197735 36.65394333408021 0.3445063310135407
1.252315027487238 13.080442564718458 1022.24145219222 38.32510394949025 0.34984332888643493
1.2793462308133134 13.082896550117816 908.5737405236333 40.07303414463341 0.35530659649683505
1.3063810192230367 13.084508155812575 808.4188289444967 41.90302906237975 0.3609096696409924
1.3334082721554605 13.085232415429429 720.0432858155939 43.81831316605278 0.36665309357565484
1.3604078053783906 13.08504672723849 642.0327996141125 45.824032323481525 0.3725471956355007
1.3873315381972675 13.083807189260664 573.0163407267963 47.925277634410776 0.37860062472514183
1.4141785274471441 13.08154169978609 511.92137414814255 50.126517082134384 0.3848176014155843
1.4409032287122567 13.078127349892991 457.8681142286959 52.433496235540446 0.3912078651529225
1.467484414123677 13.073538608902757 409.9111937199008 54.85235042616697 0.39778169468391955
1.4938888378748878 13.06769801961216 367.34742407305237 57.38925228667726 0.4045481221289756
1.520095917117775 13.060585847777642 329.57834454783426 60.050811016127014 0.4115168873230641
1.5460751508869355 13.052133213039955 295.9604751258966 62.844111665298605 0.4186984960473788
1.5717881115114467 13.042284105969369 266.06341373990034 65.77675818096442 0.42610428300919595
1.5972045156125843 13.030984825026096 239.4558455873255 68.8569205903286 0.4337464801256974
1.6222955293438408 13.018214198414993 215.72958356334448 72.09338675428097 0.4416382907355556
1.647046697551369 13.003911731316087 194.54421826839115 75.49561917181325 0.44979397043743213
1.6714015956600936 12.988023414911043 175.64355945818397 79.07381737882315 0.458228915338347
1.695335839874984 12.970520861276695 158.74096251465903 82.8376835372872 0.46695440970410473
1.7188017532206876 12.951315360200462 143.61737617432183 86.79996675234237 0.47599218057194825
1.7418169360047397 12.93048623730073 130.09310671678122 90.97278100234372 0.48535881738926795
1.764297262640928 12.907878485988938 117.95812990209504 95.36926363583422 0.49507254416830154
1.7862262706474867 12.88348766851922 107.07986841442438 100.00397920670602 0.5051545212074614
1.8075709128480126 12.857280832051465 97.31081088056656 104.8929367912462 0.5156285320184754
1.8283020949624165 12.82922897870575 88.54809601764129 110.05219496131843 0.5265154459458445
1.8483807938955297 12.799298978764602 80.65717681083068 115.50005635551017 0.5378413067219181
1.8677783263186043 12.767458104554795 73.55789513844401 121.2564563546286 0.5496345567382446
1.8864610186962967 12.733673805043429 67.16539456812917 127.34263957514719 0.5619245043751281
1.9043978298214592 12.697919529715117 61.40261561039578 133.7815675865227 0.5747424606955899
1.9215377356741719 12.66011724724261 56.21006832625934 140.59763691582103 0.5881203502937212
1.9378930133274774 12.620385379029845 51.51537984917257 147.81901573606052 0.6020984129820153
1.9534022825812183 12.578591480696964 47.27593004393294 155.47477498861895 0.6167145933569426
1.968038915870228 12.534731545447647 43.442071972320946 163.59726758119544 0.6320122957011907
1.9817781438812734 12.48881246021398 39.97305820073712 172.22100260488213 0.6480358689526817
1.9945867262313688 12.440810660329399 36.83181391779323 181.3849451432193 0.6648376715897709
2.006444199840272 12.390720858490612 33.983647679211415 191.1307641766669 0.6824713370407752
2.017329275491484 12.338561375578118 31.402241784403184 201.5043075973402 0.7009958551022386
2.0271867831416075 12.28424141422369 29.0591571085616 212.55606607065724 0.7204760846583089
2.0360102762292103 12.227839298400813 26.930824970575788 224.50858417040334 0.7558022383307862
2.0428334976767726 12.170926772868071 25.111647971626667 237.25220225485214 0.9901817181002678
2.0464197499742713 12.11273478219546 23.638349057285733 251.6718584505894 1.2367395065079816
2.046706450680645 12.05165778049715 22.439856980480254 267.75070730767163 1.4934271622444668
