M[M_sun], R[km], Lambda[1], P_c[MeV/fm^3], rho_c[fm^-3]
0.24162668629717493 15.618656898711224 2160425.4255784233 3.5677272577965504 0.1711233750220791
0.25364455597456675 15.277276187240753 1723144.4121482994 3.7848432038613775 0.17388846718904563
0.2660421520921836 14.981218634211668 1382897.8999852205 4.011451093968294 0.1766672606234791
0.2788190991245186 14.723443333035954 1116358.6604234234 4.247806286967283 0.17945841974026724
0.2919745880344865 14.498352020374554 905830.2779216318 4.494534283004114 0.18226851652278536
0.30551172845248614 14.301141063349004 738577.4023221607 4.751791758983467 0.18509327821641908
0.31942950011269755 14.128057526528142 605029.2709760476 5.020259300310505 0.1879392861891562
0.333730104486319 13.975889161373194 497625.69017642626 5.300163258865561 0.1908032082948124
0.3484126182871408 13.841929610173938 410940.5194228836 5.592229681236191 0.19369128898575227
0.3634778167806863 13.723872448498229 340628.49093936774 5.89662911713708 0.1965986515194642
0.3789320626631337 13.61993039715283 283252.1011498171 6.214224353307886 0.1995329492029036
0.39476696072256806 13.528358914670196 236370.80033666937 6.545269836635155 0.20249030733440365
0.41099368727979185 13.447780070408314 197815.05617557338 6.890473978065155 0.20547453839025462
0.4276037089912065 13.37697280576474 166049.52691481725 7.250539363516389 0.20848866871666416
0.44460183522411956 13.314835003541509 139764.9382852869 7.625720831503121 0.21152817836841353
0.4619825312158909 13.260498249988732 117948.72941794885 8.016975725335488 0.21459935745858777
0.4797519865691913 13.21308388430756 99790.66285414924 8.42500546585518 0.21770379260046938
0.49791172327843364 13.171915279596444 84620.78606642093 8.850245456012118 0.22083887188221368
0.5164526147101943 13.136337364962586 71919.62227533082 9.293580016857822 0.22400815781791786
0.5353722629265981 13.105800725429772 61257.84379343599 9.755889160635999 0.22721449609932984
0.5546838408987456 13.07974700769119 52289.8633432146 10.237980032113024 0.2304592025557349
0.5743672131268133 13.057802329247108 44715.9660057828 10.740324066590684 0.23373897691701923
0.5944273733373807 13.039513441929245 38316.49620558048 11.264173914696263 0.237060103237414
0.6148680792747212 13.024464709117693 32891.914753358775 11.810462727343594 0.240424135068031
0.63567411192718 13.012422301401243 28281.367007959616 12.380169938239645 0.24383270612825714
0.6568471278359476 13.002994677003407 24361.863779690397 12.973973749912258 0.24728364336725667
0.6783822371575 12.995958346379494 21020.49936929755 13.593222830925628 0.2507819750784845
0.700272811191111 12.991043194437685 18165.273051975 14.239105073502879 0.2543302214317766
0.7225098795927214 12.988005153255514 15723.89904044163 14.912810724701469 0.25793036811662184
0.745099383050563 12.986659519677575 13628.39488237275 15.615354122222543 0.2615821555049775
0.7680244536255836 12.986758739762887 11831.341429694814 16.348032580049413 0.26528778707569617
0.7912730659744898 12.988142583190735 10285.904191943146 17.112448080126963 0.2690518047493127
0.8148488088939186 12.990679066687402 8952.144148953243 17.91005640465704 0.27287664255501365
0.8387368257731519 12.994142096077713 7804.524213264512 18.742200175347595 0.27676317526692695
0.8629180477804032 12.998422162623193 6768.711663896115 19.610269965322182 0.28071229277632276
0.8874031661718588 13.003372394169874 5952.618055915524 20.51633057995803 0.28473015772212856
0.9121629768211497 13.00886230440259 5208.714890530247 21.46217711922073 0.28881978538345116
0.9371860413898949 13.014758319136492 4563.028379710775 22.44926469968219 0.29298086065611456
0.962473203869557 13.020979898387289 4002.631316877187 23.479677887595404 0.2972176537092574
0.9879969779621802 13.027358952707665 3514.869418346898 24.555812078669312 0.3015360373770257
1.0137426636568647 13.033813747612635 3090.6504141655682 25.679575025830474 0.30593738259455383
1.0397080233401697 13.040276848089151 2720.0763500650114 26.852998666682172 0.31042346841483914
1.0658635722597312 13.046599387956457 2396.9930355215906 28.079147651140193 0.3150027793859172
1.092199436340964 13.05272677210442 2114.7310113138005 29.360035338868588 0.319675470129901
1.1187001475669727 13.05855740843075 1867.4266818792344 30.69850289459998 0.32444680615199
1.1453335375030926 13.064021646796924 1651.06699554033 32.097864012239036 0.32932425894801265
1.1720998561850533 13.06902432013749 1461.2672206587285 33.56015251582842 0.33430612456361253
1.1989582833364576 13.073480461994725 1294.7162271521856 35.08986888575254 0.3394056819944358
1.2259077111230212 13.077350877031165 1148.4522978956604 36.68898346469553 0.3446193650508101
1.2529062210831776 13.080511086976315 1019.6154383178907 38.36260142910295 0.3499619347917274
1.2799503722245977 13.082942554890177 906.2010577250448 40.11302293745982 0.3554303084624474
1.3070031752721532 13.084551576707822 806.3136649891895 41.94560849063723 0.3610383937033699
1.334036518577076 13.085240095517184 718.1321107917306 43.86396048533579 0.36678878101561907
1.3610465111313894 13.085029969231753 640.2443660867937 45.87265190930928 0.3726885747866163
1.3879856842148843 13.083781722239367 571.4372387151872 47.977077098721004 0.37874806272179967
1.4148315070002266 13.081456176716088 510.5524675635519 50.182064258616464 0.3849732507255124
1.4415641947193991 13.07801086306233 456.60200971215784 52.492702966450565 0.3913704246531566
1.4681590860638978 13.073408050049608 408.7569545354338 54.91547879752691 0.3979516249062305
1.4945703873301868 13.067536037573358 366.301476743665 57.45658561014228 0.4047259192003226
1.5207832909973942 13.060382031287112 328.64722111420036 60.1226557290082 0.41170308588806864
1.5467676526048364 13.051886663174088 295.10625866620757 62.92079942013623 0.4188936724803874
1.5724851654865595 13.041995755495156 265.2965629623878 65.85864814575513 0.4263090589469896
1.5978989691356593 13.030654354677885 238.76505690741536 68.94440198308021 0.4339615263555695
1.6230073792583082 13.017841529045985 215.0917398789318 72.18688163847521 0.4418643314776086
1.6477498388962921 13.00347833999961 193.96857216306782 75.59558554265286 0.45003178806462496
1.6720979676811558 12.987534211388608 175.12492291682364 79.18034375808135 0.45847764849613054
1.6960348595541286 12.969973784135705 158.26093178169887 82.95158183936667 0.46721614767055764
1.7195143837298286 12.950751337606494 143.18811438410145 86.92193607928179 0.4762683810874155
1.7424962963173984 12.929804549426985 129.69626763164644 91.10287213047432 0.4856482222645356
1.7649771867721122 12.907138500582931 117.59895633579916 95.50872933450248 0.495378563052357
1.786888222324856 12.882662636955933 106.75624218712889 100.15294089894319 0.5054759740767891
1.8082388947345038 12.85642205292533 97.02278862767353 105.05216666334604 0.5159666569856383
1.8289437143193843 12.828266404380452 88.2759054308955 110.22296156978194 0.526873169157897
1.8490247055504199 12.79828978601475 80.4157111891611 115.68312217345591 0.5382194575306368
1.8683961912387028 12.766338559153246 73.33450027279913 121.45258067538948 0.5500337939837683
1.8870719102705722 12.732505987207304 66.96415966867133 127.55277916900833 0.5623460275366927
1.9049931968007632 12.696672906638579 61.21657878038326 134.0064421623911 0.5751864329312901
1.9221310921001413 12.658838262551042 56.03743445749019 140.8391659421291 0.5885909406858161
1.9384416117404726 12.618931638428235 51.35649547067758 148.0786450487873 0.602597822882409
1.9539336126540288 12.577073120864103 47.13400269881646 155.75323783696356 0.6172423083290798
1.968545402400145 12.533129328830082 43.31376468688936 163.89677793814727 0.6325725834385578
1.982255528235644 12.487109700257784 39.85474284429777 172.5432579367014 0.648630878188217
1.9950382649324505 12.439010777918316 36.72269559957567 181.73164039723338 0.6654691818021594
2.006870845588018 12.388834401121299 33.882693708020696 191.5041498415013 0.6831425769285355
2.017712415646916 12.336544238059266 31.309085223108383 201.90686616689305 0.7017103568540665
2.0275423894857423 12.282143721821738 28.973417356497666 212.98957713449568 0.7212345669554151
2.0363444473337657 12.225653240855719 26.85313303470023 224.80824281543676 0.741786978056011
2.0440822530648837 12.167040754803132 24.927495158533908 237.42366108797867 0.7634433987180845
2.0507341226885085 12.10631245834757 23.17329741831654 250.90298037961418 0.7862872045079973
2.0562998213539707 12.043544831134872 21.580646769002062 265.31954678654023 0.810407195473842
2.060739088749757 11.978675482232509 20.130654085847365 280.7547078259585 0.8359016002857005
2.0640373139370585 11.911758129973263 18.809818135675865 297.2987684729416 0.8628790542106056
2.066184916622699 11.842832931425722 17.60912795340149 315.05207898883975 0.8914597192634752
2.0671714229516334 11.77192792694912 16.514127593836214 334.1238959047146 0.9217686870912424
