M[M_sun], R[km], Lambda[1], P_c[MeV/fm^3], rho_c[fm^-3]
0.24162668629717493 15.618656898711224 2160425.4255784233 3.5677272577965504 0.1711233750220791
0.2536442526992129 15.277263343168146 1723169.139235342 3.7848254231533445 0.1738882455610977
0.2660405866491497 14.98125291097753 1382921.020073553 4.011413715123839 0.17666680892220335
0.27881663388172645 14.723473282644125 1116417.8209411388 4.247748045147161 0.1794577442229224
0.2919709983545627 14.49836850476513 905856.6868043913 4.494453649635266 0.1822676186515092
0.30550624374043067 14.301219134678608 738651.4551399646 4.751685995885763 0.18509213577311198
0.31942286427596106 14.128124631589273 605085.6208292764 5.02012762813154 0.18793792003947865
0.33372157224521687 13.975953470435213 497654.9752172743 5.300002210684426 0.19080158680685563
0.348403043235264 13.842010416191746 410996.200011498 5.592038854673692 0.19368944268626553
0.3634666183976236 13.723952776781788 340640.1300880894 5.896404224594272 0.19659653928110982
0.37891977242334896 13.620019560996305 283311.4013217651 6.2139626728676065 0.199530562992372
0.3947522201596319 13.528453346763394 236406.72722648762 6.544971639708317 0.2024876925501996
0.41097820822813286 13.447846441564833 197867.21318317423 6.890133507440453 0.20547163879954172
0.4275864117741193 13.37703625884248 166071.1940413596 7.250153423786987 0.20848547593619068
0.44458201316648577 13.314941273046937 139798.66159199973 7.625290489107841 0.21152475256623787
0.4619635528988705 13.260555396841681 117977.25025112926 8.016493473372615 0.214595626849771
0.47972904135750893 13.213135491906067 99807.62541335514 8.424467543234224 0.21769974817436183
0.4978861437529529 13.171998557813744 84640.18398799557 8.849653845924383 0.22083458837240294
0.5164246670553353 13.13639575415159 71933.24779473251 9.292925144288121 0.22400354747420062
0.5353439089383738 13.10583432592107 61274.16223003403 9.755166584705275 0.2272095489620264
0.5546504480175412 13.079803448901112 52302.16915532752 10.237187813332596 0.23045394386518772
0.5743339103686397 13.057862035984398 44326.52361014804 10.739460116550449 0.23373343009014266
0.5943916261671629 13.039535834379528 38324.28392519694 11.263228010786912 0.23705419321267102
0.6148286237633237 13.024497082008274 32899.50092838034 11.809429280753742 0.24041784998849716
0.6356337357051366 13.01242706952395 28058.93706659526 12.379043011449392 0.24382603351111076
0.6568044156081961 13.003010885409413 24369.362542406558 12.97275851800463 0.24727669760000195
0.678336788961925 12.995978797992976 20864.42691181169 13.591902035471476 0.25077462124325806
0.7002250597652772 12.991062442958983 18171.14917800779 14.237671631494871 0.254322444938924
0.722456980953039 12.988013813556424 15728.487162730693 14.911257097989079 0.25792215350654946
0.7450477812261596 12.98664886176453 13632.741665649544 15.61368744849672 0.26157363657443944
0.7679691168113859 12.986754524659052 11835.655407181679 16.346230286467282 0.2652788030942201
0.7912141129421135 12.988145998880503 10288.127667829938 17.110501119889808 0.26904233734097543
0.8147896777818182 12.990668647358541 8955.870173895237 17.907955131113745 0.272866672162299
0.8386728479057101 12.994130832687055 7806.887942988809 18.739953909036565 0.2767528548354772
0.8628521702019801 12.99840396449098 6813.966935592989 19.607849495747196 0.28070143365585004
0.8873338602631048 13.003366259808704 5954.823249337512 20.513724255539806 0.2847187364044109
0.9120910902264833 13.008854464175391 5210.826341264314 21.459372490426926 0.2888077767751401
0.9371110061322766 13.014741657374742 4564.890945502434 22.446273450475115 0.2929684367098674
0.9623954423459207 13.020947345899739 4004.2245883082974 23.476462475046453 0.297204594963504
0.9879166805150569 13.027333105084848 3516.313405861393 24.55235736559766 0.30152231344202135
1.013658691394461 13.033794057276225 3091.5542495619934 25.675894386158546 0.30592317829720866
1.0396251648378156 13.040247581577384 2721.237995443469 26.84904709773099 0.3104085400988988
1.0657745783336918 13.04657912390075 2397.921874743378 28.07490665262051 0.31498709008826536
1.0921077493216673 13.05269968476268 2115.624253325685 29.355519943137597 0.3196592174777365
1.1186060728043796 13.05853788870987 1868.4375840263658 30.693659184779126 0.3244297196517324
1.1452370719622207 13.06399587053658 1651.9716724424984 32.09270779888682 0.329306542706801
1.1720003172248754 13.06901239965777 1461.9243921007105 33.554623308384535 0.33428749056444146
1.1988575194445468 13.07346785603573 1295.3799313776528 35.08394058308011 0.3393860787046646
1.2258030284406998 13.077331566479247 1148.9440857774077 36.682673272284596 0.34459900934688925
1.252799563620041 13.08049545658625 1020.0909046990358 38.35588373478104 0.3499407814163098
1.279843420501538 13.08293716396393 906.6370634836823 40.10582137581164 0.3554080292365942
1.3068859060338678 13.08452669004618 806.683552043587 41.937940289739835 0.36101521157032973
1.3339239974337729 13.085233993309796 718.5384636966995 43.85573965830818 0.3667643444661944
1.3609323136230311 13.085035041798925 640.5578728143898 45.86389568382312 0.3726631128723459
1.3878633570948369 13.083772626799371 571.7547960781382 47.967748068493115 0.3787215092902946
1.414720078661612 13.081481306805292 510.7611232529078 50.17206011084285 0.3849452180009709
1.441443367981338 13.078031724852904 456.82577227989674 52.48203958472116 0.3913411470021515
1.46803840144152 13.073429834692936 408.9782458232052 54.90410895783937 0.3979210193426127
1.49444762198254 13.067564301338386 366.4936080049874 57.44445826290759 0.40469389632204217
1.5206600486914723 13.060415842147043 328.7995603750263 60.10971565649694 0.4116695493502216
1.5466435226907331 13.051929213743009 295.26678341884696 62.90698685974129 0.41885851841603505
1.572359797691513 13.042048355414234 265.4307650517031 65.84389837526184 0.42627217533014206
1.5977838831200872 13.030720865401866 238.8929934816155 68.92864486367527 0.43392279230007386
1.622870852249316 13.017896345477192 215.2088912736129 72.17004111069794 0.4418236164649301
1.6476225974830965 13.00355818887553 194.07455088015163 75.57757906989822 0.44998895109266474
1.6719717121901119 12.987624367395986 175.20529383181446 79.16117575407365 0.4584329297620768
1.695908410804209 12.970071115531251 158.3512268925356 82.9310652553331 0.4671690006202025
1.719389144711476 12.950859764011037 143.26280881586968 86.89996528156212 0.47621862804041853
1.7423698392818427 12.929911788005516 129.76942384732556 91.07943797462795 0.4855960898935801
1.764854062892604 12.907270565228854 117.66711816642585 95.48360602673948 0.49532343690536296
1.786780179090334 12.882832653624305 106.81356738264164 100.12610656231777 0.5054180667425262
1.8081194080781917 12.856575541258916 97.0766068278305 105.02348212301001 0.5159057453041095
1.8288289450805488 12.828440859322857 88.31990616123291 110.19227501819014 0.5268090117413794
1.848909228837281 12.798473549354208 80.45579365192529 115.6501424844604 0.5381513328735879
1.8682840177229578 12.766534103926004 73.37895910457486 121.41724783612513 0.5499618692710672
1.8869629783525794 12.732713447165896 67.00075428269965 127.51502912994688 0.5622704738223234
1.9048874716078676 12.696896224336795 61.25069703069252 133.96592838213405 0.5751064461496456
1.9220283060500793 12.659079018940163 56.068943076648644 140.7956508073463 0.5885061566552897
1.9383413941640777 12.619190781455067 51.38631518492515 148.03186791637543 0.6025078447409074
1.9538374479672376 12.577345557046538 47.15695616662703 155.70306654192876 0.6171472287027714
1.9684546656113149 12.533414344449659 43.33505599985814 163.84290838359345 0.6324719546629641
1.9821691280522822 12.487414734639659 39.8749948903173 172.4851940045959 0.6485236694861632
1.9949598171737193 12.439338363634372 36.74211904733926 181.66917156415357 0.6653553939565251
2.006794872933751 12.389177433563454 33.899921251333076 191.4368703572533 0.6830216277928068
2.0176412798294225 12.33690313031603 31.324771879879105 201.83432843621284 0.7015816095373663
2.0274776598399598 12.282517194875684 28.98886780458172 212.91146984102227 0.7210979229184943
2.036287739840848 12.226051567886394 26.86717928493177 224.72384283506238 0.7416410906806554
2.044032076709577 12.167455842078928 24.940248120250793 237.33255716515586 0.7632880581607228
2.0506915082149315 12.106748894833617 23.185972095040484 250.80451416370494 0.7861215233714669
2.0562636147726416 12.044002447261564 21.59179342985135 265.21287688463025 0.8102298368505576
2.060710152446022 11.979152994216706 20.140378702436024 280.6392448338873 0.8357122141049277
2.0640153666329595 11.912259123196938 18.81970336690914 297.1734984598611 0.8626760943433945
2.066176956375769 11.843355032208006 17.617284731813175 314.9159957861555 0.8912418768214837
2.0671681237508395 11.7724614436664 16.52217407539567 333.9761017723161 0.921535258064831
