M[M_sun], R[km], Lambda[1], P_c[MeV/fm^3], rho_c[fm^-3]
0.24162668629717493 15.618656898711224 2160425.4255784233 3.5677272577965504 0.1711233750220791
0.2536465740331675 15.27720250395584 1723083.2961932127 3.7848740063655444 0.17388885112740043
0.26604571882392 14.981140792270844 1382902.2196786108 4.011515847998023 0.17666804313771317
0.2788238511261639 14.72338490608121 1116305.3381325908 4.247907184300514 0.1794595899972837
0.29198271071069787 14.498223611212403 905722.7339190346 4.49467397234785 0.18227007199604806
0.30552148703681364 14.300985939549758 738478.8338253287 4.751974984691988 0.18509525740376262
0.3194418011541543 14.127907245707041 604926.3958865902 5.020487413207137 0.18794165294850226
0.33374486014451576 13.975728658517253 497543.29247402324 5.300442266008208 0.19080601743378228
0.3484291766686018 13.841789774345791 410859.28432189574 5.592560280403862 0.1936944876236442
0.3634946579577651 13.723756615520935 340520.955448708 5.8970187374402805 0.1966023109158043
0.37895368633308196 13.61981232314074 279278.288535548 6.214677711383873 0.19953708328267794
0.39479113994416626 13.528238296194631 236297.30811526062 6.5457864629438545 0.202494837449203
0.41102165544674035 13.447666901776351 197769.91113201596 6.891063848327496 0.20547956197293818
0.4276357447592919 13.37682573864347 165987.41290631454 7.2512080150136375 0.20849420029914018
0.44463563789196087 13.31471546958754 139719.38052031322 7.6264664172221845 0.21153411371014733
0.46201948192746634 13.26038416789779 117906.8826749197 8.017811253076202 0.21460582094115738
0.479791387977296 13.212995479576966 99744.99032269744 8.425937453346155 0.21771079984350689
0.49795481959283133 13.17182766820833 84586.98601180027 8.851270467750814 0.22084629340515566
0.5164987353025683 13.136267786698276 71891.08199106835 9.294714644680449 0.22401614566852496
0.5354238617885275 13.105717705955227 61236.23640393752 9.75714110050541 0.2272230675423662
0.5547373868496632 13.079708965400748 52265.58726221401 10.239344050948572 0.23046820335670354
0.5744263628372868 13.057747157435163 44696.5602230931 10.741820973587043 0.2337485875236196
0.5944887970670742 13.03943183830765 38296.521494804285 11.265812830037786 0.23707034321012616
0.6149321668974793 13.024433229981616 32872.32825474734 11.812253336677413 0.24043502496034636
0.6357437809942338 13.012377054750967 28268.225184895324 12.382122531634229 0.2438442675786347
0.6569216112828641 13.002977988174147 24349.726590902348 12.97607936050506 0.24729567817395887
0.6784606917029002 12.995947531759683 21010.218717530654 13.595511366924 0.250794717033788
0.7003549939310276 12.991032631377625 18155.04442215596 14.24158881048062 0.25434369582609967
0.7225980386505649 12.987989602019733 15714.381387163021 14.915502727162323 0.2579446017483904
0.7451930128133852 12.986640078865193 13620.659189571705 15.618242021820132 0.2615969165321008
0.7681204167995569 12.986755563483696 11823.453033269043 16.35115549628374 0.2653033540298699
0.7913741033778406 12.988150681063951 10279.038630721749 17.115821692564868 0.26906820948419713
0.8149568739122862 12.990677458695577 8946.803118403992 17.913697432663593 0.27289391897255877
0.8388467727325545 12.994162903794356 7799.298507635286 18.746092467083496 0.27678105833352756
0.8630354584362064 12.998435065979814 6806.847530840197 19.614464145712837 0.28073110941860446
0.8875234362924944 13.003405478157276 5948.749145879609 20.52084684379437 0.2847499486905172
0.9122868715965081 13.008901538239131 5205.225769317494 21.467037044534898 0.2888405941762753
0.9373154463868526 13.014796238307516 4560.397224885936 22.45444803781143 0.2930023892917582
0.9626067495090928 13.021007925966234 3999.710169176608 23.485249707309553 0.2972402825246655
0.9881358906943024 13.027395987621745 3512.4544659033636 24.561798617060642 0.30155981905211127
1.013886084813128 13.033854626613884 3088.1103638707814 25.685953104516543 0.30596199682855196
1.0398574640983793 13.040306374509907 2718.243874671098 26.859846286161616 0.31044933748818476
1.0660168731614184 13.046638672612849 2395.3916725677177 28.086496878659805 0.3150299673742013
1.0923564806727597 13.052763336472 2113.048660363149 29.36786012073646 0.31970363454018474
1.118862651877252 13.058597584526478 1866.0023076776365 30.706896684996103 0.3244764157915164
1.1455019515458302 13.064050466630693 1649.8739707492946 32.10679940797051 0.3293549600876449
1.1722713141773615 13.06905547193671 1460.1987950202338 33.56973436768379 0.3343384163922954
1.1991345128644715 13.073512154412603 1293.7242405122574 35.1001336121669 0.3394395995283923
1.2260873083893293 13.077370473704235 1147.476062546555 36.69991889538034 0.34465464105743104
1.253090302857493 13.080523121972535 1018.7232370495275 38.37424313418298 0.3499985934049743
1.2791764951896156 13.082564280284533 909.105514815016 40.18313291237219 0.6177866564978917
