M[M_sun], R[km], Lambda[1], P_c[MeV/fm^3], rho_c[fm^-3]
0.24162668629717493 15.618656898711224 2160425.4255784233 3.5677272577965504 0.1711233750220791
0.25364458581527927 15.27729636066503 1723069.3801042596 3.7848431437760204 0.17388846644011063
0.2660421746419052 14.98123604537304 1382991.22349632 4.011450967655618 0.17666725909706496
0.278819097248375 14.723443842344704 1116370.7555230253 4.247806090152646 0.17945841745751406
0.29197455937729744 14.498353039592478 905832.4451350562 4.494534010521616 0.18226851348862952
0.3055118335764232 14.301152282098007 738572.8437547153 4.7517914015795295 0.18509327435577444
0.3194294976172828 14.128054892515463 605031.4454503524 5.020258855350963 0.1879392815725292
0.33373009586547414 13.975859472009766 497621.5057802614 5.300162714634075 0.19080320281530438
0.3484125529645403 13.841885955156611 410943.7907621281 5.592229036372513 0.19369128274651878
0.3634777754116111 13.723872327755362 340628.3353010668 5.896628357151307 0.196598644381517
0.37893233245293195 13.619908566666224 283253.8742889163 6.214223469001078 0.1995329411390903
0.3947664323965313 13.528365565164085 236357.81032145434 6.545268828924022 0.20249029849813838
0.41099366832553175 13.44778180360233 197829.31231379608 6.8904728274931015 0.2054745285915002
0.4276037261873311 13.37699497363857 166044.16591323266 7.250538059284161 0.20848865792708518
0.44460175493727805 13.314832848760554 139763.29062380502 7.625719377214158 0.2115281667913383
0.46198269565108574 13.260486920829887 117949.8970728095 8.016974095619885 0.21459934485142002
0.4797520404281678 13.213097515636928 99796.47876325969 8.425003648001711 0.2177037789327526
0.49791163793955423 13.171915464990017 84620.84901266696 8.850243456722426 0.22083885740650208
0.5164525660056648 13.136335430103342 71920.19354659064 9.293577803772402 0.22400814223765853
0.5353729157678625 13.105813105252912 61257.998240828114 9.755886718746005 0.22721447938085837
0.5546831147282937 13.079770733838401 52288.26382571714 10.237977371625956 0.2304591849998816
0.5743670532260521 13.057803379301884 44715.859723390975 10.740321146922486 0.23373895817184498
0.5944268689956876 13.039490393719943 38316.66323422793 11.26417071806092 0.23706008326477854
0.6148676565620633 13.024466808500435 32891.15096307924 11.810459234852411 0.24042411382785753
0.6356737622145315 13.012407407513177 28282.02295323401 12.380166129825318 0.24383268357835333
0.6568470649642342 13.003017941509638 24362.484081155704 12.973969643063946 0.2472836198941958
0.6783832232465274 12.995954832874068 21020.32635587065 13.593218367315389 0.25078195022629857
0.700272547927528 12.991055833211712 18165.85217593539 14.239100229191731 0.2543301951511522
0.7225096604621886 12.987993492416154 15723.895417244468 14.912805474212117 0.2579303403553055
0.7451005649716776 12.986639626717437 13628.676068841727 15.615348489677292 0.26158212671514236
0.7680242620942441 12.986758755563688 11831.35435069406 16.34802648915826 0.2652877567141314
0.791272090552062 12.988146812592502 10285.872589455836 17.112441500313363 0.26905177275390724
0.8148486854242972 12.99068332457789 8952.16789534405 17.910049303316935 0.2728766088596626
0.8387364869558079 12.994145042553114 7804.419757030606 18.74219258398121 0.2767631403885263
0.8629179032344113 12.998429978844879 6811.05785121545 19.610261785204475 0.2807122560772935
0.8874030149263185 13.003379803379627 5952.739151649911 20.516321771708185 0.284730119123012
0.9121627328886345 13.008866026365022 5208.6781783096585 21.462167640761027 0.2888197447994315
0.937185868255163 13.01475781090849 4563.084616738051 22.449254590501102 0.2929808186683316
0.9624731101462173 13.020964668662167 4002.7150876793044 23.47966702080415 0.2972176095759893
0.9879967294292261 13.027352463728437 3514.855725094593 24.555800403105565 0.3015359909955536
1.013742379968585 13.033813180169378 3090.6570350852803 25.67956258669517 0.30593733458953504
1.0397076792659397 13.040275230535466 2720.0835106674353 26.85298531187176 0.3104234179627702
1.0658630318689648 13.046597057059675 2396.970620858356 28.079133318124917 0.3150027263618612
1.092198456123443 13.052728737477011 2114.710866948409 29.36002007845514 0.3196754152017825
1.1187002475911816 13.058561864417252 1867.4881532988263 30.69848652455377 0.32444674840559123
1.145332939712916 13.064012256740165 1651.1794197072518 32.097846585997615 0.3293241990731635
1.1720994400196172 13.06902456884814 1461.259539134488 33.560133828936756 0.33430606158686094
1.1989580132177167 13.073486661344623 1294.7080436881054 35.08984884998881 0.3394056157415969
1.225907516034788 13.077350928591288 1148.4122054301733 36.68896213821277 0.344619296254878
1.2529046898237732 13.080513038314503 1019.5615358358017 38.36257872533237 0.34996186329973034
1.279950141333451 13.082947478808586 906.1940228113687 40.11299859828588 0.3554302331651744
1.3070029655949558 13.084549838139795 806.3240270581458 41.94558257429021 0.36103831535432657
1.334035991942513 13.085243737536288 718.1387290341046 43.86393270117691 0.36678869842672995
1.3610461658249808 13.08503263078363 640.2397083240097 45.87262231556803 0.37268848873203675
1.387985326848319 13.083782655958206 571.4411397517317 47.97704556896206 0.37874797297792767
1.4148303792894135 13.081457048717224 510.5420284759274 50.18203044701397 0.38497315598167614
1.4415638119084626 13.078009467652755 456.60685417693975 52.49266692669188 0.39137032570148217
1.468158462125003 13.073406879850323 408.7625087821348 54.915440369990215 0.39795152146621277
1.4945702276958766 13.067536419375866 366.32007731140203 57.45654462227396 0.4047258109697679
1.5207828866301791 13.060379863668588 328.65306564032306 60.12261199416519 0.4117029725413145
1.5467671701287256 13.051885265534334 295.1074112997816 62.920752736312195 0.41889355366634373
1.5724849979411963 13.041997227965366 265.29958973838654 65.85859829417828 0.4263089342869849
1.5978983648199883 13.030653560565318 238.76387449351276 68.94434872666884 0.4339613954409816
1.6230070966727996 13.017840487938333 215.09451484043944 72.18682472013337 0.4418641938672534
1.6477494102203885 13.003478594756196 193.96882096398411 75.59552468338902 0.45003164328187856
1.672097582520232 12.987534531089059 175.12264517449051 79.18027897281907 0.4584774973528548
1.6960339772896773 12.969973038458692 158.25737467313203 82.95151249583405 0.46721598831932165
1.7195139598537639 12.950751707550097 143.18837651586355 86.92186182040876 0.47626821292760413
1.7424958550960468 12.929803277493793 129.697879761622 91.10279292535542 0.4856480460623004
1.7649768434759425 12.9071404704365 117.5960099711922 95.5086444198849 0.4953783767307255
1.7868871646798241 12.882663685890467 106.75449875491479 100.15285020088211 0.5054757783543081
1.8082392091855175 12.856420762892041 97.0214444328938 105.05206971138793 0.5159664511079519
1.8289433273279068 12.82826706988039 88.2760205187046 110.22285785076816 0.5268729523090292
1.8490238439564568 12.798289881303656 80.41740989977286 115.68301070326716 0.5382192272716922
1.8683955205241547 12.766339447745061 73.3359763459965 121.45246125116675 0.5500335508798149
1.88707145570773 12.732506498594239 66.9619222348047 127.55265157425276 0.5623457721658917
1.9049928664410491 12.696673101385684 61.21632119669823 134.0063052256434 0.5751861625756316
1.9221309607594543 12.658839784838111 56.037225180226294 140.83901886015371 0.5885906541141955
1.938440988009356 12.618933429694021 51.358603521419305 148.07848694049173 0.6025975187532361
1.9539332914883794 12.577074108848802 47.13415491133252 155.75306825558388 0.6172419869553899
1.9685454000816516 12.533129991153638 43.313556231001755 163.8965958556925 0.6325722433070191
1.9822556257067905 12.487111153694164 39.85415752895289 172.54306167602198 0.6486305158143312
1.9950380016097158 12.439011565747716 36.72230912347711 181.73142924666485 0.6654687971884711
2.0068710364674103 12.388835034137449 33.88170929686631 191.5039224293857 0.683142168107048
2.0177121449400817 12.336542197683338 31.309101333787552 201.9066209801012 0.7017099216716967
2.0275417748392104 12.282145574665787 28.973225655404786 212.98931312062027 0.7212341050789356
2.0363442646185588 12.22565461407155 26.8531533184429 224.80795752984557 0.741786484933075
2.0440820541098756 12.167042269676744 24.927238771333922 237.42335314039124 0.7634428736391594
2.050733744861063 12.106314736640249 23.173534979764668 250.902647544369 0.7862866444730534
2.0563002160716555 12.04354570584446 21.580980748451644 265.319186594497 0.8104065971862381
2.060739448809083 11.97867626027234 20.131133869164003 280.7543175337994 0.8359009601157198
2.06403530150173 11.911759964447754 18.810516395421036 297.2983450281738 0.8628783681542085
2.066184918508004 11.842834912358317 17.6093378063409 315.0516189898241 0.8914589828955259
2.067171552282965 11.771929791889338 16.513838249712556 334.1233963164059 0.9217678980314157
