M[M_sun], R[km], Lambda[1], P_c[MeV/fm^3], rho_c[fm^-3]
0.24162668629717493 15.618656898711224 2160425.4255784233 3.5677272577965504 0.1711233750220791
0.2536444113365815 15.277283770225017 1723189.6217365046 3.7848275841948347 0.17388827249743735
0.26604073188363325 14.981232933929785 1383012.7166132713 4.011418258081131 0.17666686382116115
0.27881672070698527 14.723477652098149 1116368.0078785266 4.247755123732852 0.1794578263238492
0.2919710192733564 14.498396602170503 905885.9848658296 4.494463449614679 0.18226772777655442
0.305507075559545 14.301215715917587 738683.5765771677 4.751698850034077 0.18509227462244626
0.31942317851073815 14.12814166263176 605118.4458238824 5.020143631154146 0.1879380860770148
0.33372305590246437 13.975965422396563 497667.4610418225 5.300021783920653 0.19080178387686655
0.3484042050388576 13.842000613364954 410990.09344085545 5.592062047011987 0.1936896670785185
0.36346719361858604 13.723963154895568 340653.40214453946 5.896431557110138 0.196596795993883
0.3789216686746696 13.619970031205185 283287.4874013859 6.213994476349382 0.19953085300183193
0.3947543848823042 13.528428516060886 236404.0513920891 6.545007881154669 0.20248801033872432
0.41097974757915223 13.447866302921472 197857.806347315 6.890174886525213 0.20547199120119158
0.42758770610529584 13.377046649690705 166067.5467011874 7.250200328836905 0.2084858639696479
0.44458411922826163 13.314903168259452 139793.58891999046 7.62534279049963 0.21152516891894618
0.4619660901169784 13.26054993846053 117975.81854564746 8.016552083412527 0.2145960802458139
0.47973205321550433 13.213151518721567 99804.40208222448 8.424532918990522 0.21770023970865554
0.4978896983953343 13.171961607608537 84634.98894596573 8.849725746360836 0.22083510896228356
0.5164278503768343 13.136392734447087 71930.09687231864 9.293004733036573 0.2240041077839515
0.5353476165480935 13.105827212430412 61270.98651801678 9.755254401440961 0.22721015020188298
0.5546549306041338 13.079791191435266 52299.73647740933 10.237284430525605 0.23045458729800267
0.5743379587037026 13.057828280869469 44726.20408949119 10.739565114406496 0.23373410420890275
0.5943960331685957 13.039506945887588 38322.261824846624 11.263342968405327 0.2370549114699512
0.6148336645167859 13.02450719705855 32898.422492780075 11.809554877303999 0.24041861382507593
0.6356396044929573 13.012418433310984 28289.583577720405 12.379179968474919 0.24382684444382152
0.6568095824104133 13.003008216467846 24368.431997868513 12.972906206573501 0.2472775417272991
0.6783422088543224 12.99597231159832 21026.432097494075 13.592062552911862 0.2507755149613609
0.7002300078291124 12.991064542237819 18170.982232921942 14.237845838545987 0.2543233900206785
0.7224656245436358 12.98800404452966 15728.039454601196 14.91144591069726 0.25792315183051107
0.7450545809400535 12.98664026910599 13632.63160125742 15.613889999432331 0.2615746718804649
0.7679760135944322 12.98675424579263 11835.194094722097 16.34644931875564 0.26527989491524234
0.791222049105757 12.988136450332455 10287.690821489019 17.110737732901175 0.2690434879099258
0.8147974372105111 12.990668918630586 8955.442680565575 17.908210497109103 0.2728678838556874
0.8386803978414125 12.994133515890134 7806.676027569156 18.740226895332 0.2767541090662578
0.8628611756661876 12.998413418746653 6813.348636733263 19.608143652048657 0.28070275334966005
0.8873433990989451 13.003363566776159 5954.732242890815 20.514040997735382 0.2847201244178236
0.9120996774126501 13.008848164435365 5210.562304458691 21.459713331366217 0.288809236157339
0.9371204531981463 13.014756423485816 4564.730504937152 22.446636970284153 0.29296994656419734
0.9624048667342378 13.020954122504786 4004.051015347962 23.476853235937728 0.2972061819595898
0.98792590495215 13.027342766881716 3516.0764761586333 24.55277720700375 0.30152398127261965
1.013668767855638 13.033794996858003 3091.665956908207 25.67634168285778 0.3059249045013155
1.039633911276917 13.040252821210961 2721.113325904359 26.84952731838485 0.31041035428605596
1.0657856679073106 13.046580805875347 2397.841936052333 28.07542204531755 0.31498899674996167
1.0921179491727813 13.052706093530542 2115.493667632686 29.356068681144457 0.31966119259763437
1.1186183638140648 13.05854005554568 1868.3733629763103 30.69424781992545 0.32443179610035366
1.1452488425369451 13.063996976738327 1651.8674886093925 32.09333440988884 0.32930869568048526
1.1720122986635915 13.069010303072597 1461.8594430840774 33.55529524583259 0.3342897550629211
1.1988701280018845 13.073472459375985 1295.2501935241712 35.08466101863907 0.3393884609897475
1.2258158147802394 13.077339367216215 1148.892873742683 36.68344011518751 0.3446014830633893
1.2528123704857097 13.080500001627207 1020.0395962215779 38.35670009729298 0.34994335206359806
1.279855710997141 13.082940287845794 906.5615200392189 40.10669653743315 0.3554107366942786
1.3068992403627213 13.084527376856176 806.6071108645135 41.938872156986996 0.36101802874619515
1.3339376806171002 13.085238413926549 718.4666810389733 43.856738679744616 0.3667673140745593
1.3609456711638912 13.085032484655132 640.5215236885786 45.8649597660329 0.3726662070788673
1.3878774735962753 13.083771676771486 571.7164139976932 47.96888175682056 0.37872473613323704
1.4147347966270447 13.08147957024355 510.7461245192483 50.17327583751845 0.3849486246010918
1.4414582939685252 13.078028919753566 456.8161661072408 52.483335419680635 0.39134470487944284
1.4680528398878825 13.073428723744863 408.94798478237766 54.90549063933862 0.3979247385807187
1.494462534650325 13.06756059736435 366.4701654380455 57.445931994030296 0.4046977877841606
1.5206750394117219 13.06041341905643 328.7805021853693 60.111288146774555 0.41167362474312713
1.5466583917719021 13.05192389594602 295.2384442936477 62.90866537092489 0.4188627903604449
1.5723746147037228 13.042043841818963 265.4175806954701 65.84569077171146 0.4262766574381122
1.5977999251945076 13.030712256390041 238.88691888352798 68.93055966788155 0.43392749926017765
1.6228858176247638 13.017887981607442 215.1975043389788 72.172087564522 0.4418285641360777
1.6476380975752105 13.003547949939879 194.06445493540897 75.5797672021831 0.44999415660751546
1.6719868221453265 12.987616847073163 175.19748911687117 79.1635050286458 0.45843836393300497
1.6959243056122497 12.970059993161557 158.34053843404865 82.9335583998607 0.4671747298590657
1.7194041587725983 12.950846786859886 143.25155002454096 86.90263513118465 0.4762246739362226
1.7423867157462016 12.929909096780031 129.76535379825663 91.08228564060946 0.4856024249022008
1.7648691990325953 12.907255557230568 117.66048405715425 95.48665894411832 0.49533013568777545
1.7867964777592307 12.882818050505575 106.8096823198699 100.12936738943206 0.5054251034659719
1.8081338237201514 12.856556247833172 97.06656693101039 105.02696777029351 0.5159131470834222
1.8288432369681136 12.82841962826518 88.31616678515348 110.19600393091535 0.5268168079059681
1.848922422970042 12.798451564145664 80.44990744273282 115.65415003513125 0.5381596110903745
1.868298967487331 12.7665100924547 73.37561379118905 121.42154131668607 0.5499706092241041
1.8869769772162437 12.732687860025937 66.99743314180932 127.5196163229917 0.5622796547260173
1.9049002063408864 12.69686967671423 61.246387883994366 133.97085139276993 0.575116165701222
1.9220404423719684 12.659050426371964 56.0659770451359 140.80093850580843 0.5885164591027041
1.9383535034167125 12.619160213465078 51.38334384052287 148.037551970847 0.6025187783024828
1.9538499194135408 12.577313041823174 47.15711853048281 155.70916301092427 0.617158782121783
1.9684651460078522 12.53338081521576 43.33137635605181 163.84945421477613 0.632484182330013
1.982179149622433 12.487376694708404 39.87345462760284 172.49224947498087 0.6485366966407998
1.9949696290503978 12.439296770953105 36.739905421184275 181.67676225239538 0.6653692205004085
2.0068039344421416 12.389135754939621 33.89733660262656 191.44504556087333 0.6830363244544014
2.0176494421362237 12.336858726104875 31.32276307008032 201.8431425364213 0.701597253695797
2.0274846272078086 12.282472404260508 28.986855571609112 212.92096066229888 0.7211145265425
2.0362941456180517 12.226003306598512 26.865081862936634 224.73409823257484 0.7416588173794021
2.0440376516384937 12.167404841352832 24.938580747828638 237.34362710495 0.7633069334249738
2.0506963136285243 12.106695691096785 23.18431333403561 250.81647863118175 0.7861416550130785
2.0562680446474704 12.04394683387981 21.590453567917837 265.2258492508515 0.8102514236216284
2.06071347828992 11.979095116648153 20.138665317216052 280.65327441040864 0.835735225875778
2.0640185613524027 11.912196808965312 18.81867630219164 297.18871957809347 0.862700755282268
2.0661756110705363 11.843293341570952 17.615361464122877 314.93253068526457 0.891268345942793
2.067169055011917 11.772399954644682 16.521399917259895 333.99405951920204 0.9215636208915826
