M[M_sun], R[km], Lambda[1], P_c[MeV/fm^3], rho_c[fm^-3]
0.24162668629717493 15.618656898711224 2160425.4255784233 3.5677272577965504 0.1711233750220791
0.2536417125298083 15.277358055709431 1723205.226969655 3.7847981410325633 0.17388790550262348
0.26603789238907294 14.981265233438485 1383042.352777439 4.011356362765683 0.1766661158528021
0.27881119382301567 14.723584092541724 1116552.1270189565 4.247658682339863 0.1794567077490246
0.2919638932856694 14.498498837465137 905961.1569810194 4.494329931542424 0.18226624102183195
0.30549810427250484 14.301356280877487 738743.6489060282 4.751523721836793 0.1850903829036784
0.3194126289426025 14.12824573685093 605174.2504519781 5.019925602895986 0.1879358239496852
0.3337094633137416 13.97606633037087 497753.6804502906 5.299755115654578 0.19079909896990985
0.34838847490225133 13.842131595640602 411071.80833208014 5.591746073039891 0.19368660994341705
0.36344720964271543 13.724128383488116 340704.1899460263 5.896059178812751 0.1965932985381103
0.3789011464787911 13.62008646815346 283366.7858504443 6.213561187595828 0.19952690193011313
0.39473048451879134 13.528556796294401 236453.14652580893 6.544514131915565 0.2024836808249199
0.4109535771028244 13.44798836330985 197913.42215866206 6.889611145250312 0.2054671901439297
0.42755968183288806 13.377160532618042 166119.90223412839 7.249561305671734 0.20848057749477006
0.4445519675987224 13.315007815828386 139831.91525655088 7.624630251735013 0.21151949665221892
0.4619313266861531 13.260663243419394 118013.52439449939 8.015753601015197 0.21458990333892525
0.47969354613136206 13.213228108183259 99849.9427161804 8.423642266794781 0.2176935432492525
0.4978475932547207 13.172055701033756 84667.79945404021 8.848746208418257 0.2208280166890549
0.516383108718717 13.136465965506174 71958.93041501018 9.291920457835987 0.2239964744189427
0.5352991391531154 13.105896463199587 61295.88248303909 9.754058037656753 0.22720195926214404
0.5546025837586883 13.07988067020841 52316.67534613526 10.235968180149943 0.2304458215839717
0.5742806841954079 13.057899933121627 44745.77086045807 10.738134696582964 0.2337249204833877
0.5943368291511151 13.039585939463368 38342.30794699372 11.26177687240467 0.23704512647379852
0.6147712542979131 13.024525462909635 32913.76030721258 11.807843851825945 0.2404082079353864
0.6355691786056703 13.012468074846248 28305.329275956923 12.377314185072992 0.24381579700185205
0.6567378370916809 13.003040769100581 24380.737882636804 12.970894233190899 0.24726604211249265
0.678266478912482 12.995993583239805 21036.617767903655 13.589875820069782 0.25076333981875704
0.7001515831536215 12.991076803787903 18179.845539044767 14.235472621919557 0.2543105152046552
0.7223828066862213 12.988004570376651 15735.510293109799 14.90887373267575 0.2579095517557215
0.7449662941114173 12.986647605513186 13640.311329081185 15.611130676543752 0.2615605680521897
0.7678823752489129 12.986752356415616 11759.276541886024 16.34346548544018 0.26526502125453605
0.7911251035112327 12.988125950233153 10293.79350726568 17.107514414676494 0.26902781400490633
0.8146966496477774 12.990660510621277 8960.941674025706 17.90473172673473 0.272851377339005
0.8385745610007502 12.99411057087996 7810.635298997314 18.736508102214508 0.27673702313603815
0.8627519462658252 12.998386567980967 6817.785844750241 19.604136484916584 0.2806847757179265
0.8872231262505206 13.003336971204845 5958.70095752235 20.509726171215064 0.28470121617898714
0.9119805886663168 13.00882620970019 5213.784566421149 21.455070239510807 0.2887893557825931
0.9369976378708921 13.014713590591274 4567.606915322164 22.441684953968263 0.2929493787076717
0.9622660305800064 13.020931616784997 4006.478239228745 23.47153015385943 0.29718456334162807
0.9877929401517584 13.027308379648632 3518.427932322954 24.547058005339206 0.3015012615994389
1.0135331691880638 13.03375529321437 3093.902697407933 25.670248499116113 0.30590138973177544
1.0394910007111662 13.040222896917419 2722.9505902864657 26.842985666042168 0.31038564110145767
1.0656415937395283 13.046557117644461 2399.4839855204323 28.06840130498216 0.31496302397860915
1.0919677022567893 13.052680341820771 2116.9242263770393 29.348593734586757 0.3196342873796672
1.1184619826845508 13.05851162323781 1869.6676306480063 30.686229428933412 0.3244035107065505
1.1450886617951284 13.063963336352337 1653.047559575932 32.084798743695394 0.3292793679721739
1.171848631712053 13.068983550227781 1463.011466711983 33.54614218813554 0.3342589083147623
1.198701345359488 13.073447192926887 1296.2229868534653 35.07484737198279 0.33935600992074083
1.22564327176294 13.077313486917516 1149.7115359905658 36.672994356634106 0.3445677866632647
1.2526354169646279 13.080484710246356 1020.8084249489737 38.34552669324278 0.34990802366153234
1.2796754145298934 13.082920794266215 907.314582308171 40.09477539244617 0.35537385665428606
1.3067158622276362 13.084515867140688 807.27815527075 41.92617863970212 0.36097965432038354
1.3337501845033328 13.08523126285102 718.9747108338797 43.843130484768196 0.3667268634814492
1.3607557307949816 13.085034505717976 641.028484326 45.85046540540683 0.3726240594470767
1.3876844037950276 13.083782982284252 572.1892095896704 47.953439325242336 0.37868078198804006
1.414537932400287 13.081503758878874 511.1478683921755 50.15671601645574 0.38490222215754405
1.4412598035492694 13.078058263991505 457.15339931256534 52.46568449571719 0.3912962420554689
1.4678531924072522 13.07346713960611 409.2900735592601 54.88667046194238 0.3978740780479031
1.4942599240501782 13.067607347191451 366.7857612177766 57.42585808265871 0.4046447815983869
1.5204706071370289 13.06047470742225 329.0553795495565 60.089869124159485 0.41161811347285004
1.5464525224732286 13.051998944896742 295.5022308327751 62.88580233981314 0.4188046021285739
1.572166842390996 13.042129702532556 265.64677717558357 65.82127662876276 0.4262156068682344
1.5975901181733403 13.030812168592476 239.0843872435819 68.90447834766425 0.4338633863167687
1.6226711060213546 13.017975887575902 215.3870361685248 72.1442132056721 0.4417611728470998
1.647428872682824 13.003679489166679 194.23657654125824 75.54996322681578 0.4499232536564206
1.6717781009431434 12.987758946763606 175.3476479357732 79.13177873558391 0.4583643468542639
1.695716182590872 12.97022430350273 158.47416032286253 82.89960027740518 0.46709669419256505
1.7191790798892377 12.950986890812606 143.39281903987882 86.86627038805439 0.47614232568482656
1.7421848046170234 12.93010590136761 129.8774035988729 91.0434991396475 0.4855161392143582
1.7646653177912333 12.907470440662463 117.7647818783846 95.44507707701156 0.49523889578656344
1.7865947122651167 12.883051746296665 106.8977293917029 100.08495395077746 0.5053292611921777
1.807934950309486 12.856813292767718 97.15653264608464 104.97949247466649 0.5158123331936462
1.8286482779284583 12.8286974094874 88.39533206010292 110.14515524319798 0.5267103983847876
1.8487305617463743 12.79874978194968 80.52296168274168 115.5995669738948 0.5380468613210263
1.868120540101877 12.766865267843507 73.43657933101183 121.36306422795748 0.549851571300915
1.8867950401177116 12.733036531779053 67.05581742867453 127.45694284105357 0.5621539101177605
1.9047221224670385 12.697240991549213 61.30166932276988 133.90380091871185 0.574983787246444
1.9218691409690878 12.659450032446818 56.11363002239278 140.7289215325255 0.5883761426520782
1.9381883484756965 12.619580216150608 51.4290844279805 147.9601372722692 0.6023698672781469
1.9536920409340754 12.577770707392123 47.20012048408391 155.62613190747396 0.617001429869214
1.96831479066272 12.53386031433279 43.37183090679803 163.76025178469354 0.6323174728701326
1.982038182750238 12.48788994012309 39.90825428473171 172.39615857659695 0.6483592753032954
1.9948336567828175 12.439836209485573 36.76905712160616 181.5733827714978 0.6651809133425158
2.0066742651945964 12.38968895851578 33.92923774240194 191.3337062409497 0.6828361684236605
2.017534315947033 12.33745543093752 31.35011641002677 201.72310290808707 0.7013841951964367
2.0273791570142508 12.283100489749978 29.01161915806259 212.79170568127986 0.7208884026862871
2.036198896908721 12.226660551608704 26.888612594535324 224.59443168180974 0.7414174004214156
2.04395389695433 12.16809499350386 24.959451064418253 237.19286863357047 0.7630498763823625
2.050624153742897 12.107419461322293 23.2034645405113 250.6533567884708 0.7858668959889853
2.0562022418100514 12.044680520202919 21.60731540588475 265.0491852409131 0.8099574444451283
2.0606686438031323 11.979885080361951 20.156734895445677 280.4622143949356 0.8354218429815731
2.0639901078170406 11.913030487288363 18.83369861272159 296.9814346339404 0.8623649165311926
2.0661578678977444 11.8441466805757 17.63034278220499 314.70735652957603 0.8909078864078834
2.067164098852056 11.773287656621072 16.534030153302616 333.74951119284935 0.921177376344491
