M[M_sun], R[km], Lambda[1], P_c[MeV/fm^3], rho_c[fm^-3]
0.24162668629717493 15.618656898711224 2160425.4255784233 3.5677272577965504 0.1711233750220791
0.2536373236112683 15.27746881457178 1723399.5564566136 3.7847097956928866 0.17388680432058362
0.2660265269714432 14.981585780875996 1383381.8784245534 4.011170647593814 0.17666387159455166
0.2787956237172532 14.723882803912945 1116765.0424686878 4.247369318794459 0.1794533515679595
0.29194348656585095 14.498810745771928 906257.8925318685 4.4939293311507615 0.1822617802434963
0.3054713971291307 14.301646266833801 739041.0462238046 4.750998287753106 0.18508470721276857
0.3193783987511865 14.12864730229959 605416.5357821191 5.019271469540484 0.18792903706364958
0.33366757693098936 13.976510331178215 498041.0773066018 5.298955067874013 0.1907910438162789
0.3483409506522233 13.84251574806452 411294.16297326656 5.590798118352529 0.19367743822104347
0.3633940671043697 13.724492399512622 340925.409192109 5.894942027726316 0.19658280601869213
0.3788389315969795 13.620477058450932 283572.0684989472 6.212261328392876 0.19951504877931459
0.3946596197614807 13.528941809682522 236640.08982234861 6.54303291919657 0.20247069259039469
0.4108757002682087 13.448339159265895 198079.64618481873 6.887919994420793 0.2054527875938016
0.42747255957422214 13.377497120717335 166260.37824174558 7.247644356141096 0.20846471906257516
0.4444558676865025 13.315338371920252 139968.04992534049 7.622492806367482 0.2115024812127205
0.46182528577557036 13.260965505302256 118125.14640221182 8.013358391108188 0.2145713744538505
0.4795788715821676 13.213506645096007 99942.43845742497 8.42097062567029 0.21767345624288212
0.4977231978794375 13.17233725079605 84763.18633408693 8.84580799061672 0.22080674273676792
0.5162484840492885 13.1367004028364 72048.5921105312 9.288668131610388 0.22397357783955557
0.535152868862536 13.106118619290122 61369.948863804864 9.750469564402554 0.22717739067475623
0.5544471425307276 13.08007187374943 52386.13337587391 10.232020182682964 0.23041952946096042
0.574113607800439 13.058043600040005 44803.35603405399 10.733844330828813 0.23369737500625706
0.5941622911191344 13.039709650965577 38393.901120079296 11.257079643124406 0.23701577810025298
0.6145807190231852 13.024660296811176 32959.44644158684 11.802712026810795 0.2403769978770333
0.6353671537384796 13.01255572187966 28344.44995504074 12.371718302686464 0.24378266336701032
0.6565201533270197 13.003106701151587 24417.550347929988 12.964859989500967 0.24723155285001908
0.6780420066615384 12.996061340724012 21069.727181477698 13.583317564029397 0.25072682520618605
0.6999134963112433 12.991111571480372 18208.756239496848 14.2283552109707 0.2542719029028923
0.7221318148965731 12.988028174503865 15761.498286826383 14.901159767191299 0.2578687651124039
0.7447025230469416 12.986664052312342 13662.418288530063 15.602855589330346 0.2615182712954371
0.7676062746057378 12.98674821587986 11860.787777957763 16.334517266078045 0.2652204166253067
0.7908354717413449 12.988107666157555 10311.182133414262 17.09784818232847 0.2689808103902588
0.814393235421573 12.990618181797542 8976.981904602055 17.89429962620197 0.272801877767908
0.8382577361069543 12.994072588817536 7824.861903229174 18.72535639281458 0.2766857868013949
0.8624217129453613 12.998324147809296 6830.395658895858 19.592120239358774 0.2806308664023581
0.8868798678016538 13.003254099355923 5969.948104313894 20.49678759323249 0.2846445173241093
0.9116203318832335 13.008749514260794 5223.649998454076 21.441147576669852 0.28872974297213017
0.9366238232712294 13.014637034922844 4576.793689791442 22.426836184503163 0.2928877053729209
0.9618862225081869 13.02081605987366 4014.9832381102483 23.455569036208825 0.2971197405003388
0.9873937991744554 13.027204894300931 3525.600485865538 24.52990946254454 0.3014331385797112
1.0131188578252825 13.033666221282457 3099.8033614947403 25.65197888618173 0.30583088377693285
1.0390634761658786 13.040118458620325 2728.6913875245014 26.823371760108014 0.31031154329670557
1.0652019091038523 13.04644720885898 2404.5754214691856 28.047351357531653 0.31488515106977105
1.0915128447758218 13.05257367661858 2121.433094394308 29.326182318841827 0.31955362004366483
1.1179944496004077 13.058409995562325 1873.7216815357026 30.662189136196893 0.3243187070161503
1.1446088819827913 13.063869675650544 1656.735408171192 32.05907249772266 0.3291905640618412
1.1713562292373751 13.068898632249407 1466.2388721918194 33.51870100610531 0.3341664287020161
1.1982000540287099 13.073373129062587 1299.1236005467256 35.04542632904206 0.3392587225077986
1.2251267355939746 13.07725062547291 1152.3461013170781 36.64167878740853 0.3444667674844889
1.2521073456197522 13.080430361334571 1023.1667485572733 38.311956533441766 0.3498016807545935
1.2791350112817663 13.082887356763084 909.4696468874416 40.05903810604053 0.35526329742920304
1.306165061741773 13.084487975073054 809.1798722847682 41.88812660163848 0.3608646172444587
1.3331881480047751 13.08522803993309 720.7447482464122 43.80233736631124 0.3666056052367478
1.3601838776081563 13.085050411730833 642.5935491374081 45.80701663173141 0.3724977163152984
1.3871046291150828 13.083824485153448 573.5435177958997 47.90714944285005 0.37854902604005247
1.4139406631658777 13.08154914604373 512.4639513236643 50.107077815691525 0.3847631304487599
1.4406699149607987 13.078161922050592 458.31223480918004 52.4127767259364 0.39115097714247915
1.467244070120815 13.073577780771316 410.334259801612 54.83025902374536 0.3977222286016527
1.4936494874651811 13.067760814475223 367.7050974339218 57.365689922662426 0.4044859045062553
1.5198540417335669 13.060661852213132 329.91059610698966 60.02567053883058 0.4114517312300351
1.5458312577963151 13.052217441790535 296.250279848684 62.81727711013949 0.41863019997105716
1.5715440256375732 13.04238668882731 266.338895733594 65.74810396693378 0.4260326296196157
1.596958789987225 13.031104445154583 239.703090736128 68.82631063464035 0.4336712349179993
1.622052493612449 13.018337688012531 215.94914604277076 72.06067349593144 0.44155920053446035
1.6468013635224903 13.00406129807927 194.74365736071127 75.46064249362152 0.44971076174890234
1.671155828646615 12.988192542740643 175.8219159104872 79.03640341622608 0.45814129253141145
1.6950866711367978 12.970705769746735 158.90001338053517 82.79783427018516 0.46686283620436414
1.71857548491694 12.951562720256204 143.766334848695 86.75729489616783 0.47589554981266563
1.7415745982366029 12.93071607507652 130.22747525106013 90.92726878588078 0.4852575694600826
1.7640573595944422 12.908130994742201 118.08559973677738 95.32047317709356 0.4949654870074445
1.7859897386582744 12.883761097243989 107.19223289331522 99.95186803946244 0.5050420675693287
1.807324716440099 12.857556940545278 97.41279091901895 104.83723500997709 0.5155102491691949
1.8280705522215457 12.829556832916005 88.63748962638466 109.99237284684679 0.5263899894940871
1.8481557070079146 12.799651068452762 80.74084517264997 115.43602015901725 0.5377090300371563
1.8675575905354453 12.76783405414602 73.63905070811198 121.18785433702622 0.5494949081702409
1.8862462773668816 12.734080241388854 67.24020189890231 127.26908706900528 0.561776885082187
1.9041766688750872 12.698322648547585 61.470326050107424 133.70283825366621 0.5745869072402218
1.921342464136388 12.66060753521879 56.2670692480875 140.513160521796 0.5879557581534115
1.937692166167718 12.62085396033807 51.56887984891387 147.7282117003576 0.6019237469015583
1.9532087763930335 12.579091569154434 47.325212480859044 155.37738704087224 0.6165300334472916
1.9678668599121985 12.535311301395256 43.48854732449434 163.49240075255622 0.6318159394826544
1.9816103690947557 12.48941257126673 40.015314114297354 172.10830674853375 0.6478277883758445
1.9944421673974264 12.441482750750435 36.86671303383181 181.26370662114192 0.6646168339407397
2.006296637492265 12.391384366251602 34.01996846773085 191.0001967936292 0.6822366144903681
2.0171817392408533 12.339233773485606 31.43476534915633 201.36354415902838 0.7007460138844034
2.0270581474988187 12.284969976940717 29.0891325609811 212.4041488447194 0.7202097729210717
2.03574005723259 12.22895616425694 26.979701391216327 224.23702469536175 0.8253069950196021
2.042242843684712 12.171761322594435 25.17878054785954 237.17955439289946 0.9911050890682542
2.04628674675233 12.112263716096733 23.639006871134963 251.372624350704 1.1664062344316615
2.04782319990238 12.049902767926666 22.32385348192495 266.94779469121954 1.3522772334776219
