M[M_sun], R[km], Lambda[1], P_c[MeV/fm^3], rho_c[fm^-3]
0.24162668629717493 15.618656898711224 2160425.4255784233 3.5677272577965504 0.1711233750220791
0.2536359694694487 15.277474514110855 1723368.7280211532 3.784672557784706 0.17388634016802232
0.266022475356202 14.981657269881996 1383502.966292559 4.011092369761015 0.17666292565313868
0.2787893890890926 14.724020248510536 1116962.5066723556 4.247247356566023 0.17945193698990278
0.29193390719094414 14.49898179725378 906396.7398215072 4.493760488065194 0.18225990013655205
0.30545927817304586 14.30183987165078 739140.5341022124 4.750776835351977 0.18508231510418813
0.3193650610603214 14.128780006459898 605521.0261081172 5.018995780678171 0.18792617668529696
0.33365141586386204 13.97662307675772 498144.4363198384 5.2986178897904175 0.1907876489924567
0.34832095932083024 13.842654023119543 411402.54330506147 5.590398613441808 0.1936735729011322
0.36337137328917335 13.724638790774947 341030.6571642759 5.894471226960491 0.19657838415826742
0.3788112769991748 13.620667773432016 283656.2575959245 6.211713540618416 0.19951005361439092
0.39463064945545856 13.529090131960617 236716.72883978658 6.542408717379777 0.20246521918371677
0.41084211956825056 13.448491844709038 198149.0209328219 6.887207336865414 0.20544671830300484
0.42743496380020873 13.377639407534906 166341.06575619747 7.246836562855385 0.20845803639574217
0.44441493000352356 13.315489773309823 140029.97502102825 7.621592113894605 0.21149531112149306
0.4617807219601774 13.26111267350152 118179.7259683425 8.012349100465078 0.2145635667747496
0.47953023039192755 13.213629871628159 99991.24810668087 8.419844875592629 0.21766499217606786
0.49767047021259847 13.172435695197112 84802.12832771483 8.844569935108025 0.22079777868590453
0.5161895724136458 13.136800548441903 72085.74959830166 9.287297749920064 0.22396393026702235
0.5350927838852197 13.10619604833649 61403.83413126065 9.7489575758531 0.2271670388008045
0.5543824063880872 13.080149313956179 51923.593559681816 10.230356743146777 0.2304084516025593
0.5740432267060004 13.058131037399622 44828.9259233489 10.732036669535024 0.23368576926080756
0.594086842540031 13.039776592538695 38415.679843538426 11.255100596871165 0.23700341298344932
0.6145013730558233 13.024727890939628 32978.45527303527 11.800549918340298 0.24036384865013435
0.6352819822306607 13.012602566872166 28359.210187644483 12.369360726822254 0.2437687039853792
0.6564310159220512 13.003138673001247 24433.702639848198 12.96231777167642 0.24721702257541944
0.6779466740036844 12.996095317707699 21082.92152744352 13.58055463467016 0.2507114419557469
0.6998130434004263 12.991128071662427 18220.68082891388 14.2253567738413 0.25425563623512654
0.722026316927874 12.988031614008214 15772.43359746382 14.89791007612629 0.2578515827707629
0.7445922552782602 12.986668170187961 13672.10326929828 15.59936956900242 0.26150045307188935
0.7674903845108919 12.986744111044283 11871.21529146231 16.330747751420162 0.26520162654016405
0.7907132559901671 12.988095440688861 10319.058942092232 17.093776278640114 0.2689610101014846
0.8142660375449204 12.990595682290225 8983.650533113663 17.889905187073563 0.27278102646846114
0.8381245620015291 12.994048312600109 7831.659078381969 18.720658900017938 0.2766642042525424
0.8622825981397816 12.99829761443951 6835.703816731831 19.58705867396471 0.28060815835059716
0.8867328499378268 13.003222989571501 5974.268581005298 20.491337625416527 0.28462063472010884
0.9114710605610755 13.0087169323832 5228.0588349547525 21.435283211878986 0.2887046334603394
0.9364678597339104 13.014587557430575 4580.757942990534 22.420581836180034 0.29286172837067254
0.9617235795749722 13.020772581562175 4017.8865083638875 23.448846299682046 0.2970924374697839
0.9872246577967975 13.02717117699986 3528.5651906353446 24.522686736569735 0.30140444611820233
1.0129445111498334 13.033628963051026 3102.7086389984893 25.644284108471357 0.30580118814781804
1.0388840519981988 13.040069741349605 2731.0468145558407 26.81511096560939 0.3102803355026073
1.0650169125403937 13.046403181402088 2406.737632727287 28.038485930500187 0.31485235400019856
1.0913232812994618 13.052526671214142 2123.51011200028 29.316743653799612 0.31951964664488275
1.1177979175486534 13.058372998534571 1875.476616451475 30.652064678215613 0.3242829923345728
1.144411683659358 13.063848651118127 1658.1662727282842 32.048214811875724 0.3291530139604388
1.1711482812679275 13.068864322285236 1467.6297516598231 33.50714473062227 0.33412748286213645
1.1979814448952812 13.073330165793408 1300.4618063091473 35.03303654961834 0.33921775286612116
1.2249090356443681 13.07721514634719 1153.48839019875 36.628491422687695 0.34442422708725967
1.2518894334605566 13.080412059656672 1024.1332194090523 38.29782005220396 0.3497568994810569
1.2789069585716681 13.082866776100479 910.329699454766 40.04398932060665 0.355216741514545
1.3059323728922465 13.084478284695017 810.0103307156966 41.87210338757396 0.3608161766408353
1.3329513972941942 13.085223386946648 721.4871118534529 43.78516032238157 0.36655454617887584
1.3599439609997073 13.085061395554602 643.3044141624172 45.788721708280825 0.3724445171630816
1.386860521884724 13.083843279518764 574.1423269147472 47.887658603198574 0.3784935488186244
1.4136931751948525 13.081571713962761 512.9601154462339 50.086177644599104 0.3847045658661125
1.440418224641246 13.078203595553212 458.7862723375784 52.39050036064823 0.39108981458963066
1.46698872031828 13.073622339166258 410.7651381981184 54.806507967339925 0.3976582950293436
1.4933924881127612 13.06782195999837 368.0930516490781 57.34035770673626 0.40441901349938647
1.519594971974481 13.060738633684055 330.2648953978739 59.99864201047881 0.4113816819112827
1.545570628494902 13.05230929551793 296.5762509698908 62.78842764785739 0.4185567757959152
1.571281050999216 13.042494853862658 266.6212376841706 65.71729861753518 0.4259555970512383
1.5966992815220884 13.031237652649079 239.94719077042285 68.79340316232098 0.43359034196883245
1.6217868109395908 13.018479792931503 216.17022288465256 72.02550533351966 0.4414741751601127
1.6465264499611583 13.004222119893274 194.9586454586166 75.42304158482501 0.44962131007795364
1.6708914679638591 12.988376526808894 176.01925995308358 78.99618293628171 0.4580470969128672
1.6948225756302602 12.970910502942042 159.07566331385883 82.75499633566896 0.4667643947556102
1.7183128330335966 12.951789415758077 143.92780611761046 86.71142337278711 0.4757916733814272
1.7413141198298876 12.930963401654337 130.37215050433818 90.87834456593167 0.4851487310790538
1.763799372635013 12.908403959987847 118.21711823870375 95.26802578112452 0.49485040570975397
1.7857314295699571 12.884057778274924 107.31055198970054 99.89585182533673 0.5049211870094401
1.8070727994163738 12.8578797527827 97.53109270748723 104.77731277277925 0.5153829259848983
1.8278235386954833 12.829909825808107 88.73490023127287 109.92806988424063 0.5262551359938838
1.8479014506727445 12.800003754965308 80.83254446337914 115.36718852711404 0.5375668476376144
1.867319770802511 12.76824618017992 73.71750372005724 121.11411613890509 0.5493448042209013
1.8860141993929869 12.734515247908565 67.31453031315485 127.19002904127642 0.5616182162513502
1.9039525802934083 12.698792290786876 61.539854033139925 133.6180080278943 0.5744189743161374
1.9211197120359549 12.661100390623417 56.33018023478141 140.42236387748295 0.5877788517620708
1.9374888205366845 12.62142015298186 51.627955710282045 147.6306157673801 0.6017360162687756
1.953007759301328 12.579659101071458 47.378660026900434 155.27271648440563 0.616331672265117
1.9676714358301866 12.535911978169882 43.53740274180738 163.3796942253926 0.6316049039458179
1.9814298498332379 12.490054621459166 40.06039926290592 171.9871880873315 0.647604156010775
1.9942715062565697 12.442157517426395 36.907842764886055 181.13340925926158 0.6643794954893993
2.0061370007876334 12.392100696559144 34.05772346732318 190.85987625178907 0.6819843585694103
2.0170328983341888 12.339979271528158 31.470230680072703 201.2122689833117 0.7004775153695719
2.026923836378216 12.2857614529233 29.120989889348376 212.24089036729305 0.719923579907253
2.0357866248471055 12.22944580711045 26.987005545747177 224.0001269611782 0.7403901305634152
2.0435958838723116 12.171039483527371 25.049209409469718 236.55079044335267 0.761954134326369
2.0503164787577113 12.110505577255 23.287006815245167 249.9586955672021 0.7846958541903857
2.055942844147658 12.04788915154795 21.68552888079968 264.2975584310801 0.808706693764969
2.060460801732355 11.983229474195724 20.227357479281114 279.6479542037569 0.8340839508713654
2.0638405172847794 11.916524301501411 18.89903362061495 296.09932013807776 0.8609352396892789
2.066073332678846 11.847794278587651 17.689871373797853 313.749489493144 0.8893745296805019
2.067140071723073 11.777079831872486 16.588989802516004 332.7092848387948 0.9195344219109568
