M[M_sun], R[km], Lambda[1], P_c[MeV/fm^3], rho_c[fm^-3]
0.24162668629717493 15.618656898711224 2160425.4255784233 3.5677272577965504 0.1711233750220791
0.2536420655745206 15.27735003862276 1723062.1539338608 3.7848053379334843 0.17388799520852158
0.2660382204511861 14.981280753312737 1383094.533591985 4.011371492003203 0.17666629868070885
0.2788120240345677 14.723595464263719 1116467.1204373515 4.247682255672577 0.17945698116415984
0.29196508555814144 14.498506302374171 905967.6431955016 4.494362567462422 0.1822666044303755
0.3054998454936648 14.301296328734402 738677.4875098695 4.751566528379675 0.18509084529603906
0.3194158334849371 14.128198951069928 605153.2302938532 5.019978895289801 0.18793637687884
0.3337118004402191 13.976016994650053 497731.5591723549 5.299820296816086 0.19079975523605114
0.34839257829580905 13.842046302865631 411049.8792525361 5.591823305611635 0.19368735718979463
0.3634534756672785 13.724064332288847 340685.672429256 5.896150197779707 0.1965941534075096
0.378905704988186 13.620065989261777 283341.3891159383 6.213667094268134 0.19952786767144462
0.3947362392061339 13.52853732488896 236445.02481436936 6.544634816236791 0.20248473906338055
0.4109601750719839 13.447933487124777 197889.75482251993 6.889748936818768 0.20546836363474866
0.4275664254827192 13.37711579047103 166105.41049606496 7.249717497324177 0.20848186962828225
0.44456030726441514 13.314979554952211 139831.87965428966 7.624804411683594 0.2115208830773941
0.46193948124911616 13.26062523075866 118004.78703547444 8.015948766750064 0.21459141310366917
0.4797026613861209 13.213220886051435 99831.12147293464 8.423859959967091 0.2176951799975788
0.497858274822693 13.172060438032819 84661.98891396588 8.848985626285653 0.22082975017671025
0.5163947666229208 13.136446469621003 71953.43944391714 9.292185474559835 0.22399834015320044
0.5353114148916818 13.10587705241046 61290.92663763904 9.754350449851175 0.22720396127080986
0.5546166876007037 13.079835795121776 52311.97286076097 10.236289893586992 0.23044796406996162
0.5742958763119956 13.057871480803815 44740.81879394654 10.738484313381754 0.23372716513153366
0.5943503954575438 13.039555328375576 38001.82323305111 11.262159649765225 0.23704751807367413
0.6147860003043545 13.02452265446271 32633.688405679706 11.808262050667151 0.24041075128209027
0.6355855003617109 13.012456935154349 28070.852579935337 12.377770207352041 0.24381849714360448
0.6567556606591447 13.003033840738953 24376.477225664697 12.971385984804167 0.24726885276306185
0.6782852673593164 12.995984637366991 21033.47116822276 13.59041028324039 0.2507663155664997
0.7001714166340872 12.991070422310122 18041.29410215996 14.236052661902074 0.2543136619498692
0.722403263916157 12.9880038023241 15734.769304862895 14.909502398804099 0.2579128757505196
0.7449880465223074 12.986645516012107 13638.404668306626 15.611805080816445 0.2615640151594817
0.767905883263775 12.986747309488354 11839.167685334658 16.34419475962143 0.2652686565034213
0.7911485956160624 12.98813856178882 10293.500269124464 17.108302218254266 0.2690316448269323
0.8147212627995329 12.990647216898466 8959.111068471548 17.905581961792024 0.27285541164355714
0.8386004418685065 12.994122417003874 7809.5628733803505 18.73741699785714 0.27674119904124084
0.8627792695611367 12.998388912426027 6817.013074075397 19.605115857475898 0.28068916954494216
0.8872509840266148 13.003335083698186 5957.635557121572 20.510780733604765 0.2847058374348913
0.9120112059600924 13.008829701703913 5213.08379343364 21.456205027340832 0.2887942146154615
0.9370278694433302 13.01471908906844 4566.924876821051 22.442895240520617 0.2929544055489775
0.9623015636319594 13.020919124663049 4006.095561275695 23.47283112523977 0.29718984697295986
0.9878243451675507 13.027314849359845 3517.826343904097 24.54845578403728 0.3015068143106497
1.0135647997478971 13.033774279991803 3093.34552637734 25.671737675047705 0.30590713674849457
1.0395264589875401 13.040226705233517 2722.5003694721217 26.844584441961505 0.3103916809889901
1.0656752158616805 13.046549318280606 2399.2450151191742 28.070117163357917 0.3149693716848535
1.092003660478326 13.052679323372589 2116.5333744503714 29.350420594791867 0.3196408629547077
1.1184994135298076 13.058520342933514 1869.3178739655546 30.688189098343248 0.3244104235673771
1.1451283423070882 13.063976184646712 1644.8705606224532 32.08688482713115 0.3292865355493882
1.171889438832976 13.06898832772883 1462.7818574549872 33.54837915101946 0.3342664471103216
1.1987420658019508 13.07344626846472 1295.9728319092167 35.07724577024503 0.33936394077358684
1.2256855449359128 13.077321651654445 1149.5536403345466 36.67554723124384 0.3445760218415792
1.2526794231305984 13.08048114607458 1020.6217702814939 38.348263411148174 0.34991669298390843
1.2797172230272162 13.08292777265184 907.103503224242 40.097688820586086 0.35538286982763756
1.3067594797863165 13.084522683215225 807.0649598688581 41.929280818834926 0.3609890326778801
1.3337958322858474 13.085231008225207 718.8670519872448 43.84645618890086 0.36673674919405896
1.3608031883542628 13.085032023384638 640.9060473336178 45.85400766718009 0.3726343598631335
1.3877314563508016 13.083781580547916 572.0725955805376 47.95721327184359 0.3786915238583237
1.4145867494948456 13.08149665689815 511.0675333738123 50.160763022147826 0.38491356231348256
1.4413081845508566 13.078049707773264 457.0631502378225 52.46999813709084 0.3913080856984992
1.4679007419546088 13.073457051081794 409.20474934265593 54.89126983554827 0.39788645873447087
1.4943092371706903 13.067599561547446 366.7048846011474 57.430763831708035 0.4046577354787072
1.5205196081189776 13.06045903126849 328.98789873379627 60.09510357698157 0.4116316795038768
1.5465021510851142 13.051980206837353 295.42914109549776 62.891389662127466 0.41881882230807566
1.5722180080275272 13.04210775369423 265.5961808057139 65.82724299130308 0.4262305264922388
1.597641058440558 13.030788194786947 239.03520089574758 68.91085211087903 0.4338790542629036
1.622721703065247 13.017949878458664 215.33899288133506 72.15102512343992 0.44177764188666613
1.6474796908475826 13.003646939886416 194.19459541829258 75.55724667135195 0.44994058079836674
1.67182853150947 12.987723099939151 175.31873096940708 79.13953192406294 0.45838243495428327
1.695767425005729 12.970183537494904 158.4445620953561 82.90789883662572 0.46711576425748447
1.7192319250891843 12.950950012276186 143.35577269606227 86.87515702667636 0.47616244954899595
1.7422350182118163 12.930056059172045 129.842536491592 91.05297755704802 0.48553722520419434
1.7647156128003616 12.907417914289226 117.74073467686667 95.45523855957703 0.4952611923482609
1.786643614758144 12.88299571368151 106.87290855868322 100.09580734570103 0.5053526823475616
1.807982697845252 12.856752169572221 97.13290058145368 104.99109404930847 0.5158369691617163
1.8286955776897944 12.828631487882141 88.37150467648364 110.15761544575918 0.5267365294036477
1.8487772593169027 12.798678538721369 80.50309029480857 115.61290534412497 0.5380744137912041
1.868165277518172 12.76678641163836 73.41861245409306 121.37735410465994 0.5498806602532256
1.8868397208982017 12.73295097121165 67.04239854737192 127.47226443300316 0.5621846604305502
1.9047653105779507 12.69715014873831 61.288330220749174 133.9201856898568 0.5750161358721104
1.9219111361514065 12.659352170712046 56.10328088047379 140.74651984525607 0.5884104308575774
1.9382284133918706 12.619479056794779 51.41794395208406 147.9790544853718 0.6024062554787398
1.9537403650869347 12.57768885829896 47.18634609501115 155.64642145167926 0.6170398805864951
1.9683508824184943 12.53374369684503 43.36009811374748 163.78208839050484 0.6323583424104252
1.982073809469844 12.48776543785996 39.89714268675036 172.41963915070147 0.6484026296160665
1.9948672336542628 12.439705773232077 36.76397924867368 181.59864422211018 0.6652269274250762
2.006702422510793 12.38955117978469 33.921080527948924 191.36091256632443 0.6828850775610773
2.017563681436707 12.337309493786417 31.344050229373543 201.7524350144824 0.7014362567919146
2.027404201080135 12.282945121262605 29.0054195389733 212.8232894038385 0.7209436565193093
2.036221575950785 12.226499018064903 26.8822487146233 224.62855926330428 0.7414763907584914
2.04397431504839 12.167926525064223 24.95367368942416 237.22970629244097 0.7631126879747018
2.0506427279582713 12.10724239267574 23.19924300058036 250.69325053744774 0.7859341478322213
2.056216866970588 12.044496206178385 21.602633518172272 265.09235227351314 0.8100292768953264
2.0606806600693766 11.979688914030072 20.15174702123265 280.50889870594364 0.8354984161173046
2.0639988211370883 11.912829664882258 18.83051171209137 297.032083019084 0.8624469759903594
2.0661625813011204 11.843938615609003 17.626756246326533 314.76237556302453 0.8909959610590235
2.067164655556 11.773070502078092 16.530454322166033 333.809263644328 0.9212717505686094
