M[M_sun], R[km], Lambda[1], P_c[MeV/fm^3], rho_c[fm^-3]
0.24162668629717493 15.618656898711224 2160425.4255784233 3.5677272577965504 0.1711233750220791
0.25364058246229226 15.277376407556158 1723167.5160484377 3.7847735128486475 0.173887598524192
0.26603436855715334 14.981384715995665 1383143.001198778 4.011304590006059 0.17666549020955621
0.27880712744183606 14.7236623445888 1116601.2005928352 4.2475780140672965 0.17945577211862734
0.29195837994792834 14.498577998572193 906064.013517194 4.494218251597223 0.18226499743972258
0.30548999775483343 14.30144219936453 738847.2722383512 4.751377238908043 0.18508880060848104
0.31940317625775355 14.128356732223775 605245.1453546454 5.019743238627109 0.18793393185000945
0.33369777998524175 13.97618715260712 497818.3758135196 5.299532069774482 0.19079685326799734
0.3483742978022465 13.842218106722376 411127.93798391183 5.5914817893514455 0.1936840529260294
0.36343298211255926 13.724223967911831 340769.2420471998 5.895747720871109 0.19659037325921086
0.3788831639332696 13.620213598628924 283416.0374896247 6.213198787343693 0.19952359727617197
0.39471082590960954 13.528670711604663 236502.7670540805 6.544101166306913 0.20248005967442126
0.4109316372676667 13.44808912626976 197959.9468128797 6.889139643418 0.20546317463646765
0.42753450896237927 13.37727479166349 166164.4697727759 7.249026844349057 0.20847615603321826
0.44452553128292516 13.31509506220333 139880.8070226239 7.624034308752244 0.211514752562886
0.46190080319598287 13.260741375778474 118046.08668617005 8.01508578358095 0.21458473723116414
0.47966089098471526 13.213322323797962 99863.33135286947 8.422897368879385 0.21768794265827693
0.49781285957956517 13.172128935541421 84695.13633862507 8.847926977096176 0.22082208510425244
0.5163457097963887 13.136555525960137 71983.00455016516 9.291013637877139 0.22399009034989878
0.5352587170174398 13.105963314177725 61316.75115986415 9.753057482406712 0.2271951089312775
0.554559973313849 13.079938455154576 52338.04144866499 10.234867369538735 0.23043849061472868
0.5742321114980565 13.057972204525646 44760.786085079395 10.73693841388917 0.23371723997793153
0.594286451004478 13.039605140263818 38354.263587350026 11.260467130861723 0.23703694318493673
0.6147168341382366 13.024573147045471 32925.30857167894 11.806412916456532 0.2403995054608774
0.6355128940060165 13.012482332781573 28316.82256240411 12.37575383843441 0.24380655807362264
0.6566782682998374 13.003063044706456 24390.07606388395 12.969211640486694 0.24725642510257503
0.6782038852775643 12.996012675376447 21045.305108896766 13.588047093237531 0.25075315795770026
0.7000858852031938 12.991073163090578 18188.27381806437 14.233487958670269 0.2542997483096663
0.7223126320960426 12.988021021004458 15743.843733465843 14.906722701031933 0.25789817844058316
0.7448927320357156 12.986652829582026 13646.652139605934 15.608823157659417 0.26154877354629075
0.767806496716229 12.986744901295715 11846.634753948909 16.340970237938805 0.26525258307157135
0.7910443026367566 12.98812619237667 10299.535898802571 17.104818919410373 0.2690147067241984
0.8146114680852053 12.990646985125418 8964.82404743724 17.90182263471788 0.2728375739053951
0.8384873895793808 12.9941026409925 7814.748453383061 18.73339831484736 0.2767227352721333
0.8626601613737745 12.99836084518066 6821.490488586736 19.600785577568313 0.2806697423099615
0.887128019435179 13.003317908779435 5961.616628459691 20.50611802133217 0.2846854047067478
0.9118800462060231 13.008798963751435 5216.3810705260275 21.45118762072813 0.2887727315333216
0.9368925533459294 13.014692877679956 4570.119477024664 22.437544037241206 0.2929321796970679
0.9621630366706826 13.020884524846306 4008.9491104513822 23.4670789877731 0.29716648583358113
0.9876818563622879 13.027274724241334 3520.468724017527 24.542275645786674 0.3014822635552294
1.013421277790352 13.033748728822511 3095.566725905947 25.66515345446641 0.3058817269732221
1.0393723735538714 13.040192239201929 2724.560186929612 26.83751566634279 0.3103649764275738
1.0655189616440213 13.046519729326434 2401.0879835918595 28.062530754325653 0.31494130625901967
1.0918403546589026 13.052641297166609 2118.4072421645933 29.34234343476729 0.31961179013802077
1.118331473501183 13.058482225674476 1870.784799594661 30.679524780604634 0.32437985962512034
1.1449570027199696 13.063944488667119 1653.9365014803782 32.07766162434258 0.32925484553305556
1.171711050731808 13.068959711464217 1463.8729599448234 33.53848890695984 0.33423311596811384
1.198560413366633 13.073419712837019 1297.0333870735499 35.06664182061803 0.33932887638690756
1.2255002021975998 13.077296995237894 1150.4478181069794 36.66426034083053 0.34453961208027895
1.2524896076134933 13.080459473491342 1021.4812373915527 38.3361637575554 0.3498783639338343
1.279524328854838 13.08290875516097 907.8687768407261 40.084807937519386 0.35534302067865414
1.3065626522408635 13.084511600893142 807.8414888867584 41.91556547821936 0.3609475691253342
1.333592894683894 13.085236693405651 719.4694433167576 43.831752668235104 0.3666930427265394
1.36059581667275 13.085038150404227 641.4515132131523 45.83834676698775 0.37258882009274663
1.3875222844433606 13.083796609923667 572.5638298058295 47.940528121169464 0.3786440325334213
1.414372926458101 13.08151934002688 511.5025475034839 50.142870724842496 0.38486342612466107
1.4411004185809368 13.07810221693496 457.49527110971167 52.450927088434156 0.3912557237441924
1.4676817380970493 13.07350457550863 409.5692096949315 54.87093561926993 0.3978317226812786
1.4940894832485399 13.067649795891791 367.0572756411269 57.40907519509663 0.40460046552866497
1.520298603417081 13.060523793646587 329.29739597679287 60.07196181893804 0.4115717034532172
1.5462792798893097 13.052058402083587 295.71150700441416 62.86668796017042 0.41875595451272263
1.5719926071446189 13.042200472225767 265.83683767579856 65.8008656607313 0.4261645667300368
1.597415759645223 13.030896481197754 239.25993057652732 68.88267378846597 0.4338097864813965
1.6225018862722322 13.018101914208899 215.52810775756663 72.12090986710056 0.44170483282391654
1.6472540875345902 13.003786345333946 194.378487250718 75.52504696615947 0.44986397846279264
1.6716029154546814 12.987881253363451 175.48826418551738 79.10525564763726 0.45830246879352826
1.6955420057816257 12.97035942331818 158.60099902360176 82.87121170157734 0.46703145732799356
1.719014278614903 12.951168515313956 143.492163539496 86.83587025234772 0.4760734843346023
1.7420132238902588 12.930273836719278 129.9820293191478 91.01107478779258 0.4854440069664559
1.764499187305964 12.907660830315287 117.85464472549289 95.41031629854025 0.4951626228768927
1.7864252639065794 12.883251693855758 106.97143354839497 100.04782648296462 0.5052491417273672
1.8077676458500769 12.857027175320653 97.22787920884572 104.93980587595637 0.5157280586180988
1.828494873014938 12.828955696654063 88.4636544707275 110.1025317792747 0.526621010228039
1.8485702308146792 12.799002329641736 80.58510142575491 115.55393981332733 0.5379526113520166
1.8679638316988905 12.767136070918868 73.49000930472913 121.31418255110015 0.5497520661199696
1.8866419038998197 12.733329350512589 67.10773278027897 127.4045323360057 0.5620487226523201
1.9045729952680912 12.697551680623997 61.34893002241139 133.84775397028673 0.5748731331678297
1.9217248855302884 12.65978216018192 56.15625686370406 140.66872392281422 0.5882588548163665
1.938056723078441 12.619964689466212 51.46884834119576 147.89542868964494 0.6022453971000165
1.9535517339208308 12.578116985621008 47.234455290605396 155.5567296163368 0.6168699055802418
1.9681876739501756 12.534260460101374 43.403600171656436 163.68551740373022 0.6321775376720244
1.9819194180120827 12.488312408133698 39.93801045431032 172.3158423966045 0.6482109802585289
1.9947194718961294 12.440282310585783 36.796915646734206 181.48697575354444 0.6650235217612126
2.006568529611686 12.39016118933644 33.9559272687194 191.24064756278196 0.6826688757218472
2.0174366847533345 12.337955279033434 31.371551706560084 201.62277393602426 0.7012061211676621
2.027290818389015 12.28362313264031 29.03423486660161 212.6836760893916 0.7206994113784837
2.0361200707477503 12.227210805506651 26.907829786428323 224.4777021477846 0.7412156306429171
2.0438841056300086 12.168675897491106 24.97683903444677 237.06687075113084 0.7628350384184404
2.0505651719902573 12.108029899970282 23.220380474359377 250.51690740350088 0.7856368731687952
2.0561526525429787 12.045310852805557 21.622949295901467 264.9015416580189 0.809711756945281
2.060627102573851 11.98054300653849 20.168771390563922 280.30229435297616 0.8351591339980979
2.063963205606383 11.913718322959175 18.84677011864411 296.8082062625857 0.8620842555303453
2.0661420460105617 11.844861992403189 17.64179700792215 314.5191817262222 0.8906066555588492
2.0671606747292763 11.774034069175 16.54566224335308 333.54514953911286 0.920854603436708
