M[M_sun], R[km], Lambda[1], P_c[MeV/fm^3], rho_c[fm^-3]
0.24162668629717493 15.618656898711224 2160425.4255784233 3.5677272577965504 0.1711233750220791
0.25364501397780265 15.277253443558491 1723165.25244725 3.7848405524029576 0.17388843413989552
0.2660418545605494 14.981225539451936 1383004.387932424 4.011445520020797 0.17666719326561314
0.27881826710389856 14.723486648984126 1116475.7401598468 4.24779760190114 0.17945831900658812
0.291974233803493 14.498323464443226 905784.6818422823 4.494522258860473 0.18226838263115527
0.30551084065281736 14.301143200190873 738608.6114562218 4.751775987422152 0.1850931078534564
0.3194289352884331 14.128065175323265 605033.3767840696 5.020239665095522 0.18793908246622226
0.3337281315727913 13.975900837595502 497634.27511444443 5.3001392429798235 0.19080296649469258
0.3484111156719836 13.841897840853543 410947.82642593473 5.5922012246577815 0.19369101366052804
0.36347546616052523 13.72388969993156 340605.05744486145 5.8965955804600965 0.19659833653589684
0.3789297030272622 13.619948443444178 283252.3254776788 6.214185330605105 0.19953259336284063
0.39476509226934475 13.528359566594009 236372.44495439754 6.545225368362191 0.20248991740772346
0.41099121937885535 13.447788706525635 197831.40454218214 6.890423205648314 0.20547410599104698
0.427600832659575 13.37699021862326 166050.02036265802 7.250481810411164 0.2084881925945742
0.4445978719221707 13.3148603929136 139776.3610314403 7.625656656725079 0.2115276674959161
0.4619800999138323 13.26049060150012 117948.85436568134 8.016903809370572 0.2145988011304576
0.47974820597377177 13.213096585615302 99785.989540066 8.424925247791201 0.21770318947277104
0.49790759803275203 13.171928127723664 83747.66129529805 8.85015723158009 0.2208382330996304
0.5164491957338531 13.136336126864522 71923.03396085312 9.2934823581111 0.22400747029425264
0.5353687338795443 13.105797256617272 61259.968925856105 9.75578140527627 0.2272137583490989
0.5546778929235872 13.079782000019389 52290.47142284928 10.237862630575103 0.23045842785391357
0.5743625758375627 13.057801621265817 44717.3212056115 10.74019522800372 0.23373814973338172
0.594421549703193 13.039494800839716 38317.94297590156 11.264032854210422 0.2370592218889458
0.6148617147464399 13.02448312122092 32891.52437453752 11.81030861145269 0.24042319778627763
0.635668075863739 13.012424927080383 28284.0139154248 12.380001881429047 0.2438317110514113
0.656840708995055 13.00301055221777 24363.129387736728 12.973792523937846 0.24728260755390213
0.6783742467518127 12.995967485140964 21021.233230874117 13.593025861930403 0.25078087840789026
0.7002659433837563 12.991050334301699 18166.305147151543 14.238891305127366 0.2543290617279065
0.7225023552369223 12.987992871714475 15724.011399460464 14.912579032702949 0.2579291430736887
0.7450931273529381 12.98664421419878 13629.482694516812 15.61510557106235 0.26158088507631705
0.7680165931440063 12.986755428881903 11832.028737697827 16.34776380325577 0.26528644729079137
0.7912646001636594 12.98813557024331 10285.996572952774 17.11215772844608 0.26905039286740984
0.814841670000184 12.990675922721884 8953.087193399893 17.909743039367964 0.2728751556591237
0.8387264830019335 12.994140714852271 7804.689737537278 18.74186518647216 0.2767616361663722
0.8629096946267407 12.998411476374754 6811.52530495809 19.609908996403743 0.2807106733364369
0.8873937232720805 13.003376430039484 5953.109197438591 20.515941893242395 0.28472845443667383
0.9121527605803725 13.00885738916058 5209.075127641867 21.46175885793896 0.28881799450976564
0.9371752651522866 13.014755114691248 4563.440781619818 22.448818606357666 0.2929790078384115
0.9624624911778392 13.020959542424636 3980.444249816915 23.47919836299538 0.2972157062173761
0.9879852760130403 13.027349238900594 3515.113659043447 24.55529686515964 0.30153399067833514
1.0137293421948792 13.033810173315265 3090.429902858524 25.679026117997882 0.3059352642535142
1.0396967889429916 13.040271985256584 2720.244665565859 26.85240935266055 0.310421242092583
1.0658514188035952 13.046590167226768 2397.1857909506793 28.07851517168032 0.31500043956937196
1.092186210340769 13.052728823244028 2114.716073455819 29.35936193592476 0.3196730462927747
1.1186856467045483 13.058557570405846 1867.5431564669009 30.697780526723143 0.3244442579524962
1.1453197268399027 13.064021172527351 1651.3298876841884 32.09709503746588 0.329321616826433
1.1720858166198778 13.069022835785894 1461.4036775727116 33.55932791221068 0.33430334556440056
1.1989432465852625 13.073481874629007 1294.8243326959787 35.0889847603418 0.33940275843138945
1.225891958445211 13.077345678578006 1148.5013501675387 36.68804238360557 0.34461632926889013
1.2528897927379024 13.080506422214977 1019.6808987401587 38.36159957233317 0.3499587800408039
1.279934855944729 13.082946774262668 906.2550488318271 40.1119489152141 0.3554269857964268
1.3069875498234993 13.084544343703856 806.3736322445667 41.944464872431176 0.36103493637227557
1.3340200157604805 13.085242741032616 718.1662458826954 43.86273444624525 0.36678513659338124
1.3585230386471396 13.083714080330695 646.4869890911984 45.97499722164835 0.5975502349161532
1.370428183493193 13.068875462721973 608.3941934511436 48.618606897498815 0.9271644254020147
1.3740332885995203 13.039775983672138 586.9411984778928 51.81525745372918 1.2321571328227736
