M[M_sun], R[km], Lambda[1], P_c[MeV/fm^3], rho_c[fm^-3]
0.24162668629717493 15.618656898711224 2160425.4255784233 3.5677272577965504 0.1711233750220791
0.25364601883629895 15.277233336259629 1723191.2810850625 3.7848598124956307 0.17388867420765933
0.2660439119403043 14.981172417009951 1382898.970714122 4.011486009088478 0.17666768255210105
0.2788222262716895 14.723421788802083 1116249.1226191795 4.247860690275895 0.17945905073666313
0.291979149597132 14.498267085400332 905718.4019066031 4.494609602571045 0.1822693552236439
0.30551681798577474 14.301082018213958 738525.8748639346 4.751890552818415 0.1850943453783874
0.3194365879661498 14.127959734793874 604970.5316362664 5.020382296662504 0.18794056232378042
0.33373800513619234 13.975773298973463 497565.2705722413 5.300313696549138 0.19080472295266476
0.34842153966219425 13.841854258084396 410899.2534840518 5.592407936379378 0.1936930136532989
0.3634873491173208 13.723820780663727 340564.3609986302 5.896839195267015 0.19660062461771782
0.3789436919704573 13.619847037802066 283207.97572531615 6.214468797417467 0.1995351782388531
0.394779255941339 13.528294813284246 236319.19763764873 6.545548393448671 0.20249274990134636
0.41100854359372 13.447730140181502 197795.62818811796 6.890792026122426 0.20547724702097403
0.4276195202161496 13.376914002775854 166004.61008173833 7.250899888237809 0.20849165124528987
0.44461826944751515 13.314798690414833 139743.49790766396 7.626122836914762 0.21153137858997884
0.46200261207302323 13.260434920872232 117928.59905087083 8.017426224710162 0.214602842435464
0.4797733311335395 13.213036125001178 99766.57350238696 8.425507973192055 0.2177075707531503
0.4979340885797021 13.171878222166857 84596.56740892833 8.850798118882562 0.22084287339753036
0.5164778295788228 13.1362971138023 71904.72091647338 9.29419178082885 0.22401246467441294
0.5353996247201466 13.10577825097823 61245.894001981265 9.756564174913386 0.2272191176043787
0.5547124315140243 13.07971439546141 52274.565737611585 10.238715475099559 0.23046405555026334
0.5743987318020343 13.057787478088912 44705.73139423635 10.741131157568349 0.23374415869110132
0.5944601612961217 13.03945396013465 38306.53970619542 11.265057570689544 0.23706562433605094
0.614902744313745 13.024447864828383 32882.2321549652 11.811428170224525 0.24043000657155295
0.6357113685493359 13.012401212037414 28274.908843937214 12.381222715730006 0.2438389397018968
0.656886814726355 13.002983373388709 24354.775716093547 12.975109027382317 0.2472901321477331
0.6784240093323287 12.995954570030408 21014.308985317857 13.594456733156498 0.2507888451155238
0.7003170743621931 12.991050744387753 18159.820061541326 14.240444218620388 0.25433748635939607
0.7225580919148998 12.987998889731957 15718.879179226788 14.91426215614807 0.25793804238180124
0.7451507356477735 12.986645275326739 13624.671363204125 15.616911171540847 0.261590114108261
0.7680767352937794 12.98675604207818 11827.724563195146 16.349716337964306 0.26529618018660084
0.7913285009707014 12.988147654334343 10282.321904923967 17.11426699987242 0.2690606495400969
0.8149060322299876 12.99068270699153 8949.165661062443 17.912019500022726 0.27288595730215576
0.8387953698542332 12.994152862735143 7801.553739067485 18.744298738145286 0.2767728170771568
0.8629821561727866 12.998428144268576 6808.929229827746 19.612531288925645 0.2807224379091893
0.8874678938224929 13.003397319215194 5950.632445610348 20.51876555175472 0.28474082814609003
0.9122305389553634 13.008876613123721 5206.978336272737 21.464797372296285 0.2888310045483295
0.9372567652724052 13.014780311935068 4561.883727841953 22.45205931725039 0.2929924679064789
0.9625445872508919 13.0209932284868 4001.0436332851336 23.482681949679662 0.2972298540979754
0.9880721009186638 13.02736827596715 3513.476489682505 24.559039730020597 0.3015488593036063
1.0138196778170554 13.033833892579464 3089.506503780133 25.683013770297286 0.30595065337171606
1.039789449410888 13.040298102532113 2719.0165938004748 26.85669055565882 0.31043741570659616
1.065946305709906 13.046622582726751 2396.2022085212116 28.083109972343724 0.31501743773499835
1.092284442745668 13.052744915933715 2113.881953198448 29.36425404615171 0.3196906548858207
1.1187874127853135 13.0585775888563 1866.628466941132 30.703028370191664 0.3244627700603832
1.1454246118325484 13.06403659749345 1650.4478525479637 32.10268148256204 0.32934081130154075
1.1721930262992721 13.069045450265 1460.7475554227867 33.56531850677059 0.33432353448572355
1.1990536915300685 13.073491937354833 1294.248534842835 35.0954077885615 0.3394239976444251
1.2260054029961003 13.077356415905346 1147.914315776497 36.6948792018886 0.3446383837863544
1.2530041273200476 13.080514973045517 1019.2057660305203 38.36887793471791 0.34998169890620195
1.2800527445764782 13.082948907331346 905.8065441576404 40.11975157420164 0.3554511246166343
1.3071077626064342 13.084549781819279 805.9538051331845 41.95277315944725 0.3610600535826251
1.3341425436774765 13.085241227738615 717.8039604764748 43.87164154150071 0.3668116130868909
1.361154272844834 13.085024535996023 639.938724481821 45.88083325383493 0.37271236502514526
1.3880953508946356 13.08377552295992 571.180963429488 47.98579368839628 0.37877287294979184
1.4010820282832264 13.075494298013803 538.0023567750053 51.01648271433856 1.6824394327843124
