M[M_sun], R[km], Lambda[1], P_c[MeV/fm^3], rho_c[fm^-3]
0.24162668629717493 15.618656898711224 2160425.4255784233 3.5677272577965504 0.1711233750220791
0.2536457164113782 15.277225729889429 1723078.829762416 3.7848586924338536 0.1738886602466296
0.2660438139752237 14.981205454192326 1382990.7762422948 4.011483654457465 0.17666765409777485
0.27882180317797256 14.723401495735262 1116284.241329936 4.247857021376107 0.1794590081829545
0.2919789412995098 14.498259909039172 905766.2321893855 4.494604523087743 0.18226929866241845
0.3055164210967427 14.301078855174135 738515.7909051252 4.751883890233299 0.1850942734097524
0.319436539970071 14.127959547233914 604974.7906141087 5.020374001855319 0.18794047626195437
0.3337374407907814 13.975817302801048 497575.10679800727 5.300303551086051 0.19080462080468585
0.3484209370277683 13.841859347039064 410902.40780164 5.592395914886563 0.19369289734204892
0.36348809296811563 13.723812077779495 335633.32768537995 5.8968250276006575 0.1966004915519972
0.37894276278669276 13.619852813064298 283214.63418335083 6.214452312066664 0.19953502791230346
0.39477921517957965 13.528296623919102 236328.17942098738 6.545529607486585 0.20249258517383747
0.41100744819599666 13.447716283193142 197791.99284368058 6.890770576802909 0.20547706434956817
0.42761942408847753 13.376906678025534 166022.04855698693 7.250875574208794 0.208491450101559
0.4446178892639812 13.314787990542882 139746.72228642507 7.626095725338214 0.21153116276439682
0.46200135068287346 13.260437240209853 117923.86597858732 8.017395842584438 0.21460260740515863
0.479771405904113 13.213044002088274 99768.300213716 8.425474083512903 0.21770731595013998
0.4979327297790078 13.171900098723535 84604.79556802606 8.850760846574035 0.2208426035300914
0.5164761327817504 13.136299908957351 71906.44489419553 9.294150522562816 0.2240121742136479
0.5353994812625739 13.10574256097094 61242.592675520864 9.756518650841286 0.2272188059224838
0.5547101916297579 13.079741374438257 52276.40837891423 10.238665875510687 0.2304637282556425
0.5743972025840133 13.057779233583561 44706.73722676988 10.741076725778445 0.23374380922214927
0.5944581467360148 13.0394783651171 38305.35491440259 11.264997975060755 0.2370652519814838
0.6149005670980142 13.024448103616102 32882.55008585439 11.811363058557028 0.24042961058397816
0.6357087058355473 13.01239454527206 28275.083773071397 12.381151713845247 0.2438385192944686
0.6568841783765236 13.002982397665644 24355.949782748074 12.975032461341174 0.2472896945276393
0.6749624757207136 12.994902708588102 21485.41567780576 13.647289972863703 0.5363585899136704
0.6759028945330835 12.973616344128327 21070.748241301477 14.68224461524746 1.0424634248459823
