M[M_sun], R[km], Lambda[1], P_c[MeV/fm^3], rho_c[fm^-3]
0.24162668629717493 15.618656898711224 2160425.4255784233 3.5677272577965504 0.1711233750220791
0.25364221059246556 15.27733471408272 1723151.58502762 3.7848068965053434 0.1738880146353679
0.26603782853614605 14.981319626363259 1383025.703088334 4.011374768419375 0.17666633827426467
0.278812111938814 14.723628383197635 1116459.7093818733 4.247687360765998 0.17945704037555033
0.2919659950676522 14.498471268816095 905888.9395762109 4.494369635180845 0.18226668313106048
0.30550085253932413 14.301289146249202 738735.5412515281 4.7515757986887595 0.1850909454330698
0.31941610385613356 14.128200851622747 605150.3780801275 5.019990436462287 0.18793649662295903
0.33371322751364046 13.976003305570792 497734.9500337318 5.299834412679942 0.19079989735937772
0.3483928897695702 13.842092485647767 411046.57886553777 5.591840031395523 0.19368751901635484
0.36345483172703424 13.724038320238407 340690.9506130214 5.896169909227959 0.196594338541603
0.3789074339944574 13.620055114356818 283341.0210184005 6.21369002989411 0.19952807681673723
0.394737673954428 13.52854268614768 236433.19253582126 6.544660952212353 0.20248496824057824
0.41096186183082184 13.44791340913243 197894.72282061237 6.889778777665192 0.20546861777191902
0.4275684402933319 13.37710104923489 166101.4639660372 7.2497513230356505 0.20848214945972446
0.4445612616409183 13.314980915849022 139827.1655065858 7.6248421287555015 0.21152118332953848
0.4619415577226678 13.26061726651829 117998.79172071094 8.015991033014888 0.2145917400673984
0.4797043379973536 13.213226530101382 99827.15991484124 8.42390710497583 0.21769553446213702
0.4978599366906448 13.172028804744555 84661.90973018338 8.849037476195992 0.22083012559221488
0.5163962194121324 13.136440773775103 71950.15520147703 9.29224286840715 0.22399874420946364
0.5353138298318757 13.105876483774676 61291.334504638835 9.754413776738335 0.22720439484020022
0.5546185171916055 13.0798564430416 52311.656944857605 10.236359566258502 0.2304484280627745
0.5742989642392313 13.057887221512223 44740.465320723786 10.738560029104384 0.23372765124992675
0.5943547198785984 13.039541226934473 38336.93491413124 11.262242547109912 0.23704803601778388
0.6147891446502322 13.024522022585256 32908.928124415805 11.808352619296967 0.24041130209046999
0.6355881502114032 13.01244825370183 28300.186534614695 12.377868967476486 0.24381908190962961
0.6567594838088097 13.003028878173126 24377.167283566418 12.971492482904779 0.24726946146253334
0.6782901825815576 12.995985475561227 21032.913088707945 13.59052603149351 0.25076696002176224
0.7001756043421672 12.99106923597522 18040.893584777645 14.236178280859804 0.25431434343884574
0.7224060035021365 12.988007779540665 15733.818000861573 14.90963854888722 0.2579135956273312
0.7449927287871412 12.98665544739895 13637.55327736268 15.61195113656457 0.2615647616995835
0.7679104259026944 12.986757363675208 11839.018311117015 16.344352698763 0.2652694437904295
0.7911537675145661 12.988122260665738 10291.873478356249 17.108472833360025 0.2690324744704165
0.8147259965536391 12.99065937321568 8959.278619211764 17.90576609797535 0.27285628535658063
0.8386068191497633 12.994115199650974 7810.0066218475 18.737613838438573 0.27674210342186445
0.8627842277108264 12.998394411683968 6816.626361479061 19.605327961618418 0.2806901211224626
0.8872570387712216 13.003343139505166 5956.876340051582 20.511009122036295 0.2847068382684104
0.912015428468447 13.008832583341272 5212.791956033479 21.45645079068111 0.28879526690291474
0.9370337162599194 13.014725671775288 4566.66663005796 22.443157355072607 0.29295549422360107
0.9623101000909489 13.020926014207106 4006.0672564041743 23.473112880012703 0.29719099126281023
0.9878334524402013 13.027314721290402 3517.8120584032913 24.548758505055513 0.3015080168775467
1.0135724662868262 13.033783683236027 3093.2677221838508 25.67206019060408 0.3059083813981396
1.039533400696495 13.040229424041835 2722.4478469621954 26.844930694435448 0.3103929890684871
1.0656829936801686 13.046560193947343 2399.1113971950676 28.07048877332986 0.3149707464317281
1.0920126924284348 13.052679104425836 2116.441771150576 29.350816245319674 0.31964228705367714
1.1185082948104255 13.05852092520164 1869.269458292985 30.688613512530033 0.3244119207159223
1.1451367262722334 13.063985638838352 1652.734166210207 32.08733661990254 0.32928808786485086
1.1718980482753012 13.068988792650705 1462.7020386628874 33.548863621187785 0.3342680798247398
1.198750274153026 13.073450374877245 1295.895222694342 35.07776520407303 0.3393656584004372
1.2256951279201125 13.07731890424956 1149.5201878186558 36.67610012152632 0.3445778053800449
1.252688511815392 13.08048230332078 1020.5682354870235 38.34885611833008 0.3499185705503264
1.2797288411470586 13.082930005939087 907.1001364924628 40.09831979976274 0.35538482186641357
1.3067702555813896 13.08452289634254 807.0822059323089 41.92995267786419 0.36099106380951174
1.3338060694497147 13.085234038362623 718.866241579399 43.847176459366224 0.3667388902103785
1.3608120271018973 13.085035080238823 640.888066202383 45.854774840053956 0.3726365906976381
1.387742311924285 13.083779004255968 572.0555462177485 47.958030623480695 0.37869385030492975
1.4145967787894318 13.08149493618304 511.04258460481077 50.1616395137203 0.38491601833946
1.4413190735872572 13.078049936826444 457.07180207321284 52.47093237737201 0.3913106507722817
1.4679111793574129 13.073456938166554 409.17996600102407 54.89226596063402 0.3978891401240525
1.4943204517492708 13.06759673728362 366.6909566982428 57.43182631269269 0.40466054101388227
1.5205305107662421 13.060457932622366 328.98203348696427 60.09623724994893 0.41163461762237213
1.5465130817679762 13.05197634156574 295.4163994129403 62.89259976113303 0.418821902106252
1.57222986059672 13.042102188850475 265.5852240539291 65.82853518468201 0.42623375778085465
1.5976521482989827 13.030782342878421 239.0300549061763 68.91223254125293 0.43388244762848877
1.6227329659862473 13.017942930612316 215.33468515083334 72.15250045184284 0.4417812087591195
1.6474916597684686 13.00363948947251 194.18432551800012 75.55882412594627 0.44994433352546365
1.6718400904908808 12.987714852834962 175.31172195287022 79.14121111865042 0.45838635249604465
1.6957779095190468 12.970173873473868 158.43419186359333 82.90969615147218 0.467119894481767
1.7192425487712113 12.950938079749903 143.3487193419226 86.87708171221641 0.47616680801478084
1.7422456585925328 12.9300448215749 129.83766595918684 91.05503041447986 0.48554179205635056
1.7647263100311603 12.90740707594794 117.73322847158633 95.45743936109388 0.49526602139820397
1.7866525419703898 12.882984417315056 106.86521023808541 100.09815800748848 0.5053577549737184
1.8079937534201909 12.856738441091371 97.12801915389255 104.99360675860014 0.5158423049051639
1.8287061720697635 12.828616643505965 88.37080548526104 110.16031412531227 0.5267421889622265
1.8487874038304992 12.798662875641455 80.49974254652065 115.6157942261005 0.5380803812244891
1.8681758836564748 12.766768870639773 73.4140707903811 121.3804490740293 0.5498869604766818
1.8868493949364198 12.732932633248838 67.03929131622489 127.47558286280756 0.5621913204926894
1.9047745038817705 12.697129828045034 61.28394979676603 133.92373439495472 0.5750231421178369
1.9219201243352237 12.659331091035876 56.10029438490711 140.7503313941103 0.5884178572042041
1.9382370182989845 12.619456516909654 51.4164165945066 147.98315169868044 0.6024141366723881
1.9537485777982508 12.577665030377435 47.18415560937728 155.65081590235133 0.6170482085104093
1.9683582732761045 12.533718854727914 43.35846971606447 163.7868067034257 0.6323671562581733
1.9820790965642556 12.487735719285066 39.897543500508846 172.42472475998164 0.6484120196375533
1.9948744685165771 12.439676480756399 36.761911006741904 181.60411556025792 0.6652368935433767
2.0067075640113967 12.389518908994583 33.91752838058417 191.36680515582225 0.6828956707398885
2.017568450227442 12.337278656488847 31.342361397646357 201.75878804028366 0.7014475327860376
2.0274101612084023 12.282911825846893 29.003756718020984 212.83013012202383 0.7209556239465074
2.0362276308051634 12.226464021727244 26.882023049511595 224.6359509754499 0.7414891675089068
2.0439786727255362 12.16788927763101 24.952866061418295 237.23768500207268 0.7631262924075606
2.0506462905692744 12.107204839171061 23.198003044629797 250.70189119364 0.785948714025437
2.056220328751047 12.044456404411642 21.60267050890461 265.10170192165197 0.8100448352530325
2.060681087473799 11.979648638048744 20.150534564471887 280.5190101967788 0.8355150013157031
2.064000192439189 11.912786318230419 18.82967424161705 297.0430531330827 0.8624647495406745
2.0661638534763753 11.843892575304814 17.62593866478275 314.77429236833007 0.8910150375204624
2.067165537663753 11.773022013202402 16.53010036556135 333.82220572031343 0.9212921915438227
