M[M_sun], R[km], Lambda[1], P_c[MeV/fm^3], rho_c[fm^-3]
0.24162668629717493 15.618656898711224 2160425.4255784233 3.5677272577965504 0.1711233750220791
0.2536414157605441 15.277371862143118 1723287.2954033883 3.7847892340917126 0.17388779448190264
0.2660361899342477 14.98135262349445 1383058.800231098 4.0113376387595565 0.1766658895842382
0.2788098395609185 14.723607166846925 1116564.1219003904 4.247629507972097 0.17945636937032336
0.291961836670912 14.498533497540148 906024.2895202601 4.494289541427109 0.18226579126852385
0.30549618810649787 14.301328097202665 738747.2837986085 4.751470744742152 0.18508981064994798
0.3194093369195321 14.12827986762542 605198.1950532746 5.01985964876121 0.18793513965008093
0.3337050874718876 13.976116013658201 497820.40445570095 5.2996744483261224 0.19079828678376362
0.3483840427182518 13.84216419073262 411089.65332406206 5.591650491298601 0.19368568516377643
0.36344339268851544 13.72416664278948 340724.72363277565 5.895946535568136 0.19659224056891902
0.3788950809115877 13.620132419842431 283372.5236954746 6.213430119983286 0.19952570675130243
0.39472520546092354 13.52856879375955 236464.8024505559 6.544364776203082 0.20248237117709114
0.4109456349287769 13.448024441511484 197929.48997435774 6.889440618518228 0.2054657378667205
0.4275505702400434 13.377201753632667 166140.49330604207 7.249368008058131 0.20847897839315066
0.4445433078698595 13.315038306613769 139858.0521172037 7.62441471766579 0.21151778086243994
0.46192060810522423 13.260675878990098 116711.76720706346 8.015512071573356 0.21458803491342446
0.47968120799031144 13.213271075112944 99849.84137624926 8.423372858982082 0.21769151767912623
0.49783485501364266 13.172086150698961 84676.83009332229 8.84844991572352 0.2208258714033489
0.5163692208464696 13.136495344505681 71967.7661886367 9.291592485998622 0.223994165476761
0.535283161530313 13.105936261358092 61303.03127921215 9.753696163439557 0.22719948167970194
0.5545865757598396 13.07988278207952 52321.184104300235 10.235570045244636 0.23044317016081528
0.5742650552684886 13.05790433161035 44751.44708732552 10.737702030954669 0.233722142636031
0.5943186490851807 13.039580131641557 38347.266619912894 11.2613031703706 0.2370421667749174
0.6147508551068991 13.024547493166134 32918.49074587428 11.807326315622898 0.24040506045178178
0.6355482256294608 13.01246463099052 28307.730544261925 12.37674984241986 0.24381245548712693
0.6567161178951655 13.003049616267829 24383.823923153315 12.970285675596084 0.24726256384683148
0.6782440418466444 12.995999667149604 21040.40444488762 13.589214407282752 0.2507596572495619
0.7001268651250415 12.991076470857704 18183.085066000305 14.23475480838524 0.25430662103119867
0.722355754122612 12.988018638380842 15738.776860919743 14.908095745065186 0.25790543824195983
0.7449396184793009 12.986655166795234 13642.18081730385 15.610296088751106 0.2615563021929977
0.7678557644308661 12.986756441829403 11842.824431763245 16.342562997389418 0.2652605225779548
0.7910948192899796 12.988130961360827 10295.460393517309 17.106539498055465 0.26902307331551273
0.8146659041899724 12.990652686750925 8962.174393900183 17.90367955305507 0.272846384850129
0.838543221311735 12.994104163958571 7812.224231384966 18.735383337851285 0.27673185542575784
0.8627178553080415 12.998389720669648 6819.265503027212 19.602924507989325 0.28067933834180775
0.8871904057267962 13.003316778495739 5959.713647161094 20.508421149953428 0.2846954973734719
0.911944211608846 13.008811894211304 5214.699833455136 21.453665942859622 0.28878334299099884
0.936958710810882 13.014702484990204 4568.422147529226 22.440187230994944 0.29294315801911464
0.9622321393157888 13.020898563223305 4007.54013268794 23.46992021309672 0.29717802489383066
0.9877527775484815 13.027293914526943 3519.394555998375 24.545328270897333 0.30149439018564483
1.0134904589417921 13.03375262129126 3094.170273464855 25.66840566560015 0.30589427788232765
1.0394477738653303 13.040211256799907 2723.6013207431547 26.841007209398274 0.3103781668485168
1.0655979122466415 13.046540984758733 2400.0247041778703 28.066277966588338 0.31495516882659214
1.0919210710468017 13.05266489699499 2117.2983636774497 29.34633303869587 0.3196261502625344
1.1184148867057326 13.058501930080853 1870.0776842129553 30.683804391448454 0.3243949562296838
1.1450408345516072 13.063953890487428 1653.4527840188255 32.08221727802892 0.329270498310408
1.1717990720605447 13.06897770575976 1463.2946527931365 33.543374021399906 0.33424957930745325
1.1986498900754243 13.073436993936149 1296.511253089827 35.0718794427478 0.33934619578336817
1.2255921256847642 13.077303239149462 1149.995577990734 36.66983527590817 0.344557595957858
1.2525823600931516 13.080477723534013 1021.024695835002 38.34214012355275 0.34989729575116424
1.2796199929215926 13.082923399329875 907.4989571146021 40.09117016006321 0.3553627032697235
1.3066608790210046 13.084513462148363 807.4779231616836 41.922339845966015 0.3609680490653446
1.3336931065801392 13.08523275442522 719.1844242791301 43.839015102254095 0.36671463043629815
1.3606971457802801 13.085037918980762 641.1883717343445 45.84608205523161 0.3726113132602003
1.3876249084612067 13.083789043880557 572.3186277957611 47.94876928995944 0.37866748956010476
1.41447802867804 13.081508015703635 511.2758702410466 50.151708102499015 0.3848881894307538
1.4412066385743287 13.078085452208173 457.28387094261967 52.460346651030875 0.3912815863338779
1.4677923555469359 13.073476330686594 409.39578965947885 54.88097905792356 0.39785875781186114
1.494197393889788 13.067624753578745 366.87865165737475 57.41978757709016 0.40462875211913146
1.5204081915620378 13.060491496659393 329.1474198807426 60.08339188991185 0.4116013265490286
1.5463897715919255 13.052019825472861 295.57224972068 62.87888847645765 0.4187870057966577
1.572103320108864 13.042154789303924 265.713446643606 65.81389375519316 0.4261971450840257
1.597527222959342 13.030842167060216 239.15209170278504 68.89659137359155 0.43384399860486694
1.6226142555463294 13.018042064530128 215.4434308850838 72.13578407959874 0.44174079391483095
1.6473661662536814 13.003717110915206 194.29130354369875 75.54095065779164 0.44990181296829485
1.6717149501322526 12.987802180401577 175.404212153469 79.12218492892606 0.45834196461309146
1.695653348653462 12.970274460530836 158.5168407856228 82.8893316621286 0.4670730969445665
1.7191209679062223 12.951061235866536 143.43399126702516 86.85527412211047 0.4761174245527294
1.7421226486627157 12.930164843699382 129.91371677024227 91.0317706452443 0.4854900476314147
1.7646075689588245 12.907545935879925 117.79096970083876 95.43250340970599 0.49521130635293154
1.7865335965330513 12.883124913473534 106.92845742876177 100.07152416356574 0.5053002802940096
1.8078742884964072 12.8568921646663 97.17914132916555 104.96513695046376 0.5157818492079113
1.8285885200170464 12.828781508229124 88.4183949273062 110.12973733170384 0.5266780645817007
1.848672762278105 12.798843113302496 80.54617582904194 115.58306249890484 0.5380127687709535
1.8680629739135683 12.766963173363333 73.45545031788537 121.34538245219721 0.549815577685115
1.8867395330445913 12.73314258787581 67.07370449907674 127.43798452805872 0.5621158609348508
1.9046693693620578 12.697352101564388 61.318858234435574 133.88352713873098 0.574943760509809
1.9218175832755169 12.659568656133183 56.12952047714927 140.70714625635148 0.588333716133372
1.9381455426136842 12.619738677725978 51.44386993883959 147.93673014947993 0.6023248425128848
1.9536387851475263 12.577873796789738 47.21158289961468 155.60102683141082 0.6169538532370208
1.9682690277470303 12.534004833399424 43.38211687674273 163.73321780325483 0.6322668535233271
1.9819958716657355 12.48804237677414 39.9194895850785 172.36710535301128 0.6483056317025583
1.9947944547055705 12.439997434423749 36.78086191979383 181.54212614680083 0.6651239789672326
2.006634601318646 12.389859274381335 33.93953036495344 191.30004332075939 0.6827756521883083
2.01749896212277 12.337636641032347 31.35763835924169 201.68680988145303 0.701319778654173
2.027348331416412 12.283290195394283 29.019729912358866 212.75262686649685 0.7208200366378354
2.036170973049387 12.226859462322698 26.89596468239243 224.55220553390583 0.7413444115195017
2.0439303285422583 12.168304627538475 24.966540304683065 237.14728951292926 0.7629721597947
2.050602302883886 12.10763819108685 23.208991398314243 250.6039966354674 0.7857836859283364
2.0561840508949425 12.044909293986045 21.613692606693036 264.99577535630067 0.8098685672940842
2.060652686982428 11.980121978682856 20.16056969859636 280.4043886578458 0.8353268908964975
2.0639801841790963 11.913278776569124 18.837961070481725 296.91876884490836 0.8622633867244347
2.0661517893346777 11.844405501640114 17.634038783785414 314.639283452304 0.8907989148001147
2.066887272012713 11.775323643821505 16.578503934617302 334.0006137458852 1.2205412211599282
