M[M_sun], R[km], Lambda[1], P_c[MeV/fm^3], rho_c[fm^-3]
0.24162668629717493 15.618656898711224 2160425.4255784233 3.5677272577965504 0.1711233750220791
0.25364494856222736 15.277277231617198 1723220.1749575536 3.7848382278101207 0.17388840516496723
0.26604167384571614 14.981236416644167 1382978.6004150885 4.011440633221045 0.1766671342115221
0.27881755481747966 14.723481720822992 1116374.0323324534 4.247789987523557 0.17945823069128278
0.2919736414967908 14.49836518850086 905868.0412152177 4.494511717053661 0.1822682652456898
0.305510398010845 14.301164510651157 738576.1491210442 4.7517621601917455 0.18509295849297835
0.3194287999450409 14.128022611395078 605048.0710363056 5.020222450540316 0.1879389038585678
0.3337256040261437 13.97596888570409 497663.8929488358 5.300118187828046 0.190802754504251
0.34840994076483167 13.841951972466534 410960.55006274796 5.59217627629235 0.19369077227822942
0.3634744725149232 13.723899876179114 340629.9980628197 5.896566178310984 0.19659806038469022
0.3789289017488995 13.619959187678035 283266.3683875759 6.214151118796879 0.19953228139234333
0.3947625584432502 13.528393366155866 236381.97920894175 6.545186382368168 0.2024895755532234
0.4109892689776571 13.44782611413635 197837.67003125732 6.890378692754678 0.20547372690056567
0.42759900357991365 13.376993282507922 166058.59941163618 7.250431352833805 0.2084877751719679
0.44459581742459514 13.31486701121516 139780.44884709406 7.625600393879889 0.2115272196074915
0.46197890700954725 13.2605260121006 117963.7552690888 8.016840759779148 0.21459831339089452
0.4797463370139259 13.213091500176363 99788.26539521088 8.424854919706156 0.21770266070388838
0.49790486463747496 13.171926722882588 84623.0952843059 8.850079884276132 0.22083767307210178
0.5164448218746062 13.136350214661674 71922.62021122279 9.293396739710264 0.22400686753537305
0.5353648764314787 13.10580639074175 61261.309924735986 9.755686935148406 0.2272131115565976
0.5546730500515314 13.07978780166448 52291.30534324445 10.237759703623182 0.23045774866607216
0.5743583163484051 13.057820433184661 44719.34380769141 10.740082274179569 0.23373742453484195
0.5944172589735677 13.039495530076783 38320.64818911004 11.263909185445929 0.2370584492042673
0.6148556564364484 13.024497412787731 32893.56256560639 11.810173497023968 0.24042237606511754
0.6356628712711898 13.012413075970512 28284.127473517055 12.379854545017958 0.24383083866158842
0.6568351843726081 13.003011531063654 24364.51795964394 12.973633642146249 0.24728169945073392
0.6783689821423705 12.995966014705804 21021.781530075354 13.592853178281322 0.25077991695159685
0.7002604125428717 12.991054533216728 18166.91709163385 14.238703893527715 0.2543280450108317
0.7224960965642304 12.988002425327899 15724.926186824243 14.912375907548396 0.257928069074428
0.7450861599905608 12.986646834875287 13629.653117600448 15.614887665564341 0.2615797712879537
0.7680092468218355 12.986748872919847 11832.482676534742 16.34752816607157 0.26528527269852803
0.7912567341681473 12.988147296950013 10286.75272154598 17.11190317671108 0.269049155068521
0.8148321363791539 12.990672978817642 8953.445731386772 17.90946831178477 0.27287385209638537
0.8387181772963767 12.994144712710762 7805.2539275631025 18.74157150166254 0.2767602868366286
0.8629034647493337 12.998413970606519 6812.079351475392 19.609592535134553 0.2807092535743037
0.8873847569746905 13.003363339848915 5953.206640253572 20.515601132064063 0.2847269611683545
0.9121430222600675 13.00885676686903 5209.27637813079 21.461392169065697 0.28881642445419864
0.9371661132288438 13.01475316064836 4563.571755312415 22.448427517437626 0.2929773834776899
0.9624513078917697 13.020961778141148 4003.0363896819154 23.478777965296306 0.2972139988574078
0.9879737154390061 13.027349365323811 3515.2086366850695 24.554845179472437 0.30153219634552514
1.013718903150433 13.033808143704771 3090.7143693615444 25.678544892943965 0.3059334071133524
1.0396849556851844 13.040272001157946 2720.3860819581214 26.851892704105175 0.3104192902873734
1.065838259655968 13.046594599527829 2397.2938687536193 28.077960680668337 0.31499838826600746
1.0921737069774557 13.052724624327642 2114.810746444404 29.35877156793251 0.3196709213304904
1.1186742710642128 13.058556384748831 1867.6533422738028 30.69714723202659 0.3244420239644176
1.1453070245686976 13.064010022272457 1651.4055531588458 32.09642088330274 0.32931930049913
1.172072256594701 13.069016801846 1461.423289998711 33.558604989298246 0.33430090923964917
1.1989306476013837 13.073474482410973 1294.8773637218599 35.088209655861014 0.3394001953710028
1.225878146336442 13.077348001946442 1148.575407805152 36.68721734720106 0.3446136678291621
1.2528754767035923 13.080505711635107 1019.7018625407887 38.36072125513116 0.349956014304136
1.2799203716068015 13.082939337277363 906.3193631348131 40.111007332157165 0.3554240728530112
1.306966037004414 13.084524029731037 806.3761805516505 41.94346227613652 0.36103190537178415
1.3340057244200982 13.08524212873631 718.292979772806 43.86165959355502 0.366781941575313
1.3610145904699276 13.085032267979017 640.3291003084804 45.87020116230297 0.37268144834723077
1.3879478943640076 13.083769958009489 571.5435251989107 47.97446602627421 0.3787406307667435
1.414796433031868 13.081460999442484 510.5777114484048 50.179264222665594 0.38496540471620777
1.441529806977596 13.07801792227219 456.67632137657677 52.489718412888955 0.391362230187292
1.4681259691810875 13.073413358808022 408.8272899775102 54.91229650797994 0.39794305875509234
1.4945360201393307 13.067541589672008 366.3591356918658 57.45319129537691 0.40471695633923904
1.520748616311188 13.060390144010695 328.6962276643737 60.11903393304097 0.4116936993488956
1.546735110102648 13.05189747792059 295.1557418325027 62.91693341477083 0.41888383318937145
1.5724498326670502 13.042010641881497 265.3400998876492 65.85451981448499 0.426298735546442
1.5978638189254364 13.03067023755627 238.80077229433869 68.93999169315981 0.43395068500759604
1.6229626123443222 13.017849211180058 215.13620277700142 72.18216809981685 0.4418529356479307
1.6477134599218213 13.00350152428006 194.00230466103883 75.59054565204168 0.4500197982842979
1.6720627646020885 12.987561168720157 175.14598394018924 79.1749787512265 0.45846513199651784
1.6959997594143872 12.969998952616027 158.2878917327106 82.94583935813722 0.4672029514654172
1.719479537126138 12.95078168132168 143.21027968232912 86.91578655492346 0.4762544554403674
1.7424600361717608 12.929827499141584 129.7200215180394 91.09631300359277 0.48563363062155196
1.7649428132161589 12.907174541087407 117.61602497863235 95.50169740081022 0.4953631334196817
1.7868685471185197 12.88273501087457 106.76744734089777 100.14543003498252 0.5054597659582116
1.8082062011731574 12.856463486954107 97.0383766954304 105.04413791126868 0.515949607913773
1.8289192305779625 12.828329899861846 88.2909044775711 110.21437243541038 0.5268552115627024
1.8489916900834298 12.798340317230188 80.42467752492354 115.67389116326022 0.5382003894489492
1.868365436273535 12.76639366023662 73.3478374994443 121.44269099071616 0.5500136622099385
1.8870409574172697 12.732564462311021 66.97236308030462 127.54221288159007 0.5623248799489977
1.90496265003969 12.696735754040443 61.22538666617327 133.99510226567253 0.575164044454161
1.9221023325901938 12.65890635471191 56.04638475659091 140.82698592152764 0.5885672093738566
1.9384135320260463 12.619005277584868 51.36639864566636 148.0655519426866 0.6025726376414017
1.9539069723266664 12.577148601794791 47.14004675327688 155.73919464936085 0.6172156950828297
1.968520044151221 12.533208668696235 43.32074611240252 163.8816995431325 0.6325444168713601
1.982230843730554 12.487195378462575 39.858419191520774 172.5270054536798 0.6486008697553274
1.9950157080325117 12.439101317845012 36.72828064963581 181.7141548945908 0.6654373317166458
2.0068483205566174 12.388931478698535 33.88601557971398 191.48531773564565 0.6831087222259817
2.017691427844743 12.33664345556233 31.312650473911518 201.88656215963994 0.7016743192440174
2.027523300793203 12.282249192386113 28.977531820459085 212.96771407833577 0.7211963188466884
2.036328646969602 12.225764004396543 26.856352408445996 224.78461827824233 0.7417461424810501
2.044067542572096 12.167158157648808 24.930307096173365 237.3981599443365 0.7633999169255997
2.050722110160235 12.10643448864447 23.17708793641682 250.87541832980054 0.7862408280762835
2.056289493608901 12.043672872977998 21.584050757441343 265.28971936959607 0.8103576514204679
2.060730734955523 11.978808706251263 20.133190151403728 280.72238787784465 0.8358485880483917
2.0640306263765873 11.911898781577042 18.8132591543313 297.2637032285505 0.8628222422316625
2.066185227682331 11.842982460042926 17.611223150446435 315.01398677237773 0.8913987411170818
2.0671703488142237 11.772078398789764 16.515709844888047 334.0825253961142 0.9217033456775611
