M[M_sun], R[km], Lambda[1], P_c[MeV/fm^3], rho_c[fm^-3]
0.24162668629717493 15.618656898711224 2160425.4255784233 3.5677272577965504 0.1711233750220791
0.2536442100553817 15.277271894318456 1723214.8510537432 3.7848233109189984 0.17388821923311554
0.26604059485018566 14.981254531932924 1383010.8004273204 4.011409274772854 0.1766667552631822
0.2788150220661213 14.7235206918059 1116421.3685714016 4.247741126442331 0.17945766397637264
0.29197040894615944 14.49839948140187 905873.056483017 4.494444071010844 0.1822675119913032
0.3055052919758744 14.30122003262081 738652.3996720915 4.751673432087423 0.18509200006011153
0.31942176660856836 14.128126090697373 605109.424797929 5.0201119865970965 0.18793775775252172
0.3337204294564185 13.975959656896848 497678.864971924 5.299983079597281 0.1908013941885523
0.34840190770610635 13.842019996704412 411002.1699524039 5.592016186253844 0.19368922336306763
0.3634652489447642 13.723965629631733 340638.451867129 5.89637750954355 0.19659628836769993
0.37891891017333273 13.619990869079233 283300.7910328837 6.213931587876453 0.19953027953468147
0.39475075742140364 13.528452862184636 236413.58804317858 6.544936217036547 0.20248738194122187
0.41097686985549126 13.44785325196479 197867.98450187058 6.890093063229576 0.20547129435967013
0.42758441193643476 13.377044663217795 166079.83883432415 7.250107578490861 0.20848509666980497
0.4445791077618042 13.314920302177153 139794.97731364952 7.625239369424875 0.2115243456206916
0.4619610019477752 13.260564766760902 117979.62911803224 8.016436187620142 0.21459518369816208
0.4797257525246211 13.21316040781518 99811.6701028455 8.424403644680082 0.2176992677465632
0.4978831662245777 13.172002426350797 84642.62020856285 8.849583570161519 0.22083407954585327
0.516421159147359 13.13640366671616 71937.17280713838 9.292847353992526 0.22400299982566999
0.5353406185144854 13.105836658069325 61274.50592434335 9.755080752407046 0.227208961308679
0.5546466277163381 13.079808232422481 52297.02686971993 10.237093379509155 0.23045331497276236
0.5743294203227207 13.057853343356054 44729.010167543995 10.739357491511035 0.23373277120560038
0.5943873819113323 13.039531065540885 38327.43352403231 11.263115651138282 0.2370534911875531
0.6148237510561281 13.024503474726837 32901.556996799714 11.809306522688667 0.2404171034146442
0.6356290299669276 13.01244478281691 28291.656883703916 12.378909149745663 0.24382524090603003
0.6567990823784517 13.003017418843097 24369.866936442246 12.972614167379044 0.24727587255101988
0.678330891234879 12.99598836203185 21027.2444876562 13.591745146027144 0.2507737477248652
0.700219445676972 12.991050189944486 18171.5848561756 14.237501361964254 0.2543215212184104
0.7224544064606083 12.988000250168863 15729.726114758269 14.911072553049578 0.25792117774788953
0.7450418247271663 12.986647273184964 13633.420693329499 15.613489475966768 0.26157262467018666
0.7679630670196269 12.986750982465399 11836.11406844683 16.34601620526757 0.2652777359531329
0.7912071716657255 12.988132617836264 10288.500227470493 17.110269855523324 0.2690412127806739
0.8147822688274559 12.990657630867041 8956.041392871057 17.907705537842904 0.2728654878600756
0.8386644198437011 12.994125174672902 7807.085808744336 18.73968709393129 0.2767516289581223
0.8628462201369113 12.998403628596979 6814.478385348444 19.607561989404054 0.28070014379620917
0.8873256936049508 13.003364436313928 5955.29750446683 20.513414674109754 0.2847173797705831
0.9120828463883637 13.008848230580833 5211.036427402914 21.459039355294376 0.2888063503869741
0.9371023745706522 13.014738267829568 4565.103729892672 22.445918149398544 0.29296696099147307
0.9623862449550905 13.020951799175373 4004.3377267043625 23.476080549038556 0.2972030438485046
0.9879071939045391 13.02733405167143 3516.5355533573143 24.551947016854363 0.3015206833212659
1.0136494781202878 13.0337872032868 3091.7826838886294 25.675457203135686 0.30592149112372674
1.039613614649679 13.0402449141825 2721.299728262916 26.84857773551729 0.3104067669329733
1.0657645106802631 13.046573237958498 2398.209894861342 28.074402914009895 0.31498522654010236
1.0920963041709193 13.052707995564802 2115.714957082842 29.354983613532557 0.3196572870204664
1.1185943415392188 13.058540697989738 1868.4600100049995 30.693083860630587 0.32442769015851836
1.145225633801549 13.063993494213571 1652.0581304685222 32.09209535800361 0.3293044384202493
1.1719887988619193 13.069010029990288 1461.9698785632906 33.553966566549356 0.334285277276744
1.1988452953250877 13.073461834177174 1295.3829133193105 35.08323644042832 0.33938375029580864
1.2257906606394826 13.077329770879693 1149.0099675612246 36.68192377226602 0.3445965915758494
1.2527866991620578 13.080491961525953 1020.1285142487624 38.355085835581704 0.34993826890822294
1.2798290777225971 13.082938550841765 906.6789006103209 40.10496600800113 0.35540538301434843
1.3068724910165186 13.084523218462868 806.7023922926468 41.937029499416035 0.36101245811319677
1.3339103571668751 13.08523138176585 718.5654756702174 43.85476323346511 0.366761442026591
1.3609183165792105 13.085031616135572 640.5866122415088 45.862855670487555 0.3726600886548412
1.3878490647625286 13.083772793400863 571.7796064410775 47.96664002423387 0.3787183554386483
1.4147060137902083 13.081484845265079 510.79484511147615 50.170871884938784 0.3849418884610425
1.4414291549349703 13.078031463423162 456.85361390005767 52.48077306353774 0.39133766960950633
1.4680239796197445 13.07343312618694 408.9939062031801 54.902758533061984 0.3979173842419806
1.4944330862186896 13.067569440363235 366.5152263708161 57.44301787192602 0.4046900928962652
1.5206451608514904 13.060420757699783 328.82609677047105 60.10817874172952 0.4116655661576838
1.54662857617535 13.051934310469523 295.27867462717126 62.90534632390034 0.41885434312189146
1.5723455868164922 13.042053125848646 265.45537734196665 65.84214653210782 0.42626779463067965
1.59776890289638 13.030727371127874 238.9094232354943 68.92677338375405 0.4339181918394653
1.622855525066221 13.017906232694452 215.22728787306403 72.16804096148961 0.4418187807435411
1.6476080743294415 13.00356677288064 194.09238610955074 75.57544044973956 0.449983863365989
1.671956751584507 12.987633214974048 175.22403220922965 79.15889918695802 0.4584276185570416
1.6958932080419995 12.970082629328418 158.34921079836042 82.92862852849296 0.46716340102902076
1.7193742147057904 12.950873675513177 143.2727039792647 86.89735585065405 0.4762127189632762
1.7423560017638908 12.929931604363405 129.77255096607095 91.07665475352323 0.48558989825108895
1.7648396950886738 12.907286332291461 117.67525578267043 95.48062220205514 0.49531688972774984
1.7867661321331225 12.882852478730292 106.81546863856381 100.12291953590314 0.5054111892777886
1.8081048045329333 12.856593837705294 97.08109312398274 105.02007536760301 0.5158985110518619
1.8288149213245977 12.828459917411118 88.32486949789269 110.18863050649402 0.5268013920368911
1.848895374465864 12.798496040821869 80.46172569553113 115.64622564567925 0.5381432420362632
1.86827181481814 12.766556606596456 73.38548061529072 121.41305154351956 0.5499533271570919
1.8869506576710942 12.732737945188557 67.00546286223262 127.51053941275407 0.5622614780095088
1.9048744356153398 12.69692352120212 61.25442351656264 133.96111681856604 0.5750969466291851
1.9220158422622176 12.659106813230597 56.07154050209689 140.79048281714816 0.5884960874450964
1.9383293585083445 12.619220932722278 51.38960887758254 148.02631254926442 0.6024971587158725
1.9538264242102652 12.577377678394791 47.15814554601873 155.69710810330903 0.6171359368651389
1.9684429469466347 12.533448860739913 43.337909895799484 163.83651076342818 0.6324600038553275
1.982158390312699 12.487451822056132 39.87805421585164 172.47829829269415 0.6485109373080982
1.9949485881943634 12.439377077380685 36.7434688680607 181.6617527617095 0.6653418805050058
2.006785449298737 12.389217756509295 33.901458612507575 191.42888028461275 0.6830072639433944
2.0176332252061338 12.336945650009213 31.327454278383847 201.82571394541097 0.7015663196659424
2.02746951620119 12.282561776503842 28.99052965049148 212.90219396517594 0.7210816953286592
2.036280630110284 12.226098052863536 26.868626476490807 224.71381971184576 0.7416237654735587
2.0440262552923643 12.167504611470488 24.94173372336518 237.32173796164633 0.7632696104248701
2.0506859698309268 12.106800701961541 23.186751644693263 250.7928207088806 0.7861018477409233
2.0562589052451217 12.044057529643535 21.59262087542342 265.20019837970585 0.8102087390817578
2.0607065444500665 11.979209221587013 20.141220095458454 280.6255330854975 0.835689723646187
2.0640129068768567 11.912314432147209 18.82052268193629 297.15862218484455 0.8626519921123202
2.0661745184812728 11.843417053219165 17.61837928188173 314.89983551924615 0.8912160074126417
2.0671684231584053 11.772528124451066 16.523158808678346 333.95855092141886 0.9215075378977909
