M[M_sun], R[km], Lambda[1], P_c[MeV/fm^3], rho_c[fm^-3]
0.24162668629717493 15.618656898711224 2160425.4255784233 3.5677272577965504 0.1711233750220791
0.25363886195904517 15.277444179218062 1723350.937839147 3.784741628425404 0.17388720110023784
0.2660304018068947 14.98147715002699 1383293.904254912 4.0112375640694395 0.17666468024066817
0.278802013049808 14.723754590485859 1116733.5083558345 4.247473580553567 0.17945456084724604
0.2919511997042999 14.498673568130075 906160.327713214 4.4940736716722816 0.1822633875087031
0.305480056807618 14.301565600888495 738901.2112091517 4.7511876052485045 0.18508675220303675
0.3193913491625984 14.128483694048418 605328.7286750729 5.019507156010801 0.18793148240174573
0.33368290688923535 13.976299829805496 497947.940660666 5.29924332496599 0.1907939460868901
0.34835862118908045 13.842376582805905 411224.60118773096 5.591139663141156 0.19368074276082917
0.3634142207062395 13.724337143735806 335910.3817672842 5.895344529514281 0.19658658640066315
0.3788594682254768 13.620384659010362 283487.2523680863 6.212729654170515 0.1995193193465057
0.3946858526221554 13.52880387550179 236574.07030772007 6.543566580103693 0.2024753720756096
0.4109033193084549 13.448195137754338 198023.5362268788 6.888529287478629 0.20545797658916204
0.42750363103434613 13.377385322437828 166223.50951003912 7.248334994219777 0.20847043253440473
0.44448997691783454 13.3152342478808 139924.6250620717 7.623262878205209 0.21150861147970337
0.4618640425847905 13.260839785701569 118083.34423766675 8.014221321605273 0.2145780499188948
0.47961971713264734 13.213440347855872 99917.52298424373 8.421933138211806 0.21768069299162648
0.4977673106800341 13.172229360365291 84729.49643056898 8.846866534292653 0.2208144070452626
0.5162976697396611 13.13660991796232 72018.21583935776 9.289839827722039 0.22398182665322833
0.5352062401809036 13.106032052243952 61346.867447745324 9.75176235059429 0.22718624177333646
0.5545034904337706 13.079994247874737 52362.79293337184 10.233442478623315 0.23042900139708372
0.5741717759782189 13.058004394128728 44782.251100107096 10.735389955660185 0.23370729839644913
0.5942262890367932 13.039674120967671 38376.113707915945 11.25877182748669 0.2370263508987708
0.6146487301628821 13.024620192467246 32943.3409539451 11.80456075860816 0.24038824125090216
0.6354404219104652 13.012525285953352 28332.265100549797 12.373734192572327 0.24379459960060954
0.6566017316542156 13.003091596238049 24405.194738163784 12.967033780766497 0.24724397734948778
0.6781220233993467 12.996037869946308 21057.029175441214 13.585680106020199 0.250739979207028
0.6999997883400189 12.991104308048252 18198.66578616226 14.230919159962456 0.25428581245130616
0.722222056931433 12.988026383384915 15752.263981314985 14.90393859217875 0.2578834578075986
0.74479860671386 12.986646447499753 13654.84457008265 15.605836527107847 0.26153350787202145
0.7677068585561843 12.98675037013632 11772.177276639983 16.337740658035784 0.2652364844257614
0.7909391105059763 12.988111873424042 10304.910664911611 17.101330191245523 0.26899774222051526
0.814502161821968 12.990621790478471 8971.340246055832 17.89805748581603 0.27281970854307686
0.8383704235101517 12.99408904832083 7819.4915840748035 18.729373441325716 0.27670424306082686
0.8625407684444547 12.998346487601905 6825.876426427361 19.596448670838083 0.2806502853446069
0.8870028824410856 13.003290508297804 5965.63353551243 20.501448220787463 0.28466494091669686
0.9117511768999286 13.008777253866343 5220.046893107445 21.446162637818194 0.2887512160116709
0.9367587139088153 13.014659505209458 4573.722963252367 22.432184797906135 0.2929099204679582
0.9620257784733691 13.020844963887887 4011.8756402944396 23.46131827143527 0.29714308985285764
0.9875372374721895 13.027240019106785 3522.98669900334 24.536086354511923 0.30145767643918936
1.0132704643713135 13.033714510086881 3097.762707718066 25.6585595377497 0.3058562797786956
1.0392181918768333 13.04014746941958 2726.6304546850906 26.83043655546559 0.31033823282141204
1.065359977925115 13.046489387524593 2402.7738925950134 28.05493333385777 0.3149132000970974
1.0916763788552803 13.052609649002365 2119.793800665832 29.334254620566576 0.3195826753734554
1.118163043298947 13.058450430137908 1872.2612018527566 30.670848055290293 0.3243492519143362
1.1447819188168888 13.063908868580913 1655.3689877274962 32.06835861823159 0.3292226790789509
1.171533323910574 13.068925038356605 1464.9827169039606 33.52858469600038 0.3341997377560136
1.1983822052731603 13.073401692611089 1298.1153907816004 35.05602301481632 0.3392937628748861
1.225313312734967 13.077266079529656 1151.440281424166 36.652957740488176 0.34450315164117945
1.2522980878911332 13.080447389019398 1022.3286921209833 38.324047401423684 0.3498399819737784
1.279328602899462 13.082896733214223 908.6187511064317 40.0719093945838 0.35530311689593624
1.306363172501369 13.084506383653729 808.4955336797728 41.90183146470169 0.3609060491217764
1.3333900201753108 13.085234369384484 720.0864311782307 43.81702930462858 0.3666492772755379
1.3603893964933702 13.085047614851923 642.086030493151 45.82266488659133 0.3725432193147763
1.3873130014112631 13.083812788075065 573.041944784095 47.92382078606806 0.3785964780644776
1.414153107931358 13.081527297243921 511.9505179475373 50.12495486125915 0.3848132239005316
1.4408848854059766 13.078129346180052 457.8938943713196 52.43183112028143 0.391203293370286
1.4674673893198402 13.073541233191163 409.9560285253126 54.850575049834994 0.39777691569012835
1.4938683580459473 13.067704258016896 367.36388363767145 57.38735868617997 0.4045431219803806
1.5200766956559888 13.060594124413223 329.59744710722265 60.04879057860085 0.4115116509938623
1.546055287560977 13.05213960236951 295.97716798744636 62.84195506942041 0.41869300733941184
1.5717686434659028 13.04229137917431 266.0913965388582 65.77445533234801 0.42609852445274493
1.5971847358208628 13.030994121008757 239.4740717140387 68.85446055034292 0.4337404328703027
1.6222762226252418 13.018225090014797 215.75079006737798 72.09075766154423 0.441631934429772
1.6470270900142534 13.003922285276575 194.5521951397085 75.492808155522 0.44978728309629157
1.6713815826867287 12.988036462459558 175.6525111626775 79.07081046297786 0.45822187319717045
1.6953182656752264 12.970534688993137 158.761988202211 82.83448088140175 0.4669470500102076
1.7187826902332757 12.951332795509991 143.6306329465647 86.7965372241406 0.4759844143779312
1.741797356892394 12.930504852630397 130.10233056344654 90.96912317368688 0.4853506800669048
1.76427807695696 12.907896794522667 117.96903829129816 95.36534230641072 0.4950639398959561
1.7862063057760191 12.883509261531769 107.09020282323122 99.99979096323699 0.505145483159757
1.8075530457608933 12.857304174460753 97.3195329848597 104.88845993670145 0.5156190254084657
1.8282820330754745 12.82925702856324 88.55089967038427 110.04738691147078 0.5265053627035672
1.8483624037461968 12.799327664361686 80.66229455248585 115.49490957446687 0.5378306752483003
1.8677603008511279 12.767487570476554 73.56221139671642 121.25094256601358 0.5496233326852025
1.8864437184049887 12.733706672675838 67.17040202270681 127.3367278551157 0.5619126396001953
1.9043808705084235 12.69795424475734 61.40715926174484 133.7752458005254 0.574729979527134
1.9215220307208072 12.660152587145276 56.212243652189215 140.59084710014199 0.588107121150742
1.9378770901758038 12.620424118948547 51.51990430339758 147.81171727573425 0.6020843740304567
1.9533864615327692 12.578633722898852 47.27814043625741 155.46694728222872 0.6166997590697687
1.9680238659764115 12.534777668209843 43.44608849579538 163.5888386761198 0.6319965131324935
1.9817635162072975 12.488861108599655 39.97359644558719 172.21194435198748 0.6480191438791207
1.994574062699715 12.440861426826203 36.83408177512359 181.37520016827474 0.6648199209827876
2.0064326170652755 12.390773025151834 33.98778410502571 191.12026927121167 0.6824524702233709
2.0173178575634148 12.338617746408108 31.40510675731671 201.49299303978583 0.7009757728786687
2.0271724922109793 12.284291985217886 29.060993902414875 212.54385485914858 0.7204546783370009
2.0360043883712655 12.227886182316556 26.932910796244396 224.32671110543512 0.7409546390316291
2.0437931857576674 12.169422300931862 24.999241108319378 236.90389366473408 0.7625571475148037
2.050493943455881 12.108827154261293 23.242067559064026 250.34041463742022 0.7853393462594142
2.0560882343626665 12.046129747516916 21.643126574570267 264.71057296420855 0.8093939739437332
2.060577539942884 11.981397897012975 20.18848287048338 280.0953990244333 0.8348191726392932
2.0639261581649686 11.914610170532264 18.862822799884093 296.5841532876508 0.8617212495648888
2.066120124712368 11.845788828203212 17.65685024613834 314.2758019681087 0.8902170524352238
2.0671530834035434 11.774997101757076 16.559053350324803 333.2808394073806 0.9204371466965813
