M[M_sun], R[km], Lambda[1], P_c[MeV/fm^3], rho_c[fm^-3]
0.24162668629717493 15.618656898711224 2160425.4255784233 3.5677272577965504 0.1711233750220791
0.253645018733847 15.277266481766178 1723116.1840713066 3.7848435440312413 0.17388847142909888
0.2660421973975026 14.981217672497207 1382924.8205047713 4.011451809080394 0.1766672692651868
0.27882023230370917 14.723402548461854 1093936.5052641283 4.247807401222336 0.17945843266394673
0.29197475336460926 14.498330011766138 905806.8607717231 4.494535825648671 0.18226853370049054
0.30551124566365 14.30114919499654 738577.6191106952 4.7517937824062635 0.18509330007324704
0.319429817456105 14.128047640553593 605033.1599889477 5.020261819424544 0.18793931232593664
0.3337299203856501 13.975899198103004 497638.0350250846 5.300166340002508 0.19080323931674892
0.34841270498862664 13.841886086596405 410928.04060887656 5.592233332097072 0.19369132430883562
0.3634780620813011 13.72386980197274 340628.6171475616 5.896633419755705 0.19659869193056886
0.37893235187050917 13.619910444421434 279331.0104469645 6.2142293597637455 0.19953299485575288
0.3947664958910398 13.528376296211954 236371.7618544618 6.545275541738418 0.20249035736045207
0.4109940403498539 13.447781032327548 197824.85423769365 6.890480491968329 0.20547459386538752
0.42760401989187885 13.376973543742642 166046.62481350513 7.250546747359103 0.20848872980130262
0.44460189592029714 13.314857510017642 139766.72469261542 7.625729064884699 0.21152824391142494
0.46198284543995516 13.260493027318011 117948.68551221368 8.016984951886599 0.21459942883341998
0.47975181278538653 13.213086850524366 99787.54770181341 8.425015757539713 0.21770386997954955
0.49791220406015146 13.17191425676879 84620.43047108407 8.850256774889216 0.22083895383572005
0.5164532989739998 13.1363396916223 71920.58175189808 9.293592546129526 0.22400824602477176
0.535373676880693 13.10579706886381 61258.309080022365 9.755902985273996 0.22721459075011938
0.5546835175961203 13.079753891626858 52287.06987254374 10.237995094328321 0.23045930194732578
0.5743677905764387 13.057815375700104 44716.056946632685 10.740340596147961 0.23373908304189714
0.5944276371315665 13.039488527080941 38315.53282015368 11.264192012290525 0.23706021631151045
0.614867712375531 13.024470978956936 32889.89477366762 11.810482499912501 0.24042425531823977
0.6356745326951021 13.012412810349106 28281.70494417586 12.380191499393423 0.24383283379344858
0.6568479583157427 13.002995091140386 24361.976359058674 12.973997000637022 0.24728377625886502
0.6783821208810308 12.99596908535238 21019.222341845747 13.593248101442411 0.25078211577795156
0.7002737823809854 12.991054268766112 18165.78852702672 14.239132499341327 0.2543303702182887
0.7225116740724592 12.987992766476678 15724.208408959945 14.912840450100651 0.2579305252860124
0.7451026804517441 12.986657990065122 13628.833530968117 15.615386010614664 0.2615823184972856
0.7680255074605284 12.986764372759206 11831.38002066505 16.348067063347724 0.26528795896628954
0.7912741380562502 12.988156631038494 10285.829780870925 17.11248533143944 0.26905198588983087
0.8148503472439583 12.990683850007255 8952.304700943685 17.91009660857031 0.2728768333197074
0.8387372783409114 12.994134646249403 7754.46044083166 18.742243153524647 0.276763372729413
0.8629193386323943 12.998426126113035 6810.854896263732 19.610316276691254 0.2807125005462287
0.8874060501312394 13.00337806598899 5952.681721032305 20.516380447471676 0.2847303762493054
0.9121642107572533 13.008862403596213 5208.805271525049 21.462230781101457 0.28882001514808464
0.9371875829432654 13.014761525290078 4562.963832907953 22.44932193236688 0.2929810983681034
0.9624736269678337 13.020969430130851 4002.516025640128 23.47973940946092 0.2972179035678332
0.987998502321765 13.027351468218447 3514.8961625331003 24.555878179369177 0.3015362999637268
1.0137443429907202 13.033813934595688 3090.7151323495023 25.679645449461702 0.30593765437290954
1.039710577999589 13.040276966044352 2720.0907894646434 26.853074274373242 0.3104237540470814
1.0658647961373506 13.046601946506755 2396.978486899852 28.079228796902413 0.3150030795793765
1.0921996818790483 13.052734603286215 2114.671835828511 29.360121735061156 0.3196757811031467
1.1187016744465959 13.058560278741076 1867.4055341510007 30.69859557293841 0.3244471330808342
1.1453356881997079 13.064011608497108 1651.0653690418217 32.097962670188835 0.32932459792701074
1.1721011778431178 13.069025513949022 1461.265306745498 33.560258310904125 0.3343064811039256
1.1989605485557964 13.073484906353476 1294.7067016208237 35.08998231742065 0.33940605708221083
1.2259094964492676 13.077351990987559 1148.420413566098 36.68910420372457 0.3446197545362278
1.25290819636188 13.080512396884163 1019.5801450372356 38.36272996559948 0.34996233954083256
1.2799524398411977 13.082943261871966 906.1716765110939 40.11316073273735 0.35543073475500164
1.3070057939286057 13.084548986284211 806.3144372786503 41.945755215027155 0.3610388372734293
1.3340392711358187 13.085242802000538 718.1327309753099 43.86411778428161 0.36678924858943507
1.3610490163345728 13.085027872381016 640.2292216331932 45.87281945314659 0.3726890619813361
1.387989280379156 13.083780847648724 571.4264125312948 47.97725560325988 0.3787485708033398
1.414833415589911 13.081457993689437 510.52163801100386 50.18225568174088 0.3849737871142023
1.4415665701527873 13.078010855546752 456.60876351529373 52.4929070042115 0.39137098486440175
1.4681624403362903 13.073406117565177 408.770536298089 54.91569635361958 0.39795221052810537
1.4945722289251142 13.067535550069561 366.2949637819226 57.45681766147421 0.40472653194368796
1.520785660559725 13.060378863303923 328.64956803049324 60.12290333225532 0.4117037275966573
1.5467699837746216 13.051885649909819 295.10477474156016 62.921063718953185 0.4188943451418893
1.5724881372226875 13.041995195611658 265.2998283242197 65.85893037871277 0.42630976470524373
1.5979011264020426 13.030653079027815 238.76571724860395 68.94470349241215 0.4339622675239833
1.6230099929168893 13.017839412671238 215.08951800056548 72.18720387972452 0.4418651105539371
1.6477522032652634 13.00347639544963 193.95725168708205 75.59593009532384 0.4500326077472639
1.6721004867799394 12.987534553589866 175.12777754113517 79.1807105376851 0.45847850418874986
1.6960360488891932 12.969973206413858 158.2578150185322 82.95197442549834 0.4672170498323448
1.7195167800958853 12.950749245088199 143.18663137050248 86.92235649348657 0.4762693331187416
1.7424980823823577 12.929801488080814 129.69346597869122 91.10332054772323 0.48564921982785797
1.7649796873261265 12.90713668858303 117.5954814884438 95.50921007593747 0.4953796179064097
1.7868904373205372 12.882660087164737 106.75195491495157 100.1534543832024 0.5054770821535436
1.8082415659791988 12.856418344035367 97.02488878186863 105.05271555389278 0.5159678225558647
1.8289458396219138 12.828262960294314 88.27362862236775 110.22354877185677 0.526874396841235
1.8490262280529297 12.798286790206493 80.41133676018566 115.68375325863632 0.5382207611348488
1.8683979551331227 12.766335409224826 73.3346616175453 121.45325679215837 0.5500351703097406
1.8870738708620525 12.732501150411267 66.96096004863618 127.55350154306879 0.5623474733111816
1.9049945219313522 12.696668557087536 61.21617479261122 134.00721742594598 0.5751879635422646
1.9221334350458485 12.658833944714303 56.03787943807472 140.83999864268864 0.5885925631031661
1.938443130248704 12.618927996955138 51.35641993151374 148.0795401746459 0.6025995447015333
1.9539354259297677 12.57706785648743 47.13308746399898 155.7541979174681 0.6172441277777413
1.96854527860841 12.53311908699946 43.311010947609034 163.89780879325866 0.632574509084473
1.982257714335633 12.487103849829172 39.854498833224504 172.54436906158844 0.648632929758833
1.9950396538286925 12.439003474767032 36.721237899725296 181.73283582097588 0.6654713592830819
2.0068726040366434 12.38882755538652 33.88252363459064 191.50543732973205 0.6831448914615691
2.0177139912324056 12.33653467661153 31.308803707840106 201.90825428618365 0.7017128206288806
2.0275434938836825 12.28213664424965 28.973168162090264 212.9910718430403 0.7212371818585883
2.0363455474333896 12.225645928389753 26.852588976337515 224.80985795351052 0.7417897698606225
2.044083198438799 12.167032875864548 24.927140991808464 237.42540452664716 0.7634463714411693
2.050734667040627 12.106304855760085 23.173980557159126 250.90486471945127 0.786290375134216
2.0563005957283207 12.043535648106097 21.580822581054896 265.3215860065798 0.8104105826671304
2.060739730485485 11.978668960344478 20.130777049656636 280.75691745749043 0.8359052245957
2.0640362850065754 11.911748527692394 18.81050226953756 297.30116579765763 0.8628829383062009
2.066185152918431 11.842823112129604 17.609151784699428 315.0546832651261 0.8914638881975879
2.0671719215258326 11.771917704357028 16.51383689755144 334.1267243154747 0.9217731543401062
