M[M_sun], R[km], Lambda[1], P_c[MeV/fm^3], rho_c[fm^-3]
0.24162668629717493 15.618656898711224 2160425.4255784233 3.5677272577965504 0.1711233750220791
0.25364466302732513 15.277255376565144 1723228.8126988339 3.784832069459779 0.17388832840410112
0.26604054265173666 14.98125989916953 1383012.893585371 4.011427687049773 0.1766669777646826
0.27881679315901653 14.723480319130465 1116405.7794459818 4.247769815449817 0.17945799672562607
0.2919721172196435 14.498378715910109 905777.8289905952 4.494483789651361 0.18226795426758355
0.3055087739949758 14.301172880622968 738579.2663894237 4.751725529085986 0.18509256280712463
0.3194251424210317 14.128114969773865 605064.7222695933 5.020176845797462 0.18793843069175886
0.33372267335764527 13.975933358022388 497670.95537980116 5.30006240867192 0.19080219290070316
0.34840661650509325 13.841980264081661 410977.4241301052 5.592110183353958 0.19369013281086894
0.36346939519806537 13.723945737692263 340639.69580235693 5.896488286569869 0.19659732880897401
0.3789248972651119 13.619955493014999 283289.88570731843 6.214060485507689 0.19953145492587548
0.39475785775188527 13.528416755586319 236387.26656413378 6.545083101529705 0.20248866991979564
0.41098378981610595 13.44782580954569 197841.3324292548 6.890260770341095 0.2054727226238074
0.4275930867640513 13.377020204025797 166072.7800545747 7.250297682103897 0.20848666934827623
0.44458933507663473 13.314900504591154 139790.40707040715 7.6254513441918395 0.21152603307613596
0.4619716033792091 13.260532129568329 117969.99336790638 8.016673731094833 0.21459702128898445
0.4797369726662953 13.213132111864738 99800.90458042358 8.424668609356432 0.21770125991051553
0.4978953770280862 13.171959996782157 84632.25148077718 8.849874979138905 0.22083618947135902
0.5164351082550532 13.136371924622697 71929.45686903095 9.293169923446953 0.224005270734739
0.5353549588232637 13.10581749649266 61266.81841574801 9.755436669640874 0.22721139810645977
0.554662311721598 13.079804697932271 52298.023759026895 10.237484964743224 0.23045592277766336
0.5743468243748114 13.057832459067578 44723.70098785447 10.739783043341152 0.23373550338016919
0.5944048071744691 13.039504018229737 37988.4475597522 11.263581569633853 0.2370564022547448
0.6148421442874108 13.024505119265166 32895.68874847123 11.809815560526358 0.24042019921400823
0.6356487080723435 13.012420480261136 28287.986666971225 12.379464231345409 0.24382852758537082
0.6568205020558604 13.003004670116642 24366.490513964036 12.97321274370161 0.2472792937678219
0.6783536731892059 12.995968854716017 21023.974695762354 13.592395717533659 0.25077736993271493
0.7002427447166736 12.991048542899813 18168.289074929795 14.238207417240249 0.2543253516027417
0.7224783124212204 12.98799413722176 15725.780288575295 14.911837804842335 0.2579252239225817
0.7450678396415183 12.986639209845068 13631.53699724401 15.614310408602602 0.26157682073327493
0.7679894760577882 12.986760056726487 11833.765686912997 16.346903936642146 0.26528216107138447
0.791236455557923 12.988138999949825 10286.981177906953 17.111228841404056 0.26904587600427204
0.8148107663512412 12.990676574964283 8954.446020711248 17.90874052942685 0.27287039882113595
0.8386951704478258 12.994140296153121 7805.826470985778 18.740793500460082 0.27675671232365195
0.8628782489535012 12.998403683105913 6812.651121515288 19.60875419787783 0.28070549248374443
0.8873613946437728 13.003358672112443 5954.1359912041935 20.5146984231577 0.28472300535795964
0.9121179190125231 13.008860039366969 5209.942298457818 21.46042077653698 0.2888122652326933
0.9371390466570656 13.014755542946501 4564.20394454119 22.447391488082562 0.29297308040157466
0.9624244464793081 13.020962411858946 4003.5930156426884 23.47766429590353 0.29720947591510033
0.9879464559437244 13.027348771948564 3515.735091571166 24.553648627180632 0.3015274430112998
1.0136904504241848 13.033797296855987 3091.387717159178 25.677270089881453 0.30592848740282097
1.0396556877117247 13.040254220988803 2720.8166631543036 26.850524063314865 0.31041411980891814
1.0658076567584573 13.046587158711716 2397.561769802167 28.076491794447964 0.3149929542171576
1.0921413082457179 13.052714914974963 2115.1509342561335 29.357207642825436 0.3196652921603598
1.1186408043720883 13.058546471052225 1867.9060633542429 30.695469593565214 0.3244361059860369
1.1452733435168816 13.064007527488727 1651.691366748382 32.09463500756984 0.32931316440601344
1.172037851400402 13.069014018432258 1461.7026536982075 33.55668992497154 0.3342944552754168
1.1988946389094268 13.07347873150488 1295.0620155181145 35.08615636261686 0.3393934056868934
1.225842546527223 13.077340403611228 1148.7398589881955 36.685031784273654 0.34460661754147615
1.2528385008678817 13.080497316843513 1015.4477747552193 38.35839455155833 0.34994868773763815
1.2798820528881445 13.0829384920458 902.5881403939097 40.108513038207256 0.35541635634081997
1.306926520933098 13.084519924037558 806.552505058342 41.94080635887552 0.36102387613153447
1.3339654834381367 13.085238328132155 718.4031880332725 43.85881227075926 0.3667734778594371
1.360979144342592 13.08503120143283 642.1875736397018 45.86716840090349 0.37267262948905056
1.3879065669216184 13.083771699059144 571.6388543742534 47.971234870307654 0.3787314338538229
1.4147587030166964 13.08145901208737 510.67980472517826 50.17579923525166 0.38495569543962443
1.4414883779781227 13.07802368595105 456.7476913377481 52.48602509543416 0.39135208972132757
1.4680839762806597 13.073422532745843 408.9036952649801 54.908358504055236 0.3979324583567616
1.49449350070585 13.067553249304853 366.42654285857617 57.44899092352172 0.40470586504333994
1.5207061528125831 13.06040489458504 328.73674333271777 60.11455206811538 0.4116820837854919
1.546690031032358 13.051913668462875 295.20729726857525 62.91214935746833 0.41887165738318716
1.5724062024551213 13.042028884819556 265.38662456909657 65.84941114768486 0.4262859606962202
1.5978202628358154 13.030690232527604 238.84285204998105 68.93453412364211 0.4339372692432588
1.6229182058450968 13.01787013250869 215.16958106377595 72.17633528367949 0.44183883376311306
1.6476703935125607 13.0035294046414 194.04442454101192 75.58430900194878 0.450004961441525
1.6720179846704475 12.98759463366349 175.1770911559341 79.16833979595283 0.4584496433898189
1.6959565771460552 12.970034099477836 158.3214585896643 82.93873331149963 0.46718662179094017
1.7194362553489948 12.95081903858853 143.23651000502574 86.9081768296489 0.47623722315667655
1.7424128460942543 12.929843223894656 129.74978155955765 91.08819643246107 0.48561557423838636
1.7649000223745426 12.907220933854171 117.64211430483289 95.49299577779684 0.4953440401158123
1.7868266616666606 12.882780669574156 106.79736835881917 100.1361357828358 0.5054397093652987
1.8081644085249244 12.856518587292259 97.05163754412118 105.0342028253396 0.5159285107379779
1.8288730861603097 12.828377128378822 88.30394988199066 110.20374393555448 0.5268329901967672
1.8489519323804446 12.798402792592784 80.43858048236665 115.66246841468933 0.5381767939920893
1.8683263327526447 12.766461591447452 73.36396705786919 121.43045320737899 0.5499887505677112
1.8870047726097285 12.732635547107217 66.98876387364908 127.52913787934816 0.5622987113672074
1.9049268003810111 12.696813049637965 61.2380986149848 133.98107001590205 0.5751363404361391
1.9220659659509904 12.658989563860413 56.05626354291014 140.81191412409905 0.5885378437809509
1.938379463367925 12.619094488980688 51.37616191350793 148.04935032078382 0.6025414730155907
1.9538733746579064 12.577245575771206 47.15068548483264 155.72181742621314 0.6171827635054802
1.9684885755740962 12.533305156728199 43.32696148193483 163.8630413911396 0.6325095632883773
1.9822014701704518 12.487301069088423 39.86809649957847 172.5068945360732 0.6485637371448489
1.9949871290974126 12.439218334355337 36.733057180616015 181.6925182941047 0.6653979203488518
2.006822433224183 12.389049650990453 33.89247060797508 191.46201491554467 0.6830668304668109
2.0176665154459696 12.336767900471855 31.317585561581883 201.86143808950362 0.7016297264978106
2.027500879054685 12.282377944400587 28.98301903097693 212.9406609299111 0.721148990982058
2.0363088515812975 12.225901185846407 26.86157340173623 224.7553855875753 0.7416956130793004
2.0440501337240016 12.16730109451814 24.935131295415804 237.36660526773287 0.7633461133033286
2.050707654907885 12.106585925205167 23.18131174880412 250.84131363842963 0.7861834428708587
2.0562778583490924 12.04383094953211 21.588210918427308 265.2527764443689 0.8102962320360783
2.060720798883955 11.978977085053014 20.13676273998883 280.6823961516895 0.8357829923095045
2.064023469667675 11.912072413321361 18.81653146499494 297.2203147209024 0.8627519450748714
2.0661807488580664 11.843162036810158 17.613970855591372 314.96685298166955 0.8913232891886612
2.0671696179175507 11.772260947046805 16.519246851157284 334.03133537681714 0.9216224951311113
