M[M_sun], R[km], Lambda[1], P_c[MeV/fm^3], rho_c[fm^-3]
0.24162668629717493 15.618656898711224 2160425.4255784233 3.5677272577965504 0.1711233750220791
0.25364385369673015 15.277276445848758 1723210.3346075749 3.7848167786593145 0.17388813781164986
0.2660395723586346 14.981279059310596 1383004.9009921895 4.011395542641801 0.1766665893184826
0.27881448650864865 14.723531163517352 1116396.0226538512 4.247719729842569 0.17945741580805938
0.2919681951382178 14.498453458910895 905921.543751466 4.494414448460782 0.18226718213733323
0.3055047340369488 14.301218089479898 738712.9197846713 4.751634577743311 0.1850915803590405
0.3194203228607382 14.128143058914096 605113.6017071139 5.020063614229382 0.18793725587053667
0.33371701333163534 13.976012662005457 497695.5086881765 5.299923915671225 0.1908007985059876
0.3483983910257302 13.842048685260089 411018.7853139659 5.591946083032837 0.19368854509511965
0.3634595355385191 13.724034726022827 340652.3152195216 5.896294892036131 0.19659551240658651
0.3789140650566003 13.620015651584595 279400.5808189608 6.213835456270352 0.1995294029301838
0.39474562872037966 13.52847533279578 236409.3227602155 6.544826671122142 0.20248642137154182
0.4109705238648582 13.447878556178186 197869.66800691228 6.889967988200231 0.20547022916823454
0.42757769163526715 13.377095810023555 166093.34301267803 7.249965800632919 0.20848392377792077
0.44457239177416424 13.314961172373453 139810.76408724813 7.625081280580125 0.2115230871318366
0.46195302277001943 13.260586238224258 117985.60031075822 8.016259030306031 0.21459381324311189
0.47971622888499327 13.213180256181971 99810.17526231657 8.424206037422673 0.21769778201623738
0.4978742176935844 13.171998059866171 84649.85308367731 8.849366241554886 0.22083250599388388
0.516411715951393 13.136413339018405 71943.62675143057 9.292606786938027 0.2240013062186087
0.5353296373135321 13.105855325265567 61280.33067223381 9.754815315765283 0.2272071439889257
0.5546356117797144 13.079830581389439 52303.13273811072 10.236801343024387 0.2304513701236976
0.5743174447744243 13.057864562902365 44733.81801612163 10.73904012407372 0.23373073360834468
0.5943733598928929 13.039533797616999 38331.41410275084 11.262768179940473 0.23705132018122121
0.6148102016333697 13.024510706588648 32904.29286564732 11.808926894996317 0.2404147946448799
0.6356141937638021 13.012452017428846 28294.63859164668 12.378495184758206 0.24382278978862187
0.6567825927660466 13.003024599099488 24372.510253388504 12.9721677660918 0.24727332110431746
0.6783140092685044 12.99598153741018 21029.38536469487 13.59125996935935 0.25077104639116554
0.700202257287452 12.991053338545104 18173.95338178738 14.236974808425927 0.2543186646397665
0.7224356648870388 12.987990759076174 15730.472087451359 14.910501853997902 0.2579181602468767
0.7450228078211912 12.986656350495853 13635.372969694514 15.612877253225276 0.26156949539363555
0.7679420312849892 12.986753636055546 11837.583850080791 16.34535416795375 0.26527443586316823
0.7911856487995312 12.988135873052304 10289.589012793442 17.109554680941496 0.26903773512886087
0.8147583810904742 12.990665742532526 8957.296912967508 17.906933683003874 0.2728618254640547
0.8386416192252365 12.99413177104609 7808.23542984044 18.738861982338737 0.2767478379972787
0.8628214931350845 12.998403100251368 6815.3013068459895 19.606672892468872 0.2806961549789851
0.8872942418999376 13.003350587115364 5955.787755531401 20.512457312545344 0.2847131844637666
0.9120553912274326 13.008844309976153 5211.666090968776 21.458009156775258 0.28880193937524734
0.9370748814256941 13.014733211579031 4565.82531901736 22.444819405385378 0.29296239743437236
0.9623532449626129 13.020926578249583 4005.1078483411957 23.47489947091552 0.2971982471393145
0.9878772987546404 13.027338652435867 3516.9082428779125 24.550678045295914 0.30151564229967326
1.0136190770309264 13.033778312871636 3092.1156578869845 25.674105250195836 0.30591627367696045
1.039581841973889 13.040236630568671 2721.775947663876 26.847126273118857 0.31040128356939617
1.0657320089187954 13.0465686870359 2398.6297011022207 28.07284514779643 0.3149794636855101
1.0920635253038051 13.052702952611048 2115.951551796523 29.353325064544666 0.31965131726246426
1.1185595889644522 13.058536670986987 1868.8303198639965 30.691304727285036 0.32442141415035697
1.1451900247610745 13.063985191825958 1652.2935488802245 32.09020144706392 0.32929793112880323
1.1719529528027568 13.069006830820527 1462.2614737884312 33.55193566247724 0.33427843292062603
1.1988081303564724 13.07345555210477 1295.6360245015821 35.08105895768797 0.3393765499507032
1.2257533352695167 13.07732345489432 1149.2410462823693 36.67960602978779 0.34458911489739347
1.252748199784357 13.08049417620744 1020.3246038357745 38.352614515507625 0.34993047632866225
1.2797889098731856 13.082937115875481 906.8154624217785 40.10232088904963 0.35539719989998964
1.3068315487756708 13.08452119420531 806.8645504555336 41.93421299685728 0.3610039433992634
1.333868493970847 13.085237033382567 718.6990160736898 43.851743769432545 0.3667524666179344
1.3608755085867514 13.085034556581512 640.6681905113097 45.85963957180209 0.3726507366767378
1.3878062889494087 13.083775982026014 571.8768912809701 47.963213553916354 0.37870860259803596
1.4146626021218562 13.081489631755707 510.89548035324344 50.167197470425855 0.3849315923466484
1.4413858978585214 13.078035484750297 456.93963175861757 52.4768565378943 0.3913269162974848
1.4679799486506897 13.073439961730946 409.0815442753888 54.89858255425278 0.3979061432580596
1.4943883377950842 13.0675794854337 366.58381386374396 57.43856369318361 0.40467833141034854
1.520599461985256 13.060436926689812 328.88385492491363 60.10342608578423 0.41165324879038584
1.5465824215032111 13.051952524369081 295.33443055642476 62.90027324466013 0.4188414317318974
1.5722984858292877 13.042073531545963 265.50736255383475 65.83672926239224 0.42625424808087803
1.5977226659684773 13.030749045878666 238.9624930268711 68.9209861675123 0.4339039657395473
1.6228094353954299 13.017932439515734 215.27175961226905 72.16185586874408 0.4418038271664987
1.647561545051336 13.003595432358665 194.13251359490744 75.56882717227639 0.4499681305356276
1.6719109540506398 12.987665041590786 175.26398457171211 79.15185934482808 0.4584111946858935
1.6958481288457985 12.970121820096141 158.38892261718055 82.92109343685374 0.46714608541037955
1.7193282914626964 12.950913565608667 143.3023204640658 86.88928672080812 0.47619444635426256
1.7423145242121219 12.929975595448635 129.7962637529779 91.06804822675733 0.48557075189698345
1.764794193523314 12.907333514972098 117.6933134541481 95.47139536849012 0.49529664399465634
1.786721598846795 12.882902052825504 106.83723043644564 100.11306436146876 0.5053899222389139
1.808060622500807 12.85665105658884 97.09990079511854 105.00954074819116 0.5158761407654594
1.8287720254580813 12.828521038685954 88.34379614163412 110.17736069988614 0.5267778298691301
1.8488524401256081 12.798561837224668 80.47786654655812 115.63411375646054 0.5381182230526289
1.8682391655118595 12.766659802861199 73.38995928178647 121.40007553488812 0.5499269127586949
1.8869099380661838 12.732815287425744 67.02057970028834 127.49662643234548 0.5622335547688424
1.9048339099904166 12.69700623956469 61.26589928845986 133.94623829101496 0.5750675717960575
1.921977434204809 12.659199536318361 56.08404369945678 140.77450216532043 0.5884649510582013
1.9382923909290064 12.619315993873787 51.39953789619531 148.00913407356992 0.6024641150631918
1.9537915853574754 12.577477751573733 47.1694548291679 155.67868327464828 0.6171010199704754
1.96841065602121 12.533556845800282 43.346379978100806 163.81672792830628 0.6324230493549129
1.9821268182988527 12.487564771066141 39.88592487329151 172.45697530066275 0.6484715667347198
1.9949176848217989 12.439497159649628 36.75049703236989 181.63881231536104 0.6653000941638947
2.0067571668729896 12.38934285357887 33.90793801002998 191.4041734124154 0.6829628481029308
2.0176067360423575 12.337078796590328 31.331807866481324 201.799076314432 0.7015190404985403
2.0274463323955043 12.282700533054628 28.996116329918973 212.87351127309844 0.7210315166749006
2.036259012385244 12.22624607621311 26.87409677279127 224.68282647630005 0.7415701929280737
2.0440071388613705 12.167658390501439 24.945911783007386 237.28828319179678 0.763212566969069
2.050670255549066 12.106962037073636 23.19167101120201 250.7566627038263 0.786041007590657
2.0562445820557613 12.044226075290155 21.596145901097852 265.1609945587627 0.8101435016460143
2.06069577564162 11.979385274336881 20.144166607291883 280.583134434767 0.8356201799907893
2.064005497608928 11.912495784905907 18.82420540435965 297.1126227901666 0.8625774648507191
2.066170088489741 11.843606821052331 17.620824806526628 314.849866006491 0.8911360160509675
2.067167218128402 11.772725270207697 16.5257068511114 333.9042817178142 0.9214218240256907
