M[M_sun], R[km], Lambda[1], P_c[MeV/fm^3], rho_c[fm^-3]
0.24162668629717493 15.618656898711224 2160425.4255784233 3.5677272577965504 0.1711233750220791
0.25364169123292774 15.277363488878262 1723169.5549915687 3.7847980439484536 0.17388790429251688
0.26603804988640833 14.98127179298849 1383057.9616212416 4.011356158676923 0.17666611338650987
0.2788109946280737 14.72357271143257 1116443.5995392066 4.2476583643432715 0.17945670406074338
0.29196390591557225 14.498503379201138 905971.0991166852 4.494329491295062 0.1822662361195754
0.3054977020968617 14.30132711175838 738727.4179532443 4.751523144391956 0.18509037666617212
0.31941247855425237 14.128231358162001 605165.3472668717 5.019924884001693 0.18793581649087943
0.33370959490477425 13.976093679711736 497751.09856699844 5.299754236386408 0.19079909011713836
0.34838842415715715 13.84213200875767 411072.0992210652 5.59174503120418 0.19368659986336995
0.3634490299729141 13.72409503496676 340706.20895478345 5.896057951005768 0.19659328700628728
0.3789011467548725 13.620087120485975 283354.6916971124 6.21355975896181 0.19952688890269107
0.3947307709324887 13.528558754413385 236451.23276215736 6.5445125039394405 0.2024836665497686
0.41095349048719115 13.447988746598506 197913.59873368064 6.889609286507536 0.20546717431409622
0.4275595227254854 13.377138847655134 166117.8187981945 7.249559198723111 0.20848056006452406
0.444551958811119 13.315027257078349 139838.12833109588 7.624627902405422 0.21151947795004475
0.46193126509537424 13.260660118944122 118014.70998442387 8.015750968331293 0.2145898829729868
0.4796932901617337 13.213232648188791 99843.97729395647 8.423639330230953 0.21769352117039775
0.49784752147441913 13.17205542645889 84668.68975149428 8.848742978803315 0.22082799330526284
0.5163829745668896 13.136471889692869 71960.40309923618 9.291916882910751 0.22399644925124618
0.5352990716348442 13.10590184584392 61297.02328065129 9.754054093186742 0.22720193225621443
0.5546023629658657 13.07988141199501 52317.267769524144 10.235963840428267 0.23044579268311827
0.5742806613625588 13.057919636782293 44344.187732711056 10.738129980466324 0.233724890204458
0.5943347970759391 13.039571552092044 38342.27491898745 11.261771708978277 0.237045094212617
0.6147703684269319 13.0245447637766 32914.15290841381 11.807838210592415 0.24040817362727435
0.6355690595423654 13.012450328202494 28304.33635672032 12.377308033632628 0.24381576057871718
0.6567376164856642 13.00305314327508 24380.990223001743 12.970887599791716 0.24726600419870307
0.6782659989402882 12.995995155977061 21036.523622364584 13.589868610528564 0.25076329967796307
0.7001515427591769 12.991068826964852 18179.485187674036 14.23546479758735 0.25431047275727114
0.7223818300930175 12.98800050745695 15735.430380958238 14.90886525242062 0.257909506917416
0.7449659514103261 12.98665026837387 13639.874902357593 15.611121579322457 0.2615605215532289
0.7678823705334107 12.986752367409109 11840.720317732432 16.34345564807506 0.2652649722177382
0.7911248528084441 12.9881299174297 10293.691220649442 17.10750378780558 0.2690277623300316
0.8146958971333591 12.990651551924095 8960.881892534573 17.90472025772385 0.2728513229193684
0.8385741963290925 12.994110277654816 7810.701587177019 18.736495841929358 0.27673696680637155
0.8627514485357416 12.998379765773105 6817.949559505262 19.60412327396862 0.2806847164487347
0.8872230404925703 13.003324638628444 5958.726843127956 20.50971194603329 0.2847011538420349
0.911980149054178 13.008823639695846 5213.8529854042645 21.455054932171517 0.2887892902409991
0.9369965558100366 13.014714451376136 4567.681617379524 22.441668628229746 0.2929493108998483
0.9622704735462836 13.020915968463674 4006.866580106524 23.47151260488026 0.29718449207000935
0.9877924724867946 13.027304510353142 3518.352257088355 24.547039150535365 0.30150118669825404
1.0135334844682011 13.033754556465649 3093.834770767417 25.6702284114634 0.305901312209655
1.039490273233466 13.04021849765844 2723.002288810462 26.842964100009468 0.31038555962886955
1.06564101179141 13.046553011104407 2399.515625917677 28.068378159641828 0.3149629383539309
1.0919667294427757 13.052677158436992 2116.8776833634474 29.34856909195885 0.3196341986813374
1.1184614709364302 13.058511509986324 1869.6722289303523 30.686202994866736 0.32440341745866735
1.1450875204235411 13.063966871539165 1653.0832057310029 32.08477060445271 0.3292792712885076
1.1718485704550754 13.06898267839271 1463.015618502808 33.54611201371356 0.3342588066238491
1.1987002874241646 13.073439951702289 1296.2259619668428 35.074815019998184 0.33935590294149837
1.2256435733321505 13.077311270524099 1149.72851582066 36.6729599209547 0.34456767557909346
1.2526354248453666 13.080484373775375 1020.7907184212867 38.34548977775275 0.34990790672135264
1.2796750827596315 13.082920953617972 907.3136099592241 40.09473609336035 0.35537373507604353
1.3067156457713167 13.084515240099199 807.2845983095696 41.926136794609434 0.36097952781632886
1.3337498648401678 13.08523121448935 718.9913962359507 43.84308562462242 0.36672673013389595
1.3607547211304276 13.085037889056316 641.0521392272375 45.850417624187095 0.3726239205057803
1.387683911256174 13.083783950529044 572.1823297816858 47.953388418907366 0.3786806370921778
1.414537731869476 13.08150452272022 511.16340676840775 50.15666142693574 0.3849020691916931
1.4412587100965883 13.078057554534887 457.1618887422715 52.46562630965372 0.39129608229833907
1.4678522490174664 13.073466764258972 409.29114521876517 54.88660842175521 0.3978739110468769
1.4942577991098376 13.067609174572738 366.7635774066548 57.42579190990642 0.4046446068658629
1.5204676740692222 13.060482959766873 329.0511094561565 60.32737245571796 0.4121828964800379
1.5435644013369436 13.050573278880936 298.5365267894768 63.011208213749036 0.5952700111451978
1.5605421163711084 13.03328405261257 276.02126867310363 66.33877096431144 0.7794490837883191
1.5726356847906802 13.007579410932834 258.5268495722432 70.0887402349657 0.9558249078607551
1.5808091613198478 12.973540387753799 244.3702765902798 74.26647110456459 1.1257010809633217
1.5858226391840209 12.931596876400954 232.47579204729905 78.88539512116168 1.2891903726131662
1.5882413541329303 12.882111501632416 222.10383720734774 83.95645592283103 1.4473425048049608
1.5885912686555617 12.825722488561613 212.82103645494638 89.49390953379442 1.6007888353236897
