M[M_sun], R[km], Lambda[1], P_c[MeV/fm^3], rho_c[fm^-3]
0.24162668629717493 15.618656898711224 2160425.4255784233 3.5677272577965504 0.1711233750220791
0.2536446310808176 15.277278420423743 1723202.2758340766 3.784831646658803 0.17388832313409092
0.2660404745770602 14.98127364068157 1383019.2571556133 4.011426798232689 0.17666696702385268
0.2788162827971564 14.723533198419675 1116442.054760593 4.247768430541329 0.1794579806627746
0.2919719080222721 14.498368302547048 905831.8545602285 4.494481872305035 0.18226793291748722
0.30550783901916967 14.301198601413422 738616.9230303833 4.751723014192823 0.18509253564147873
0.31942510952833747 14.128100663555934 594820.6900705036 5.020173714826492 0.18793839820672661
0.33372396289569045 13.975913371724475 497665.6570955397 5.300058579186051 0.19080215434413475
0.34840638918151073 13.841982182506726 410978.6180112923 5.592105645786167 0.19369008890865233
0.36347003555209884 13.723940666095869 340649.4841023253 5.896482938968916 0.1965972785831742
0.3789246528697785 13.619955327787329 283286.29331835516 6.214054263151938 0.19953139818548324
0.39475743292641613 13.528412745650172 236390.34524415308 6.54507601087382 0.20248860774432254
0.4109834106302668 13.447847815705932 197848.69441079613 6.890252674489481 0.20547265367613776
0.4275925733792794 13.377021199147945 166071.29963299524 7.250288505076498 0.20848659342908044
0.44458863358102413 13.314906847424963 139787.1533665096 7.625441111347741 0.21152595161611726
0.4619711084072491 13.26053218531112 117971.28084129216 8.016662263934526 0.21459693258122867
0.47973731881858733 13.213146604173284 99804.94914338445 8.424655818449379 0.21770116374077586
0.49789480161680616 13.171962415980547 84632.74099465518 8.849860911642798 0.22083608761667664
0.5164344518752008 13.136379515501917 71930.34816606024 9.29315435168726 0.22400516110858
0.535354252077987 13.105819640900785 61266.35605503758 9.755419488023442 0.22721128047201208
0.5546613647121016 13.079807285819998 52297.51056093236 10.237466061256855 0.23045579688781842
0.5743460382815384 13.057819982434763 44321.66385728717 10.739762500119332 0.23373537148632162
0.5944020292894587 13.039523875929781 38322.384370365246 11.263559077709575 0.2370562617247949
0.6148420138407182 13.02448729541613 32896.244658288284 11.809790987010693 0.24042004976603298
0.6356481123430117 13.012435264832295 28288.158611495066 12.379437435057985 0.24382836892256463
0.656819465578386 13.003005363352816 24366.526475337734 12.973183847696443 0.24727912861010573
0.6783525598984778 12.995969467931628 21024.39687433016 13.592364311443312 0.25077719507201807
0.7002416379267608 12.991060524699074 18169.171214191094 14.238173332647815 0.25432516669216426
0.7224767925512415 12.988008516172421 15726.098206792089 14.91180086250891 0.25792502859453936
0.7450665928476584 12.986643739157566 13631.672629837 15.61427077824809 0.26157661816919053
0.7679887119641036 12.98675408979962 11834.241161263082 16.34686108153642 0.26528194744943084
0.7912347875025223 12.988146963335675 10287.072074448768 17.111182546436677 0.26904565088752247
0.8148093581294473 12.990678184846711 8954.414340388734 17.90869056522464 0.2728701617445691
0.8386952666563559 12.994128653936185 7806.065957538277 18.74074008864531 0.27675646692399913
0.8628764229024515 12.99840340568847 6812.691762824752 19.608696643895236 0.28070523427532196
0.8873597709179798 13.003355956552191 5954.091055083755 20.514636449962648 0.2847227337818098
0.9121174958344046 13.00884721424516 5210.120877001419 21.460354088111888 0.28881197969216915
0.9371378064108591 13.014755945950128 4564.2963423729 22.447320362245147 0.29297278498533896
0.9624225907084056 13.020961443503337 4003.719693567013 23.477587839977314 0.2972091654048667
0.9879446409406047 13.027340324429657 3515.7714048742373 24.55356648124366 0.3015271166844887
1.0136878660069606 13.033804378570164 3091.4080852463253 25.67718257193354 0.30592814965420495
1.039653165629998 13.040255310387163 2720.759394657202 26.850430103308966 0.3104137648449352
1.0658066002435842 13.046585491811296 2397.6399013344135 28.076390952497754 0.31499258115893436
1.0921392085845436 13.052715104992913 2115.16639958394 29.35710027636265 0.31966490570701717
1.1186380623147618 13.058548936649036 1867.843324906847 30.695354420590913 0.324435699705907
1.1452705006792132 13.064011072340563 1651.6523991667996 32.09451240401846 0.32931274315228687
1.1720351096831183 13.069011919489327 1461.6622223417373 33.55655845254288 0.33429401219977684
1.198892490816478 13.073470814568813 1295.0797635167792 35.086015400700255 0.3393929395640501
1.225840766399792 13.077340640148948 1148.7924469964462 36.68488174196986 0.3446061335282301
1.2528358749210318 13.080497981478771 1019.9113123460686 38.35823481988169 0.34994818475790135
1.279879449331356 13.082937493034715 906.4671788590375 40.10834180140584 0.3554158265913629
1.3069251427009303 13.084521519325316 806.5887787829437 41.94062402658537 0.3610233249133981
1.3339639459603079 13.085240357505397 718.4114614905993 43.85861679846237 0.36677289681467995
1.3609721509244468 13.085032877952681 640.44970015536 45.8669601982252 0.3726720240639443
1.387903861588822 13.083769755581745 571.6511532470923 47.971013047836635 0.37873080247546453
1.4147551981639441 13.081463441785244 510.68880820984646 50.17556136029651 0.3849550288877857
1.441485727882791 13.078022512021361 456.757736908374 52.485771545660015 0.3913513935686447
1.4680805343902055 13.073422822184686 408.8899771025723 54.90808815661865 0.39793173063008325
1.4944908280795277 13.067554997291577 366.43347020435044 57.448702564619865 0.40470510361696727
1.5207034631926226 13.060402814483751 328.74518454363493 60.11424438484153 0.4116812863686498
1.5466870198358635 13.051914874217886 295.20725845931236 62.911820928854134 0.41887082150625277
1.5724032601136644 13.042030450736938 265.3854861238673 65.84906043484054 0.42628508369557944
1.597817281401909 13.030692523554828 238.84573420737226 68.93415945889038 0.43393634824463506
1.6229160284001247 13.017870946821803 215.16862314069502 72.17593485857127 0.44183786566320704
1.6476663759316459 13.003529937308732 194.0388689056896 75.58388085403239 0.4500039428877783
1.6720152293351807 12.987594351297869 175.17829775024344 79.1678840301643 0.4584485800934486
1.6959532108549835 12.9700358220638 158.32237912884943 82.93824548044168 0.4671855007565898
1.7194332843569604 12.950821596024664 143.23832371000822 86.90765442170805 0.47623604015972015
1.7424112254904833 12.929867261552847 129.73755260189108 91.08763923020317 0.4856143346684613
1.7648967342000355 12.907224630345613 117.64580785980246 95.49239841262232 0.49534272936323426
1.7868234597005137 12.882784698642789 106.79600872197204 100.13549773457478 0.5054383324848324
1.808161510086932 12.85652190043475 97.05723563522976 105.03352078489168 0.515927062423657
1.8288702941438486 12.828381776923452 88.30365461455048 110.20301429346347 0.5268314647092454
1.8489497163795072 12.798407986915802 80.43927813271608 115.6616842490213 0.5381751741764139
1.8659306485983744 12.767424150466773 74.02855441231875 121.70989440883073 0.8637590265738425
1.8736588690367775 12.732246498998357 70.12899198962927 129.0902724998645 1.2855607756452094
1.8739809947536163 12.689006541020275 67.72931171068755 137.85885400267333 1.6907025697752367
