M[M_sun], R[km], Lambda[1], P_c[MeV/fm^3], rho_c[fm^-3]
0.24162668629717493 15.618656898711224 2160425.4255784233 3.5677272577965504 0.1711233750220791
0.25364387282263995 15.277271634312893 1723359.5773297548 3.7848157841660903 0.17388812541577156
0.26603953246195977 14.981270938916762 1382939.3266800598 4.011393452018851 0.17666656405453804
0.2788143232709618 14.723565076431019 1116418.2957018793 4.24771647236116 0.17945737802618394
0.2919677599582769 14.498465260312408 905921.1127481833 4.494409938642437 0.18226713191945926
0.30550485339208633 14.301209091915641 738636.8278036797 4.7516286624592645 0.1850915164626833
0.3194190492270756 14.128170011147551 605075.3864672609 5.020056249906632 0.18793717946284577
0.33371826600010834 13.975938134419227 497697.65050378046 5.299914908428133 0.1908007078179954
0.3483978562358455 13.842053200381184 411021.54742384667 5.59193541038108 0.19368844183427794
0.3634588748214489 13.724031221643452 340665.1546407816 5.896282314200998 0.19659539427289718
0.378913249540518 13.62001937963631 283318.33222485904 6.213820821043641 0.19952926947453817
0.39474465172233725 13.528472047481726 236414.8652618728 6.544809993699452 0.20248627513307493
0.41096906193420224 13.447920507394198 197879.56445274473 6.8899489466272055 0.20547006700220816
0.4275773948172445 13.377066744289122 166090.80268546863 7.249944216227917 0.20848374521566979
0.44457142777595854 13.314966090682413 139808.073247268 7.62505721300068 0.21152289553842882
0.461951432509649 13.260596814298266 117989.0463953766 8.01623205975961 0.21459360460413057
0.4797163924984523 13.213168629826487 99820.741869761 8.424175953599935 0.2176975558279468
0.4978723048507438 13.172029864289051 84649.7996206029 8.849333155379883 0.22083226643584022
0.5164111266742477 13.136413478273075 71943.06500325375 9.292570162978382 0.22400104838364956
0.5353275682274289 13.105880172078209 61282.12237319655 9.75477490570474 0.22720686732026094
0.5546347758042193 13.079834552684003 52304.78061406208 10.236756883458115 0.23045107404032997
0.5743156892982333 13.057865823533474 44332.22093596997 10.738991808178593 0.2337304234053316
0.5943726923080839 13.039552732360601 38331.97397155038 11.262715281123008 0.23705098966845242
0.6148082520502711 13.024510942322328 32905.41361709254 11.808869100760623 0.2404144431594993
0.6356113558981257 13.012440167119644 28294.97993741295 12.378432163112672 0.24382241663278226
0.6567798401214531 13.00304903632061 24373.118629629826 12.972099806441516 0.24727293267482459
0.6783126710270578 12.995980352011856 21030.13252075507 13.591186106673634 0.2507706351435205
0.700199211432616 12.991067257668211 18174.242312475653 14.23689464667164 0.25431822975833723
0.7224328843164947 12.987996109071988 15731.609658133568 14.910414971696268 0.2579177008673974
0.7450189861557796 12.986648856880505 13539.030397958364 15.612784049514868 0.26156901899809243
0.7679388135829941 12.986749012423907 11837.40427248681 16.345253380679264 0.2652739334638832
0.791182442325243 12.988141266548062 10290.026653861722 17.109445804281034 0.2690372056985298
0.814754712761805 12.990671155933496 8957.125997062438 17.90681617760048 0.2728612679093176
0.8386392316960706 12.994125958403686 7808.530116388516 18.73873636937139 0.27674726087068763
0.8628182829321009 12.998388329790695 6815.508415626576 19.606537538690823 0.2806955477319461
0.8872917516753448 13.003347648683462 5956.265346131245 20.512311566514157 0.2847125457820596
0.912051127551325 13.00884431033241 5211.8264194071 21.457852322439813 0.2888012678560401
0.937071647716553 13.014723942518797 4565.995367741271 22.444652136052603 0.2929617026927927
0.9623486214405208 13.02092858767071 4004.952532700912 23.474719667515473 0.2971975169042821
0.9878729218742122 13.027321828546512 3517.0911919410755 24.55048486152866 0.30151487487227463
1.0136142337063687 13.03378334806321 3092.3014257091963 25.673899433839118 0.30591547939200187
1.039576558744297 13.040243504721563 2721.8571949015536 26.846905308081705 0.3104004488032749
1.065726483638793 13.046567836121147 2398.6477861452454 28.072607999774036 0.3149785863718554
1.0920583842234923 13.05269638541792 2116.108837530566 29.353072574017315 0.3196504084515958
1.1185546659707275 13.058530530739288 1868.8948007049012 30.691033879847822 0.3244204587184717
1.145184476879606 13.06398477341242 1652.3641975033167 32.0899131266896 0.32929694048839553
1.1719476029730787 13.068996360674989 1462.2710553273637 33.55162648729553 0.3342773909683863
1.1988026553410196 13.07345432533442 1295.6256684491761 35.08072746850422 0.33937545380583944
1.225746832385843 13.077325635948176 1149.270889713449 36.67925318853671 0.34458797668613617
1.252741386529005 13.080489037688576 1020.3484999276656 38.352236262689566 0.3499292781066559
1.2797823277450462 13.08293658491745 906.8321878384901 40.10191821067131 0.35539595414761327
1.3068251509997042 13.084522117711833 806.8728164693516 41.93378422846352 0.3610026471674509
1.3338620042066915 13.085240282659965 718.7231788942684 43.851284103980745 0.3667511002544902
1.3608691399683632 13.085036542195427 640.7311856689496 45.85914997241775 0.3726493129882352
1.3877999275998254 13.08377672222603 571.9075958113137 47.962691929448596 0.3787071178864167
1.4146560542257107 13.081488420045472 510.9087588194926 50.166638101303775 0.3849300249327246
1.4413789464806885 13.078038329245773 456.95351730584866 52.47626031207374 0.391325279284768
1.4670841978064924 13.073119126291555 410.4269982353115 54.935926355670034 0.5117349468320682
1.4847601372137356 13.060680914983992 379.00658171747386 57.82117585561248 0.7602806951811459
1.4952832138628671 13.037390910996642 357.3714834630002 61.19178318291508 0.9940026160560845
1.500518534974786 13.003600549206766 341.54798154850386 65.04757126997892 1.2137566484596105
1.501746420101611 12.960046099370668 329.3410429260021 69.38990541513735 1.4207844010179755
