M[M_sun], R[km], Lambda[1], P_c[MeV/fm^3], rho_c[fm^-3]
0.24162668629717493 15.618656898711224 2160425.4255784233 3.5677272577965504 0.1711233750220791
0.2536397797919301 15.277420313751502 1723283.268333533 3.784759438168172 0.17388742309008973
0.26603271514014715 14.981426009740497 1383203.316100703 4.011275002775199 0.17666513266533246
0.278804206380921 14.723727783287133 1116625.9413857975 4.247531913876845 0.17945523742588962
0.29195499430236455 14.498631611894746 906116.2444899012 4.494154429335744 0.18226428676402862
0.3054851728556016 14.301512132918228 738871.240671369 4.7512935282021855 0.1850878963730935
0.31939835311757725 14.128397811372182 605244.7494270187 5.019639023468045 0.1879328505775108
0.3336921739873554 13.976233730087198 497892.54181567015 5.299404607278121 0.19079556993215752
0.34836725565525506 13.842317724214844 411178.0939257949 5.591330761918749 0.19368259169407184
0.36342604288683505 13.724243206606694 340820.4597726861 5.895569736435817 0.1965887015917291
0.37887200156172174 13.62029982339612 283441.3800437668 6.212991692987502 0.19952170882500134
0.3946999625120747 13.52872396580111 236530.79900680605 6.543865177686773 0.20247799037302763
0.4109191840180046 13.448123290851797 197990.036556124 6.888870206084064 0.20546087999506688
0.42751999109584216 13.37730859151224 166196.45720312357 7.248721431081894 0.20847362942752973
0.44451075239492543 13.31514599415699 139896.91749242716 7.623693764271433 0.21151204160984935
0.46188469756520667 13.260787213263313 118066.67497836285 8.014704169700293 0.2145817851392757
0.47964220955403114 13.213359565658733 99880.85243417528 8.42247171121616 0.21768474230770796
0.4977924937674387 13.172175673385292 84709.23514053454 8.847458845599304 0.2208186956321979
0.5163245603900412 13.136566393318354 71999.07307503682 9.290495458997984 0.22398644233828485
0.5352350046624798 13.105994327960861 61329.5315110967 9.75248574442568 0.22719119451042083
0.5545344223667695 13.079942064705085 52347.795306592474 10.234238347423537 0.23043430157282377
0.5742074012467543 13.057962477260862 44770.205560851755 10.73625484098016 0.2337128512281113
0.5942604731102568 13.039646491884607 38362.840644432035 11.25971873050069 0.23703226716593773
0.6146877389134671 13.024611468786302 32934.42397876529 11.805595269602817 0.24039453280379317
0.635480586353809 13.012517629913289 28090.950692980747 12.374862250446206 0.243801278914986
0.6566447563148248 13.003074286577807 24396.523221169722 12.968250205535066 0.24725092993464648
0.6781672366684821 12.996026509346168 21050.407475600947 13.587002163420925 0.25074734006843485
0.7000474570949053 12.991093242365649 18192.407716952395 14.232353934033135 0.25429359617066377
0.7222716809599717 12.988026089126082 15747.14080514582 14.905493621927302 0.2578916798360521
0.7448514108705062 12.986655523054477 13650.073661960696 15.607504669824507 0.26154203431106626
0.7677613812310432 12.986759426110222 11849.994965312182 16.339544492909774 0.26524547609019083
0.7909976605312407 12.988127337866205 10301.553499009833 17.10327876531277 0.26900721747636175
0.8145640787255242 12.990637037291192 8968.400495196009 17.900160445668565 0.2728296869372083
0.838434501574998 12.994098432438319 7816.799864963527 18.73162146187783 0.2767145715521067
0.8626073654036668 12.998358945959284 6823.346457992133 19.598870966523872 0.2806611526576871
0.8870730545479706 13.003304879162096 5963.410358804674 20.504056442063952 0.28467637054674155
0.9118230499362258 13.008794996377626 5218.110994256207 21.448969232601492 0.2887632330377797
0.9368334017655413 13.014676892178304 4571.516490499543 22.43517807887393 0.2929223528529827
0.9621024820034161 13.020869811802921 4009.9872846500357 23.464535780916872 0.29715615711487764
0.9876150121832401 13.027267793404157 3521.448095156278 24.53954322629221 0.30147140894971836
1.0133548090363265 13.033728391380507 3096.6227090625794 25.66224239598611 0.3058704926379084
1.0393036565507268 13.04017434926251 2725.486172968301 26.834390396914827 0.3103531697224408
1.0654490812757558 13.04651277255895 2401.7632207277456 28.05917665283141 0.3149288979791174
1.091767955625585 13.052628546273377 2118.899501261378 29.33877238468142 0.31959893655034755
1.1182564515297113 13.058476014673447 1871.4237208824986 30.675694167919737 0.32436634689065685
1.1448791513591197 13.063935280754928 1654.6179723455532 32.073555799145026 0.3292406529523027
1.1716327946609582 13.068946772551154 1464.3660976784593 33.53411635800179 0.33421838002729654
1.1984793263790032 13.073413517940075 1297.4973971170052 35.06195377495875 0.3393133742908444
1.2254169922949123 13.077288522391058 1150.8795889185137 36.65927039728308 0.3445235152948215
1.2524041736033853 13.08045339238442 1021.949637359006 38.33081453484249 0.34986141876894605
1.279438199500342 13.082904744379196 908.1617488339355 40.07911337397925 0.35532540360149173
1.3064739366096563 13.084506302630649 808.1115174016034 41.9095020475242 0.36092923845573704
1.3335031917816353 13.085227646470537 719.799117781608 43.82525242765873 0.3666737206498696
1.3604996543757788 13.085052927582755 641.6953539660994 45.831423330256 0.3725686876792085
1.3874307061126736 13.083803770963579 572.7905388161496 47.93315193288586 0.3786230375204808
1.4142794570532495 13.08153178216183 511.70848149695115 50.134960950944325 0.3848412620665233
1.4410054785198056 13.078113883011216 457.6730440599685 52.442496279034096 0.39123257590033117
1.4675876035726856 13.07351992253689 409.73655976104754 54.861946465653084 0.3978075254964061
1.4939923163037725 13.067675771890743 367.19723396117337 57.39948736757372 0.40457514838157604
1.5201999713448147 13.060557399505306 329.42729937260134 60.06173169647681 0.41154519024096103
1.5461798861236424 13.05209516500956 295.82802196130706 62.855768333061235 0.41872816319358086
1.5718946624515238 13.042242005510301 265.97684384792916 65.78920540328205 0.42613540882088163
1.597310477795041 13.030932873943938 239.34589664688102 68.87021749836309 0.4337791665045013
1.6224021987422261 13.018153801459212 215.6197336810567 72.10759746765193 0.4416726476976841
1.6471541814429826 13.003846099539585 194.45789683465406 75.51081326717194 0.449830116830216
1.6715075035556957 12.987949770043409 175.56021138959343 79.09007040766429 0.4582669796306435
1.6954429346349895 12.970437072374446 158.67013147894122 82.854994636219 0.4669941905590319
1.718907356352598 12.951228171212392 143.55350973254974 86.81850421822604 0.476034158811568
1.7419214909044805 12.930383946603424 130.0294292003797 90.99255255423714 0.4854028018145841
1.764401440523301 12.90776639337091 117.90545830180575 95.39045956399082 0.4951190527674979
1.7863294313516906 12.883364315531155 107.02637149613922 100.02661796159768 0.505203374658363
1.807672282407445 12.857144729416804 97.2700631370762 104.91713566526079 0.5156799183781682
1.8284013946400195 12.829091216230813 88.50065382945297 110.07818416565269 0.5265699494248434
1.8484783737335675 12.799143233085022 80.61856434742305 115.52787662756431 0.5378987738039441
1.8678743093251893 12.767291175445585 73.52184438077158 121.28626055707142 0.5496952271723964
1.886554353450385 12.733496327507751 67.13607275305188 127.3745948839909 0.5619886384250016
1.9044879532821997 12.697728946277369 61.37271886877021 133.81573959862587 0.5748099268577971
1.9216432412284747 12.659973083293133 56.182119999238566 140.63433899220863 0.5881918598956185
1.937978572946579 12.620167017705027 51.49049665449134 147.858467447792 0.6021743003123758
1.9534750461291261 12.578331354519975 47.254317222436676 155.51708770674782 0.6167947801933596
1.9681155050756711 12.53448766047096 43.42187035681897 163.6428303009152 0.6320976088880821
1.9818506836857694 12.488554259795006 39.95429329803507 172.26996750329508 0.64812627728389
1.994655544841685 12.440535723616014 36.81387487604783 181.43762240090788 0.6649336239450622
2.0065082699270205 12.390431338287614 33.96933957923113 191.18749551823595 0.682573323653904
2.0173822554006886 12.338237836062644 31.386595605767276 201.56546996232652 0.7011044122669196
2.0272406469963635 12.283922546536491 29.046200549463396 212.6219744614895 0.7205914680719601
2.036074176978518 12.227528612673584 26.919328141845483 224.41103228585544 0.7411003901993882
2.0438441400389715 12.169006146264689 24.9865708748286 236.99490809783524 0.7627123354839694
2.050530571123765 12.108374063710965 23.229634640867534 250.4389764409337 0.785505499181336
2.056124379173405 12.045671552764562 21.6319514281794 264.81721832931834 0.8095714380272411
2.060605168974261 11.9809220660778 20.178062688300958 280.21093799391275 0.8350090212228053
2.0639464015783267 11.914112635794208 18.853889839537086 296.7092732369309 0.8619239663018546
2.0661330962540205 11.845273052935767 17.64918608990386 314.41171407060716 0.8904346209794707
2.0671570813192437 11.774459336068215 16.551539781885666 333.4284390647185 0.920670268565169
