M[M_sun], R[km], Lambda[1], P_c[MeV/fm^3], rho_c[fm^-3]
0.24162668629717493 15.618656898711224 2160425.4255784233 3.5677272577965504 0.1711233750220791
0.25363998031564156 15.277416362022118 1723209.4688442545 3.7847636372674307 0.17388747542983626
0.2660332460801576 14.981414050594477 1383204.3140522977 4.011283829937523 0.17666523933637973
0.27880527408255307 14.723702889408507 1116594.3081827348 4.247545667551153 0.17945539694778523
0.29195641633324204 14.498612135307726 906141.6099378838 4.494173470234693 0.1822644987888576
0.30548720896548304 14.301465690398404 738854.774142435 4.751318502627084 0.18508816614454682
0.3193997032857395 14.128388518647245 605239.5081468504 5.019670115181916 0.18793317316604252
0.3336941673901714 13.976184523427353 497829.7916238107 5.299442634573525 0.19079595280392353
0.3483705745627548 13.842266264898106 411165.14867090055 5.5913758195297065 0.19368302763885278
0.36342752418617724 13.724246450885484 340815.63941694435 5.895622836325034 0.19658920031712573
0.3788750907660777 13.620305606091733 283436.15656735696 6.213053477429396 0.1995222722247181
0.39470323245890826 13.528705093744835 236522.67845864707 6.543935582323598 0.20247860772658058
0.41092323711739587 13.448124381250777 197979.44994365398 6.88895058964904 0.20546156457523784
0.42752413569556325 13.377318971264934 166191.78675451493 7.248812547509131 0.20847438321038114
0.444515107734177 13.315132825869776 139897.06737938686 7.623795361531664 0.21151285038936762
0.4618903614694351 13.260784809919171 118062.91742275318 8.014818019328885 0.21458266585819633
0.4796490216882691 13.213341607513367 99880.71503716172 8.422598700542506 0.21768569708991428
0.4977978661620757 13.172174038625846 84703.84592738771 8.847598506235759 0.22081970683487823
0.5163302535574006 13.136558459030155 71992.34799982168 9.290650050344084 0.22398753067099902
0.5352427179661713 13.105978056425093 61324.9450148297 9.752656314105552 0.22719236232073703
0.5545426120942889 13.079944651034566 52347.988169604585 10.234426006695141 0.23043555131036653
0.5742167127132747 13.057967211646782 44767.860481508964 10.736458774385527 0.23371416054374444
0.5942665311636753 13.0396121567053 38359.37210002362 11.259942003827804 0.23703366218172595
0.6146969578152707 13.024576658020086 32932.332623692 11.805839201140573 0.2403960163145335
0.6354905424397778 13.012509529175807 28320.847712708197 12.375128240698231 0.24380285386300551
0.656654997518242 13.003086210892715 24395.10075571073 12.96853703307841 0.24725256932326506
0.6781783552585562 12.996026895758947 21048.4578351978 13.587313899737985 0.2507490757327291
0.700058743957018 12.991082351214922 18190.716252785176 14.232692249691787 0.2542954315496235
0.7222844692719942 12.988023206021552 15745.953672328404 14.905860294794591 0.25789361857371984
0.7448633867510815 12.986659589603718 13648.935533341908 15.607898015619703 0.26154404483385474
0.7677754627912644 12.986749031798835 11848.630092629797 16.339969836194655 0.26524759631978617
0.791011986941684 12.988121548902791 10301.455433841496 17.10373823960572 0.2690094517442573
0.814577749732554 12.990629725259842 8909.107065728209 17.900656325887976 0.27283203985339227
0.8384507547169012 12.99409044706471 7766.809301396859 18.73215154906745 0.2767170070284686
0.8626255441086403 12.998354750561536 6780.71690763218 19.599442150083018 0.28066371519809036
0.8870889234020983 13.003309101526476 5962.929662307333 20.504671469507247 0.28467906569235957
0.9118400821709797 13.008790021142204 5217.573321162116 21.449631039520412 0.2887660667033558
0.9368514745907152 13.01467473756146 4571.0373932008315 22.43588390919884 0.2929252844703135
0.9621201503735065 13.02087184541773 4009.648731901152 23.465294488121216 0.2971592384502683
0.9876349490744474 13.027268913775822 3521.201456343948 24.54035837942003 0.3014746471661238
1.0133759767745827 13.03373524823148 3096.31661499285 25.663110840726276 0.3058738441334137
1.0393242022395517 13.04017456583548 2725.201734253948 26.835322744853002 0.31035669196506377
1.0654701474733135 13.046513757007563 2401.4847865649213 28.060177265590877 0.3149325996808144
1.0917898456104231 13.052634269985695 2118.8165441291794 29.339837717237113 0.31960277109343055
1.118279463177768 13.058474381412793 1871.2606545138533 30.676836932503324 0.3243703780667747
1.1449024967114547 13.063935313687017 1654.3366427356193 32.074781353967694 0.3292448913976321
1.1716574427950484 13.068949749083872 1464.3147606912914 33.535420791300965 0.33422277610200746
1.1985030813291928 13.073410074478192 1297.34151539186 35.063352325858226 0.33931799891952097
1.2254420119768545 13.077287193423036 1150.7361435773896 36.66075900910159 0.3445283173261159
1.2524293135441276 13.080456700683799 1021.7367300597892 38.33241032484477 0.34986647388184133
1.2794632159207955 13.08290675589124 908.1409864071512 40.08081218422304 0.3553306591528502
1.3065004739767827 13.084510413830316 808.0122751530806 41.91131089606423 0.3609347068789129
1.3335291084936503 13.085227560679535 719.7301098636789 43.82719158216771 0.3666794848199271
1.3605291579553975 13.08504818342493 641.7004866340036 45.83348872966106 0.37257469358011513
1.387457277743783 13.08379823070237 572.7126137764333 47.935352393689996 0.37862930074225354
1.414307191585384 13.081525951431141 511.65249588534306 50.13732058618657 0.38484787402450926
1.4410339956758071 13.078110461665256 457.6238663958113 52.445011344957265 0.3912394813290424
1.4676159695309123 13.073515310819609 409.69770599171 54.86462809152524 0.39781474395097405
1.4940211222884612 13.067670388203096 367.17466231523855 57.40234758379597 0.40458270092824333
1.5202292782208608 13.06054792507498 329.3857416876018 60.064783515229216 0.41155309958111375
1.5462094074800503 13.052084716294853 295.790653210009 62.859025836991464 0.41873645380006635
1.5719243895431003 13.042228724521681 265.94785760124313 65.79268384313399 0.42614410708793493
1.5973402609777216 13.030919789558382 239.31977789873588 68.87393340054729 0.4337883009127469
1.6224322837782288 13.018139079037525 215.59421797560142 72.11156875288748 0.4416822489958651
1.6471838345988572 13.003827501579066 194.4343194678405 75.51505938146589 0.4498402182354955
1.6715371412999034 12.98793036051703 175.53283853015705 79.09461246705582 0.4582776170495515
1.6954726812323289 12.970415377059958 158.65200872624808 82.85983239906811 0.4670053077239693
1.7189373592923047 12.951200991676519 143.54398728187283 86.82368472274075 0.47604589010543713
1.741951266281831 12.930356627048436 130.01344640180326 90.99807795747753 0.4854150938029662
1.7644309199548047 12.907733820144298 117.89223501805178 95.3963830518649 0.49513205022254425
1.78635711202759 12.883327258700744 107.00620392902029 100.0329446905519 0.5052170274649689
1.8077005806868844 12.857110911961076 97.25793598676988 104.92389841834311 0.5156942790985137
1.8284292127600819 12.829050227408331 88.49326315172422 110.08544728785101 0.526585181342801
1.8485086502901058 12.799100052367525 80.60830083098624 115.53565150461148 0.5379148340170198
1.8679015827516192 12.767244471165876 73.51455130926875 121.29458991472272 0.5497121826922055
1.886580480059401 12.733446914802812 67.12554108427807 127.38352544896313 0.5620065619976425
1.9045139152008677 12.697675783369435 61.367824300970504 133.8252897046821 0.5748287817324337
1.9216684151136094 12.659916064695931 56.17339412348474 140.64459622747387 0.5882118448905447
1.938002018023971 12.620106030056986 51.48403138541697 147.8694931850209 0.6021955088665002
1.9534981842141772 12.578263975681997 47.247064617736214 155.52891307442619 0.6168171904488461
1.9681368076903645 12.534419577084446 43.41526587133572 163.65556403020852 0.6321214519561366
1.981870720822627 12.488484472095937 39.94919437890277 172.2836521290365 0.6481515444490755
1.994674855210169 12.44046290501352 36.80858535686892 181.4523446241842 0.6649604406788951
2.006525926853907 12.390349357763977 33.9649608904353 191.2033508580454 0.6826018269884356
2.017398334963839 12.338153899432056 31.382493846150957 201.58256378184427 0.7011347521103973
2.027255040317298 12.283832743916268 29.04183255706588 212.6403800561036 0.7206236675585658
2.0360879285569387 12.227432693151552 26.916069175217224 224.43091984521143 0.7411347663191906
2.0438559781091414 12.16890761397399 24.983871828396452 237.0163744304819 0.762748937553063
2.0505410021666877 12.108271080548652 23.226281699812468 250.46222303510515 0.7855446876844745
2.056132920711694 12.045564520777559 21.62922933391983 264.8423716707265 0.8096132946487226
2.0606113552716354 11.980806962518464 20.175431609466987 280.23818917444373 0.8350537991712857
2.0639520389618635 11.913994951419909 18.85173359418303 296.7387844087242 0.8619717796880044
2.066135915168051 11.845151496191715 17.64701792362057 314.4437709627568 0.8904859377586968
2.0671575679679433 11.774332490982822 16.54918518007599 333.463252908464 0.9207252542504548
