M[M_sun], R[km], Lambda[1], P_c[MeV/fm^3], rho_c[fm^-3]
0.24162668629717493 15.618656898711224 2160425.4255784233 3.5677272577965504 0.1711233750220791
0.25363734659468395 15.277463188771227 1723368.2232779996 3.784690872795773 0.1738865684557998
0.2660241664113678 14.981645465671365 1383293.9977770357 4.011130869622025 0.17666339090123792
0.27879174621764646 14.723964657123691 1116834.9923869472 4.247307341782633 0.17945263272801967
0.2919383999724694 14.498909532238887 906308.0506571641 4.493843530621671 0.1822608248346916
0.305464625318605 14.301771911458683 739113.6927150118 4.750885752523246 0.18508349161750937
0.3193717441954263 14.128688864991165 605492.9715633863 5.0191313725920885 0.18792758350373753
0.3336601595805289 13.976524366268102 498090.6944516775 5.2987837233696675 0.1907893186614321
0.3483308855566134 13.842614231909053 411364.3119524443 5.590595100487154 0.19367547396734766
0.36338248532305334 13.724606360722744 340979.57258054893 5.894702778439884 0.19658055893876342
0.37882514683007407 13.620565615056103 283613.87870247354 6.211982955353401 0.19951251035237752
0.3946448061899625 13.529025307518992 236689.12334657746 6.542715713415933 0.20246791112422252
0.4108584924860475 13.448397720649803 198119.00998319383 6.887557836258735 0.20544970330291973
0.427453813570138 13.37757533300087 166311.14403342304 7.2472338506849905 0.20846132305614035
0.44443491398969065 13.315413763342322 139999.7569446245 7.622035090042923 0.2114988374964664
0.46180257117800144 13.261020530054369 118155.37212270695 8.012845485550459 0.21456740671469512
0.47955362940806046 13.213577303950618 99968.3298117032 8.420398535577322 0.2176691549251503
0.49769616520180854 13.17237529721209 84779.78107593101 8.845178826875648 0.22080218732246157
0.5162199187848557 13.136747229434377 72066.36020145827 9.287971719390551 0.2239686750541117
0.5351229024382911 13.106157983998887 61386.55034260541 9.749701186971444 0.22717212995613698
0.5544136824807885 13.080099587821747 52401.44589513503 10.231174836927318 0.23041389978799828
0.5740773253566144 13.058090805127371 44816.487911672426 10.732925690522352 0.23369147705093044
0.5941231211309831 13.039749768217915 38404.91443927221 11.256073903340363 0.2370094942198821
0.6145404978784371 13.024701291458152 32968.94637031439 11.801613252721099 0.24037031549730387
0.635323945215506 13.012589619952045 28352.869870998547 12.370520189485166 0.24377556924984187
0.6564749537998281 13.00312474269213 24427.092881813147 12.963568038676048 0.2472241685888932
0.6779931102844635 12.9960689367724 21076.460422675733 13.58191344396627 0.2507190074418609
0.699863200515389 12.99112565021385 18214.716005830214 14.226831401560473 0.2542636361624723
0.7220781816096706 12.988032296386775 15766.80086372493 14.899508265500485 0.2578600330004263
0.7446460958354933 12.986656024722912 13667.230931948074 15.60108398028352 0.26150921600514443
0.7675479119060549 12.986742259661058 11865.076997460541 16.33260157863343 0.2652108674038663
0.7907733765481194 12.98810493887775 10246.43654749226 17.095778813228875 0.2689707477490746
0.8143281348456327 12.990606573753302 8980.379050858575 17.89206633597114 0.2727912809654506
0.8381885485581363 12.994068822440966 7827.810943306541 18.72296908259051 0.27667481834614277
0.8623510282733113 12.998310663690102 6833.091306881992 19.589547896555803 0.2806193259224929
0.8868052032343249 13.00324834132736 5972.006959999405 20.494017852018736 0.2846323798886554
0.9115459316450414 13.008723694809659 5225.88033670482 21.43816722505335 0.28871698196957934
0.9365456469278208 13.01460953600415 4578.770267668114 22.423657630295452 0.29287450346833643
0.9618037413903612 13.020799228952693 4016.172174580475 23.45215242994555 0.297105864647131
0.9873078832043352 13.02718735675421 3527.0471151932634 24.52623874241079 0.3014185565511925
1.0130319934492127 13.033639055623304 3101.2449566143364 25.648068251376472 0.30581579188407365
1.0389737092107 13.040088126086632 2729.8082833896055 26.81917345194212 0.3102956828444423
1.0651075822679208 13.04642502368971 2405.6706760493803 28.04284574875152 0.3148684828637045
1.091416687142709 13.052554227432903 2122.5420810714672 29.32138536579964 0.31953635395805713
1.117894612829471 13.058391591055667 1874.627187110315 30.657043630967866 0.32430055591303447
1.144510787854585 13.063864948586248 1657.373774576337 32.053554330247586 0.32917148009209246
1.1712503869262567 13.068877988332302 1466.9220256471826 33.51282778163059 0.33414663532998157
1.1980924074039652 13.07335628228656 1299.8504564213595 35.039129474197466 0.33923790051590874
1.225016184414889 13.077229499953523 1152.947717623048 36.63497655841131 0.34444514713122665
1.2519940322436225 13.080418896072885 1023.6644635903149 38.30477191028514 0.3497789214434593
1.2790197839785238 13.082878011873506 909.8579843735648 40.05138979935991 0.3552396361234674
1.3060466466601997 13.084483607997015 809.5678045160295 41.8799830347335 0.3608399980079599
1.3330684172676117 13.085223640028751 721.1401953495011 43.793607352193725 0.3665796551199597
1.3600622551176265 13.085052414755687 642.9789992698643 45.79771844320643 0.3724706784461312
1.3869807707319588 13.083839347677847 573.8698975893418 47.89724341480336 0.37852083028649613
1.413814572329271 13.081557474099936 512.7328819645733 50.09645547075807 0.3847333654676498
1.4405428953465864 13.078185817534857 458.5465146788985 52.40145490735265 0.39111989167056704
1.4671148529413123 13.073599139882822 410.5571821342691 54.81818766600478 0.3976897346776014
1.493520275734879 13.067792169399356 367.91685291501915 57.35281490814265 0.40445190737441383
1.5197224298256782 13.06070382891334 330.0611600745462 60.01193333532238 0.41141612878306544
1.545698864097841 13.052263250491395 296.41498343210077 62.802614372238445 0.4185928821373596
1.5714108048209228 13.042441781220207 266.5019002387537 65.73244709727716 0.42599347768964424
1.5968245613837972 13.031163372190914 239.83762102312807 68.80958530047877 0.43363012080285246
1.6219175481651822 13.018410408322747 216.07295996853088 72.0427990959707 0.4415159859493448
1.6466563889589738 13.004141125897057 194.85024480460018 75.44153156944715 0.4496652973131882
1.671021452305962 12.988286099288585 175.91988287484463 79.01596100190473 0.45809341677597043
1.694952577039249 12.970811374819695 158.99901898605563 82.77606144302055 0.4668128023109526
1.7184417209794296 12.951677676064758 143.8487279323038 86.73398012613531 0.47584275332962706
1.7414421206789297 12.930841546884807 130.29909469745024 90.90240236176648 0.4852022508194299
1.7639264035571913 12.90826808102093 118.150210684533 95.29381594128864 0.494906995079817
1.7858596914626192 12.883910312320948 107.25399019650963 99.92339679270802 0.5049806278540228
1.8071974573174343 12.857720486149635 97.47763560464075 104.80680233769851 0.5154456253258219
1.8279453678110478 12.829737953492714 88.68970010531658 109.9596894480952 0.5263214472288235
1.8480213528393192 12.799816395737697 80.7902348765092 115.40103482700721 0.5376367624137336
1.8674373782918967 12.768042473374704 73.68220406556912 121.1503749729136 0.5494186139195623
1.8861286077588513 12.734304101257027 67.27760735075937 127.22890359449363 0.5616962371694717
1.904057094815923 12.69854600881918 61.506522203013006 133.65972071025595 0.5745015502217967
1.9212321589047838 12.66086599374117 56.300349061990254 140.46701018305387 0.587865839743455
1.937591607844555 12.621159349014462 51.600910812347024 147.6786051738751 0.6018283262797905
1.9531068611903737 12.579380185154658 47.35177599397453 155.32418436470383 0.6164292090502895
1.9677585532228528 12.535583864826025 43.511189563448276 163.43511321566163 0.6317086723490922
1.9815181493366965 12.489737476987514 40.037512101855135 172.04674313035142 0.6477141178860976
1.9943564718956488 12.441825567223768 36.888998422895504 181.1974772293077 0.6644961961851911
2.0062162977621916 12.391745926455094 34.03966693588907 190.92887232469275 0.6821083936371527
2.0171043725020987 12.339605415945291 31.453028290104008 201.28665109091645 0.7006095362733805
2.0269904411799233 12.285372801960847 29.104666465689874 212.32116423056087 0.7200643004335108
2.0358466308058256 12.229040489719537 26.973744184386916 224.08665789641768 0.740539701344986
2.0436477446045846 12.170610386991314 25.03446910967552 236.64438404698572 0.7621140276307715
2.0503625449528258 12.110055287322147 23.276179671690524 250.05983175934082 0.7848663469496178
2.05598018081815 12.04742079095429 21.674708205925505 264.40698458588844 0.8088887852440956
2.0604894263485387 11.982739234396798 20.217804261090432 279.7665005219154 0.8342787409987515
2.063862350667798 11.916015280604576 18.88974773509273 296.22791020340367 0.8611439415135276
2.066085555704425 11.8472631328805 17.681572104757834 313.8889262798989 0.8895977405509914
2.0671433899417546 11.77652973247556 16.581616446172827 332.86070499775315 0.9197735779566745
