M[M_sun], R[km], Lambda[1], P_c[MeV/fm^3], rho_c[fm^-3]
0.24162668629717493 15.618656898711224 2160425.4255784233 3.5677272577965504 0.1711233750220791
0.25364436785157307 15.277251212886545 1723092.7803419332 3.784826190535093 0.17388825512614098
0.266040645735731 14.981232875793223 1382985.8699697354 4.011415328318958 0.17666682841671433
0.2788163412558504 14.72347780915778 1116484.0813397106 4.2477505587382565 0.1794577733767912
0.29197171560532714 14.49835968203033 905829.0230359931 4.494457129586777 0.18226765740157694
0.30550638018308673 14.301208752507044 738606.8253921447 4.751690560364907 0.18509218507819816
0.3194233433554064 14.128118822478443 605103.1750009619 5.020133310767524 0.1879379789990203
0.33372284000470986 13.97589367244677 497680.8175649286 5.30000916109325 0.1908016567859397
0.3484034557852031 13.84200693533953 410994.0313618716 5.592047090215028 0.19368952236739348
0.36346517070615275 13.723986090193309 340629.01973071974 5.896413930300004 0.196596630439152
0.3789198040469734 13.619993453244046 279372.2433940848 6.2139739661991396 0.19953066597395755
0.3947517475437153 13.528467538930173 236401.53844710195 6.54498450894643 0.20248780539603237
0.41097886544932793 13.447848205005817 197853.9747751916 6.890148201036473 0.20547176393637134
0.4275860707644587 13.377054749144522 166073.20248703944 7.250170079633781 0.20848561372574267
0.44458302094901103 13.314910574766634 139789.8779562826 7.625309061176123 0.2115249004118432
0.4619644909435291 13.260571253396614 117976.3618314846 8.01651428561833 0.21459578784931757
0.47972954780428007 13.213141027885865 99808.30340748312 8.424490757959884 0.21769992271664518
0.49788665588971576 13.172007465126194 84637.83738026037 8.849679377538411 0.22083477323219733
0.5164254081965591 13.136400748809027 71934.51334977351 9.292953405990787 0.2240037464383493
0.5353452345580537 13.105832536770196 61272.388937205505 9.755197768132229 0.22720976246027366
0.5546524991031861 13.079794484145067 52301.675066438016 10.237222121764725 0.23045417234596194
0.5743353628231379 13.057829687864478 44726.708078966825 10.739497400920063 0.23373366946734486
0.5943936423963836 13.039509897359238 38323.23726746902 11.263268831824208 0.23705444826325076
0.6148305329135326 13.024494840053402 32899.033508625136 11.809473879627772 0.24041812122406284
0.6356355230717985 13.012426163884335 28290.346931974633 12.379091644375881 0.2438263214702772
0.6568062924751076 13.00302265810582 24369.447047155954 12.972810961652298 0.2472769973463865
0.6783386528805101 12.995978075052586 21026.829545616627 13.591959034590147 0.25077493859907984
0.7002275883938092 12.991060659299391 18171.07761345054 14.23773349172757 0.2543227805337055
0.722458118330507 12.98802038041618 15728.090753093471 14.911324144618085 0.2579225080073504
0.7450500491951967 12.986644426167762 13632.884136350558 15.61375937350173 0.2615740042073553
0.7679709478830048 12.986757313767011 11835.424053054674 16.346308063916027 0.26527919079529483
0.7912167209335833 12.988146536976187 10288.265997353352 17.110585140161287 0.26904274590310395
0.8147930417218496 12.990673416916252 8955.926627669123 17.908045810470067 0.27286710242936085
0.8386749626033836 12.994129928126904 7806.83809217127 18.740050845267564 0.2767533002073025
0.8628550243851885 12.998414253482524 6813.522983145798 19.607953949331044 0.28070190227320535
0.8873371266345687 13.00335714576497 5954.766873378958 20.51383672924846 0.28471922928164156
0.9120942718818795 13.008856338910721 5210.765124428015 21.459493521462598 0.28880829499498584
0.937115016910711 13.014740235149716 4564.872259691044 22.4464025346488 0.2929689728520355
0.9623988374459784 13.020948626014007 4004.161977074564 23.47660123236903 0.29720515849821977
0.9879201832730125 13.027338444063048 3516.25563999896 24.552506449238027 0.3015229056805512
1.013662489945258 13.033796628830038 3091.564359912677 25.6760532190108 0.305923791263775
1.0396274475297118 13.040254495099981 2721.1295315586112 26.849217621677916 0.3104091843076641
1.0657778500611519 13.04658104178205 2397.968834472613 28.07508966594115 0.31498776713411875
1.092111026178226 13.05270107898673 2115.542123214044 29.35571479717115 0.3196599188326163
1.1186098465135825 13.058539646541707 1868.4100321635237 30.69386820603154 0.32443045698774453
1.1452409289430494 13.063996137769163 1651.9095009322687 32.09293030512355 0.32930730721631446
1.1720048827022678 13.06900970742953 1461.8924520175278 33.55486190974381 0.3342882946756231
1.1988615133348062 13.073465778764673 1295.2822499234683 35.08419640579416 0.33938692464102627
1.2258075679148843 13.077332094297848 1148.9378454815273 36.68294557393759 0.3445998877498704
1.2528038492329563 13.080499379933862 1020.0362903862904 38.35617362051317 0.3499416942386899
1.279848126701834 13.082938355964572 906.5973573501763 40.10613214069788 0.3554089906393324
1.3068904924959897 13.084525430194304 806.6494347006824 41.93827119040033 0.36101621193315764
1.3339236188158887 13.085240562666671 718.4551286360639 43.85609440493978 0.36676539895664495
1.36093657111533 13.08503602512787 640.5273276245048 45.86427353307076 0.37266421160663105
1.3878675154790248 13.08377671356526 571.7233066210038 47.96815063436956 0.37872265512273007
1.414725252207237 13.081479895918529 510.7670980795964 50.17249180792345 0.38494642766376475
1.4414491719666491 13.078028410755188 456.8243885075667 52.48249972765658 0.39134241038225154
1.4680433749496486 13.073431922906883 408.96956232847947 54.90459958423281 0.3979223400206266
1.4944529090644352 13.067562221895054 366.4770347215884 57.44498157541758 0.4046952781553884
1.520665237144948 13.060416693828603 328.79300152266535 60.110274037616456 0.41167099649586403
1.5466488443322362 13.051927228255362 295.255203093453 62.907582888050165 0.4188600353554675
1.572365439635246 13.04204592537526 265.43081005572515 65.84453484331972 0.42627376689687135
1.597789256421412 13.030716558322844 238.88985246283914 68.92932479773661 0.43392446370986576
1.6228763884129571 13.017894292362909 215.2034433895356 72.17076779245747 0.4418253733491231
1.647627953579645 13.00355580293836 194.07074789393138 75.57835606049883 0.44999079953489024
1.6719767930459888 12.987621381406656 175.20418766313603 79.16200286312939 0.4584348593980411
1.6959145776227025 12.970067864982491 158.34614588072964 82.93195055320702 0.46717103503213836
1.7193952000133383 12.950856461424163 143.26274396955915 86.90091332587933 0.47622077489435033
1.742377323416766 12.929920169999523 129.76362714802815 91.080449159992 0.48559833940881114
1.764859601152447 12.907265937991774 117.66367085489242 95.48469009503958 0.49532581559327404
1.7867864086338443 12.882827995038182 106.8098599309524 100.12726445750718 0.505420565430111
1.8081243056471836 12.856569958633255 97.07222496401573 105.02471984980365 0.5159083736195502
1.8288340658730502 12.82843390481054 88.31762069677458 110.19359912630446 0.5268117800992234
1.8489135435083972 12.798465566188113 80.45599798516055 115.65156553427072 0.5381542724034393
1.868289799558702 12.766525689272429 73.3785866490538 121.41877241692609 0.5499649727588813
1.8869684461615321 12.732703907741495 67.00129383569003 127.51665800526268 0.5622737338873038
1.904891908368474 12.696886039211874 61.24990777481279 133.96767650299591 0.5751098974830137
1.9220328267511464 12.65906906568603 56.06784198343343 140.79752842523675 0.5885098149689624
1.9383462792972341 12.619179585847748 51.38566197900105 148.0338862762897 0.602511727156622
1.953841979960707 12.577334469911602 47.15738040068285 155.70523134606833 0.6171513312233158
1.9684572426209401 12.533402759340314 43.33229569961162 163.84523275162877 0.632476296601771
1.9821725124872847 12.4874015583923 39.874385639543824 172.48769934013316 0.648528295314305
1.9949628126466588 12.43932444092428 36.74143710420914 181.67186694986964 0.6653603036389806
2.006797868525167 12.38916231186674 33.898435103558604 191.43977329807333 0.6830268464443345
2.0176445081683894 12.336887427022894 31.3238354023171 201.83745824220412 0.7015871646342708
2.0274799748443577 12.282500737782486 28.98905518215497 212.91483994319134 0.7211038187106124
2.0362899899517455 12.2260343886546 26.866852970037623 224.72748442959053 0.7416473852634914
2.044033240141413 12.167437929708973 24.938646411417704 237.33648799434144 0.7632947605855763
2.0506928128164104 12.106730202416239 23.185210470918033 250.80876262927578 0.7861286719208226
2.056265236289169 12.043982654654666 21.590818815738203 265.2174832430387 0.810237502098573
2.0607112705306205 11.97913205684591 20.139444302176404 280.6442265950419 0.835720385352716
2.0640171477186566 11.912235045957408 18.820676138179415 297.1789033228889 0.862684851189949
2.0661772009526227 11.843332818275304 17.61629552110649 314.9218671563972 0.891251275730431
2.0671686914237006 11.772440165471819 16.521397888264495 333.98247837785584 0.9215453294039214
