M[M_sun], R[km], Lambda[1], P_c[MeV/fm^3], rho_c[fm^-3]
0.24162668629717493 15.618656898711224 2160425.4255784233 3.5677272577965504 0.1711233750220791
0.25364112872018185 15.277356710611022 1723147.3352232454 3.7847853512970397 0.17388774608474017
0.26603537408305467 14.981366425215946 1382990.8363814508 4.01132947644004 0.1766657909474239
0.2788084738250123 14.723650082850716 1116557.4749482041 4.247616790076264 0.17945622186189716
0.29196087166344853 14.498552742584417 906048.9518882526 4.4942719343233595 0.18226559520933722
0.3054939231668059 14.301379211353998 738771.062165726 4.751447650698978 0.18508956119020606
0.3194075756309868 14.128306793240778 605209.7708027057 5.0198308977632315 0.18793484134738003
0.33370099201569575 13.976161636115865 497795.8198224916 5.2996392835706185 0.19079793273302456
0.3483823959267202 13.842168434293637 411100.6521049349 5.5916088250920195 0.19368528203176577
0.36344089249831035 13.724144062106827 340753.99179164896 5.895897431979887 0.19659177937762676
0.37889216033968987 13.62016210660298 283389.46191361535 6.213372984944454 0.19952518574854336
0.3947205580692843 13.52860958193401 236479.52617205805 6.544299669138081 0.2024818002760864
0.4109421705934502 13.448040291421222 197936.47519734077 6.88936628275096 0.20546510479213265
0.42754588024498835 13.37721243060266 166144.48234385045 7.249283746218706 0.20847828131654755
0.44453893511948106 13.315048360455854 139854.83891727612 7.62432076274048 0.21151703292082166
0.4619156979204273 13.260692905985607 118031.04814777622 8.015406785046341 0.21458722043701747
0.47967643149897843 13.213275792428787 99854.07481499828 8.423255420072026 0.2176906347026992
0.49782898580089185 13.172097757877475 84676.47842129071 8.84832075752403 0.22082493624279953
0.5163643118753517 13.136497651710235 71973.22286475272 9.29144951870153 0.22399315897807648
0.5352781908894401 13.105929874725827 61307.22808018298 9.753538417963366 0.2271984016706724
0.5545805027350941 13.079903697088207 52328.01181795844 10.235396493634513 0.23044201437479456
0.5742582525358134 13.057909111198656 44752.93583240583 10.737513427330873 0.23372093174234415
0.5943108251668502 13.039585245923368 38349.40553907308 11.26109667894838 0.23704087661277465
0.6147431284703722 13.02454987520675 32920.54768344433 11.807100716903197 0.24040368843516283
0.6355396236761452 13.012470065608442 28308.703930069398 12.376503840837243 0.24381099889350222
0.6567060468749821 13.003059723822252 24385.38351802733 12.970020400805387 0.2472610476449089
0.6782341866488975 12.996000956176879 21041.248765352302 13.588926093094729 0.250758051993407
0.7001172207691067 12.9910838002991 18183.963637892324 14.23444190936458 0.2543049235387405
0.7223452265974835 12.98801758281971 15739.294407890324 14.9077566164986 0.2579036451413928
0.744927693979166 12.986660504125393 13643.50801566468 15.609932288492622 0.26155444268739453
0.7678433923870885 12.986745816147145 11761.830074997391 16.342169599914797 0.2652585615902113
0.7910831264651547 12.988126244685702 10296.177142006502 17.10611452958355 0.26902100683774016
0.8146502668099082 12.990657280524548 8962.793478276619 17.90322090897051 0.2728442086167424
0.8385273748683088 12.994113785265464 7812.539723457969 18.734893052185125 0.2767296028168025
0.862704516513527 12.998381875527137 6819.889207168231 19.602396207366542 0.2806769681900951
0.8871744513614179 13.003315212926266 5960.203320771553 20.507852292471014 0.2846930045517812
0.9119281102815262 13.008810381036646 5215.287754495128 21.45305381258446 0.2887807220264255
0.9369424193113008 13.014703292894593 4568.864439901796 22.43953437744408 0.2929404464371428
0.9622159992235749 13.020901082433461 4008.045879764747 23.469218445553064 0.2971751748073204
0.9877354607400087 13.02729308732729 3519.3883114056166 24.544574287277793 0.3014913949666573
1.0134717397692736 13.033748209401379 3094.497729143895 25.667602383946512 0.30589117786372294
1.0394290624407851 13.040206432960217 2723.81987870495 26.840144812141485 0.31037490886697217
1.065577890237282 13.046537794126888 2400.2466736921497 28.065352418227718 0.31495174482074695
1.0919000725040378 13.05266434786379 2117.4883091353 29.34534761886424 0.31962260335619136
1.1183932865158308 13.05850367089473 1870.2459546346515 30.68274733868266 0.3243912274075571
1.1450198877805768 13.063960375835295 1653.5378317701147 32.08109204156186 0.3292666321087385
1.171777153475533 13.068971679487172 1463.4745999851878 33.54216740637561 0.33424551289041415
1.1986278255230884 13.073428811553265 1296.6271968626793 35.07058575623369 0.33934191791278523
1.22556957860929 13.07729975105126 1150.1091341947797 36.66845827115921 0.3445531539536936
1.252559406925381 13.080468538372832 1021.162115525212 38.34066396253118 0.3498926195966546
1.2795968618920786 13.082920515136149 907.5752504011543 40.089598689822225 0.3553578416657922
1.3066352789263829 13.084518260592281 807.5362635359561 41.92066657281138 0.36096299050709835
1.333668114782965 13.08523440206334 719.2622010630213 43.837221272449504 0.36670929824641846
1.3606723063065638 13.08504167852471 641.2533063403823 45.84417142636978 0.37260575741100943
1.3875993315001232 13.083791078156988 572.3765924887604 47.94673370397277 0.37866169562528523
1.4144519602176833 13.081512846297214 511.3324968015553 50.14952524661862 0.3848820728280212
1.4411803252058861 13.078088899293778 457.32923481722025 52.45801998940249 0.3912751981927711
1.4677643411744168 13.073486753260472 409.4367949832467 54.87849829203389 0.3978520800362422
1.4941711741019887 13.067630493590874 366.91673879732355 57.41714157441439 0.4046217652142481
1.5203812009583717 13.060499235692777 329.1897661553159 60.08056860925977 0.41159400950668906
1.546362099778602 13.052029521067519 295.61122023206457 62.87587488587375 0.41877933596903055
1.57207737868665 13.04216365678506 265.7470409664351 65.81067574157932 0.42618909804483973
1.5975064822662461 13.030852737772467 239.06874508410039 68.89315364312436 0.43383554799665147
1.6225866245226293 13.018055902221613 215.4729459793247 72.13211004789513 0.4417319112806658
1.647338760297834 13.003732805450548 194.3142315771963 75.53702232865155 0.44989246756636536
1.6716877501623701 12.987822509756928 175.4274553205673 79.11800326332266 0.4583322088350801
1.6956261507702082 12.970296009500982 158.53528875513678 82.8848558785155 0.4670628116068592
1.7190902288290013 12.951070288835792 143.442432780486 86.85048119012826 0.47610657091995706
1.742095131791219 12.930191399429683 129.926538318224 91.02665856950276 0.4854786751445772
1.764580766515234 12.907575957043354 117.80554433596329 95.42702296561697 0.49519928103487654
1.7865063185055403 12.883156624665405 106.94040503938118 100.065670579826 0.5052876485142499
1.8078480051020898 12.856925999556232 97.19255428022444 104.9588798858271 0.51576856231804
1.8285724424920566 12.8288410625588 88.4288994750064 110.12301723060868 0.5266639714650282
1.8486473404317803 12.798880895887342 80.55509098973691 115.57586882443537 0.5379979091218459
1.8680391008493167 12.767005119962139 73.46484852817412 121.3376756588193 0.5497998894780223
1.8867154901969936 12.733189033901052 67.08428082428787 127.42972136628198 0.5620992768350979
1.904644585310593 12.697402177347605 61.32449953281941 133.87469064150125 0.5749263145205694
1.9217936290044129 12.659622749185237 56.136181216509854 140.6976553490511 0.5883152242367413
1.9381228402270778 12.619795543852105 51.44913124094992 147.92652802325549 0.6023052182155046
1.9536179536608318 12.577944495208227 47.2155837226309 155.5900846752407 0.6169331167557531
1.9682491627298688 12.534068155497307 43.38651574907296 163.72143496585286 0.6322447909376087
1.9819767493439053 12.48810783653515 39.9239148822306 172.35444246382312 0.6482822510622039
1.9947761299485676 12.440067963492108 36.78571893772201 181.528502947485 0.6650991641207825
2.0066183726656814 12.389933737170882 33.94056860970131 191.28537138837234 0.6827492762794927
2.0174838750716453 12.337715190579255 31.36274743488031 201.6709916779955 0.7012917029033731
2.027334396194927 12.28337328606382 29.022602357402175 212.73559454407618 0.7207902396087719
2.0361585378843605 12.226946316211635 26.899359898516167 224.5338015319531 0.7413125997639892
2.043918098270158 12.16839741695134 24.968602493702488 237.12742421263354 0.7629382876328382
2.050593000788992 12.107733118889357 23.21183006710779 250.58248349147797 0.7857474196303776
2.0561761773190805 12.045008580656328 21.615146713585528 264.9724972698049 0.8098298312057269
2.0606469997598085 11.980225680011358 20.162494312827913 280.37916870657733 0.8352854505751398
2.0639768260010967 11.9133877040329 18.840283970684155 296.8914569049837 0.862219136487973
2.0661496423444694 11.844518845385196 17.63652675449733 314.6096149619524 0.8907514213824048
2.067161782014731 11.773676587159315 16.540250723687997 333.64336142824214 0.9210097212704773
