M[M_sun], R[km], Lambda[1], P_c[MeV/fm^3], rho_c[fm^-3]
0.24162668629717493 15.618656898711224 2160425.4255784233 3.5677272577965504 0.1711233750220791
0.25364501765627157 15.277244852319663 1723290.858600829 3.784840140509637 0.17388842900584398
0.2660419052949435 14.981234613343798 1383029.0287797328 4.011444654131147 0.1766671828018477
0.27881802914995246 14.723458864247611 1116350.132679302 4.24779625271284 0.17945830335803703
0.29197400364562015 14.498360876209965 905839.2193712806 4.494520390961615 0.18226836183166795
0.3055114502199842 14.30112702909452 738564.0138962851 4.751773537379458 0.18509308138831934
0.31942842802935234 14.128069122561731 605027.6687632459 5.020236614852804 0.18793905081877676
0.3337286042898566 13.975853273305697 497632.03048247646 5.300135512221534 0.19080292893214706
0.3484109495355553 13.841945728683084 410953.3056630391 5.592196804060324 0.19369097089003157
0.3634747133775015 13.723911787634814 340618.1639936676 5.896590370695629 0.19659828760468648
0.378930536513882 13.619918209057813 283264.6070004176 6.214179268615559 0.1995325380847951
0.39476429768128385 13.528380059815609 236379.40204693037 6.5452184604327135 0.2024898568345141
0.4109909426266608 13.447789270850455 197833.9827429261 6.890415318404817 0.20547403881997162
0.4275994778945317 13.377023182442402 166050.99412849278 7.250472869825821 0.20848811863140296
0.44459725245667975 13.3148612914631 139774.08075912474 7.625646687500702 0.21152758813447986
0.4619792731919253 13.260502070624955 117948.05769100846 8.016892637597863 0.2145987147077637
0.47974747958564257 13.213096663675973 99787.62939958752 8.424912786336554 0.2177030957800529
0.4979064973850975 13.171935530798722 84624.02480114928 8.850143526384201 0.22083813386815637
0.5164487935286766 13.136339944581328 71924.01163832606 9.293467187352018 0.2240073634911629
0.5353686249282503 13.10579324715469 61260.8902768655 9.755764666071038 0.2272136437436393
0.5546766688200565 13.079767026596217 52289.48950482645 10.23784439289654 0.23045830750827712
0.5743617762861524 13.057804048820383 44717.44398407149 10.740175213652597 0.23373802123504783
0.5944210703714723 13.03949069366027 38318.5715366324 11.264010941266486 0.23705908497647554
0.6148606842907356 13.024474828945745 32891.66522749502 11.810284670437314 0.24042305218495943
0.6356669607570495 13.012411404353697 28283.396797294987 12.379975774784658 0.24383155647203267
0.656839658698198 13.002997245051494 24362.28614661252 12.973764371552118 0.24728244664640975
0.6783730818991223 12.995974681342108 21020.83197273014 13.592995263973929 0.25078070804666625
0.7002644740327112 12.991059801461828 18166.87163510499 14.238858097503389 0.25432888157492567
0.7225020491209528 12.9880004037336 15723.610950130818 14.912543040769805 0.25792895277077094
0.7450923661346293 12.986643384422257 13629.223956647233 15.615066960176987 0.2615806877230827
0.7680153041359498 12.986763369970287 11832.621062743625 16.347722050463375 0.2652862391635933
0.7912634631873159 12.988144834764473 10217.975527009163 17.112112624151635 0.26905017354049954
0.8148410729947019 12.990673859027304 8953.327085953317 17.909694360078728 0.27287492467937696
0.8387250262769435 12.994144330466474 7804.854219930289 18.741813148117892 0.2767613970770597
0.8629102204899336 12.998408909402428 6811.63765379447 19.609852922245015 0.2807104217670508
0.8873922178090002 13.003373060098312 5953.119653881101 20.51588151333475 0.2847281898425565
0.9121512271208237 13.008864617376654 5209.024774373079 21.461693883850153 0.288817716309533
0.9371729470023494 13.01475992186266 4563.466873243595 22.44874930877489 0.2929787200157047
0.9624615351037311 13.020961189445872 4002.903879060979 23.479123872126756 0.2972154036878252
0.9879827537594387 13.027353196328386 3515.019014829371 24.555216830302804 0.30153367273784326
1.0137294341262244 13.033803347641317 3090.6520443551 25.678940848995374 0.3059349351840116
1.039694837203731 13.040267892617631 2720.2638640781424 26.852317806884805 0.31042089624912683
1.0658482888546712 13.046599063809177 2397.1556085247835 28.078416920508435 0.3150000760955643
1.0921820554924815 13.052726432758359 2114.71048757591 29.35925732762488 0.31967266976712494
1.118683766733532 13.058555151429518 1867.580075177126 30.69766831213172 0.32444386210825366
1.1453170327721183 13.064012396150014 1651.3099605260552 32.09697558288284 0.32932120639225154
1.1720828724382728 13.069019636582393 1461.3957099349016 33.55919981616311 0.334302913867513
1.1989416489994362 13.07348100791079 1294.834791263904 35.08884741809964 0.3394023042778282
1.2258895766988578 13.077342821865342 1148.5170831884889 36.687896193790536 0.34461585768317654
1.2528867105463877 13.08050392480915 1019.6703620040797 38.361443941546135 0.3499582899743753
1.2799323657900366 13.082946431091491 906.2449873084493 40.11178207416525 0.35542646964595964
1.3069847874880414 13.084544781150413 806.4065189517612 41.94428722026968 0.3610343993028772
1.3340171219887291 13.085236863918338 718.1747088922449 43.8625439907518 0.3667845704611584
1.3610264036790556 13.08503182570741 640.3083839996315 45.87114315912854 0.37268418754603894
1.3879590216756224 13.083767172564482 571.5180697873939 47.975469647113265 0.37874348739562735
1.4148114138539563 13.081457141875259 510.59122229597017 50.18034047497333 0.3849684204937795
1.4415425494037082 13.078016678085476 456.6507613519066 52.49086558781871 0.39136537989983977
1.4681377234506598 13.073415380946459 408.79153407842637 54.91351968620112 0.39794635133087997
1.4945496163056706 13.067538718570276 366.3429328295401 57.45449596915447 0.40472040139682386
1.5207619974506696 13.06038864308927 328.6757514031806 60.12042604309174 0.41169730725382536
1.5467459480832608 13.051893878145366 295.1321733862463 62.91841939079882 0.41888761511650296
1.5724634168178873 13.04200555614652 265.32452688811946 65.85610661980381 0.42630270354848093
1.5978772768480973 13.030664823414298 238.78368114121454 68.94168687386241 0.4339548520905331
1.6229753356463257 13.01784130854912 215.12383885086288 72.18397983900988 0.4418573158541327
1.6477281370306045 13.00349400417845 193.9784145355126 75.59248282972133 0.45002440678408995
1.6720758692683493 12.987551492997216 175.14370331850844 79.17704089245562 0.4584699429484129
1.6960130574570915 12.969988797444497 158.27554331692383 82.9480465873497 0.467208023671719
1.7194918440871576 12.950771237046046 143.19819365284656 86.91815023719218 0.47625980801775225
1.7424737795665226 12.9298191201666 129.7118265892932 91.09883412267638 0.4856392391835224
1.7649558473824982 12.90716194734001 117.6080659736722 95.50440024991352 0.49536906407413117
1.7868818584006865 12.882719643486523 106.76089443115733 100.14831696775033 0.5054659958338785
1.8082187765805537 12.85644782419641 97.03285345907547 105.04722390154531 0.5159561610205939
1.8289318393310403 12.828312056969915 88.28525758531983 110.21767381624754 0.52686211387184
1.8490046346054096 12.798320318892873 80.41884232645792 115.67743925739057 0.5382077185870694
1.8683781137364652 12.766371970921385 73.34300095887016 121.44649225488766 0.5500214001907837
1.887053067981444 12.732541574262005 66.96938633675036 127.54627420675871 0.5623330083697724
1.9049748756533638 12.696710513682826 61.2210786571731 133.9994609370516 0.5751726498248187
1.922113913348011 12.658880381506195 56.042462679579714 140.8316675045051 0.5885763308778128
1.9384242514284387 12.618977781561082 51.3630893354739 148.07058448058413 0.602582317978432
1.953916917157322 12.577119036859024 47.138893138141206 155.7445923619353 0.6172259242884769
1.9685304362319604 12.533177222873183 43.31892609559748 163.8874951491106 0.632555243111492
1.9822404746219593 12.487162985382982 39.85781736059175 172.53325233257112 0.6486124039341805
1.995023748825123 12.43906900284502 36.724977880940266 181.72087569718843 0.6654495737517665
2.006859164230864 12.38889285121602 33.886157590332125 191.49255611841156 0.6831217347534914
2.017698820809377 12.336604107427974 31.31079813443825 201.89436628153786 0.701688170790573
2.0275308463211537 12.282208785929889 28.975929307038097 212.97611743504785 0.7212110200164994
2.0363342318446596 12.22572215624346 26.854914870073717 224.79369867522348 0.7417618381634056
2.0440731849847307 12.167115337522329 24.929037946072754 237.40796163059323 0.7634166297010657
2.050726386790505 12.106387465417681 23.175145380265914 250.88601214150626 0.7862586534263021
2.056293966851968 12.043623367663615 21.583248053862565 265.3011838918394 0.810376694266283
2.0607336404685177 11.978757163541962 20.131649345645773 280.7348104215656 0.8358689639114159
2.0640321877720527 11.911844624865987 18.811921125817182 297.2771809443564 0.8628440785462201
2.066186765882505 11.84292664379434 17.61099471010869 315.02862792256167 0.8914221787188338
2.0671720749279023 11.772019997920953 16.51537610455962 334.0984265758414 0.9217284603207629
