M[M_sun], R[km], Lambda[1], P_c[MeV/fm^3], rho_c[fm^-3]
0.24162668629717493 15.618656898711224 2160425.4255784233 3.5677272577965504 0.1711233750220791
0.25364381944224007 15.277272311146938 1723220.3890367944 3.784816801446402 0.1738881380956799
0.26603959343399713 14.98128287591331 1383020.3815158475 4.011395590544802 0.1766665898973621
0.2788144935542016 14.723537446268613 1116402.5839724438 4.247719804482122 0.17945741667376572
0.2919681379365378 14.49845717647494 905946.9113250495 4.4944145517954714 0.18226718328798897
0.30550401670867133 14.301226813714118 738614.5144965929 4.751634713281846 0.18509158182311536
0.3194202468425401 14.128145686447514 605111.1546372982 5.020063782970186 0.18793725762128763
0.3337177975724705 13.975988311991605 497690.36192913103 5.299924122056761 0.19080080058394752
0.34839840327954724 13.842048581802368 411018.72193557053 5.591946327578394 0.19368854746116518
0.3634595064964988 13.724031685239126 340661.5762578684 5.896295180235755 0.19659551511341836
0.3789140808890847 13.620015567946915 279400.3780160186 6.213835791611644 0.19952940598809263
0.39474683323251036 13.528452138754998 236402.2777953455 6.544827053256937 0.20248642472234774
0.4109701336088595 13.447908753178876 197884.72238961598 6.889968424505585 0.20547023288399402
0.42757800625682696 13.37707831388542 166092.3516550649 7.2499662952030155 0.20848392786937242
0.4445723329918996 13.31494464693583 139811.42766796498 7.6250818320480525 0.2115230915218759
0.46195328066428915 13.260586335422367 117988.73533463792 8.016259648290658 0.2145938180237226
0.4797166415548758 13.213181778101722 99815.41068936851 8.424206726742907 0.21769778719896188
0.49787430219669765 13.17200336848189 84650.10014283864 8.84936699966905 0.22083251148295435
0.5164119019577478 13.13641227604804 71942.6646060187 9.292607626114751 0.22400131212646515
0.5353300672610037 13.105852097784929 61280.001586772494 9.754816241694344 0.22720715032832617
0.5546355889759198 13.07985231011008 52302.67009561461 10.236802361741258 0.23045137690795456
0.5743174877542002 13.057864492184208 44733.79547930911 10.739041231152118 0.23373074071613092
0.5943738131138105 13.03953118870045 38330.625404105725 11.262769392029066 0.23705132775437268
0.6148102024859381 13.024509785835829 32904.017653687 11.808928219255518 0.2404148026985853
0.6356142308980273 13.012448771481122 28294.440679026866 12.378496628795045 0.24382279833887113
0.6567827164662805 13.003033578155893 24178.523786808615 12.972169323275097 0.24727333000453863
0.6783140898633359 12.995981364177672 21029.40258713265 13.591261661801228 0.2507710558142285
0.7002022349704198 12.991059358500548 18038.501015350772 14.236976645200897 0.25431867460436036
0.7224358117018996 12.98799604547469 15731.302268616124 14.910503844763493 0.2579181707728048
0.7450220641312205 12.98664279573948 13635.15472915849 15.612879388835877 0.26156950630946035
0.7679421473889403 12.98676044073329 11837.632791353062 16.345356477329688 0.2652744473748281
0.7911857655857467 12.98814168828817 10289.871110808537 17.109557175672908 0.26903774725989493
0.8147581666056499 12.990665459334451 8957.033028417478 17.906936375449273 0.27286183823951554
0.8386417426794807 12.994117883351123 7808.447661770131 18.7388648605562 0.2767478512211987
0.8628214371577659 12.998390503354702 6815.239962983313 19.606675993881698 0.2806961688930685
0.8872954539005873 13.003343823448708 5955.907852945307 20.512460652080375 0.28471319909812687
0.9120555047411087 13.008843336629466 5211.815554859056 21.458012750381524 0.2888019547620287
0.9370751073170082 13.0147410601419 4565.738849152754 22.444823238093285 0.292962413353259
0.9623521767752441 13.020933524551422 4005.0509002031213 23.474903590822088 0.2971982638714792
0.9878769124678969 13.02732425168298 3516.9829276690107 24.550682471792868 0.30151565988404433
1.0136192742077899 13.0337822293145 3092.1638659407595 25.67410996614903 0.3059162918767321
1.039581964430796 13.040237581373766 2721.7641749918707 26.84713133618064 0.3104013026967319
1.0657320388678662 13.046562143888375 2398.6214898217086 28.07285058166657 0.3149794837877586
1.0920630264538198 13.052699866128496 2115.915787159028 29.353330849964753 0.3196513380864243
1.118560404024005 13.058531544691027 1868.8296254247336 30.69131093332565 0.32442143604256735
1.1451899933503713 13.063985238221683 1652.3114258397595 32.09020805347016 0.3292979538277644
1.1719528529793435 13.069006371920617 1462.2558942985759 33.55194274673965 0.33427845679532076
1.1988085428119548 13.073455665540633 1295.608690136986 35.08106655324195 0.33937657506714103
1.2257535205724328 13.077327121264274 1149.2408536207577 36.67961411459207 0.3445891409777206
1.2527483965604238 13.080494029470668 1020.3123891104241 38.35262318257976 0.3499305037840468
1.2797889794397996 13.082936151025068 906.8350172579837 40.102330115796654 0.3553972284444625
1.3068316530702233 13.084521600540864 806.8708823484822 41.93422282141785 0.3610039731003984
1.333868657719553 13.085235890762883 718.6945629609522 43.85175430195308 0.3667524979260325
1.3608765170365733 13.08503616499847 640.7026840712136 45.859650790214104 0.37265076929835605
1.3878063917928352 13.083775420406749 571.8746937914057 47.9632255061354 0.37870863661790966
1.41466229990546 13.081486781993174 510.8936987237362 50.167210287507935 0.3849316282615249
1.4413861469863463 13.078036991408439 456.9450572903559 52.4768701994931 0.3913269538071165
1.467979964665941 13.073440959527991 409.0789263122823 54.898597120858575 0.39790618246874265
1.4943884982732165 13.067577389840567 366.5879973334239 57.43857923018634 0.4046783724365959
1.5205995673655786 13.060434693122751 328.8835212274097 60.103442663911935 0.4116532917556016
1.5465826032849095 13.051953657465617 295.33455740606365 62.90029094046202 0.41884147676912015
1.5722990679953528 13.042073005658116 265.5048119454084 65.8367481587693 0.42625429533359505
1.5977228550990215 13.030749331992869 238.96232560444437 68.92100635430249 0.4339040153625927
1.6228096003476549 13.017932836514674 215.27221934475608 72.161877443368 0.44180387932704246
1.6475619561406987 13.003594515179952 194.12040433927604 75.56885024044992 0.4499681854142658
1.6719110977368312 12.987663684058521 175.2624639273122 79.15188390090128 0.4584112519749313
1.6958482913149098 12.970121660924697 158.38882398335554 82.92111972039964 0.4671461458098915
1.719328451242293 12.950913405731297 143.30226715074983 86.88931486712197 0.4761945100918152
1.7423147951216473 12.929976377332775 129.7985863576867 91.06807824755498 0.48557081868220797
1.7647943546870746 12.90733416322647 117.69839529004874 95.47142755296028 0.4952967146145703
1.7867218376778342 12.882903522604796 106.83572059849718 100.11309873763501 0.5053899964211893
1.8080606371269017 12.85665106115774 97.10012010603376 105.00957749430422 0.5158762187959075
1.8287720471196178 12.82852207346048 88.34596402212674 110.17740001037393 0.5267779120569032
1.848852416498382 12.798562097617689 80.47252394050956 115.63415600416971 0.5381183103218176
1.8682400747247432 12.766659349290041 73.39231566873995 121.40012079668324 0.5499270048951231
1.8869100096245253 12.732815303953227 67.01988517005177 127.49667496233239 0.5622336521681389
1.9048347241945254 12.697006068108507 61.26761422341739 133.94629018886542 0.5750676742585284
1.9219775491421822 12.659195211210063 56.08124352390568 140.77455790740632 0.5884650596649822
1.9382933085754306 12.619314797642886 51.40114702426663 148.0091939936849 0.6024642303225141
1.953791698463193 12.577477283530891 47.16853228249115 155.67874754206036 0.6171011417636545
1.9684098627832545 12.533556894687495 43.34581842334774 163.81679693245485 0.632423178255236
1.9821269274057356 12.487564362460995 39.88589734286184 172.45704967687007 0.6484717040622546
1.9949179104279926 12.439496642638924 36.75045604477971 181.63889233323542 0.6653002399175624
2.0067572860472116 12.38934283985749 33.90790254899917 191.40425959155442 0.6829630030282027
2.017606825329123 12.337078335039303 31.331786418497845 201.79916922801056 0.7015192054109771
2.027446397737183 12.282700024462772 28.995734546527213 212.8736113197927 0.7210316917006065
2.036259094014821 12.22624527004016 26.87409517200745 224.68293458207523 0.7415703797914798
2.0440072070840922 12.167657875908924 24.945626653470182 237.28839988329165 0.7632127659387873
2.050670259572401 12.10696094533762 23.191085773980706 250.75678882405825 0.7860412198029694
2.0562445662227598 12.044225198449915 21.596094921910673 265.1611313025942 0.8101437291956947
2.0606958114408336 11.979384467761625 20.143928252103997 280.5832823219428 0.8356204225601782
2.0640050237690253 11.91249536470926 18.823674493306203 297.11278323643813 0.862577724802428
2.0661701702479567 11.843606256513077 17.620809187063553 314.8500403001646 0.891136295060858
2.067167097979764 11.772724632943676 16.52581102334465 333.90447100837946 0.9214221229950181
