M[M_sun], R[km], Lambda[1], P_c[MeV/fm^3], rho_c[fm^-3]
0.24162668629717493 15.618656898711224 2160425.4255784233 3.5677272577965504 0.1711233750220791
0.2536415245021441 15.277355675711428 1723157.2986945258 3.7847940225883976 0.17388785416820376
0.26603723123534034 14.981301028494148 1383259.8560354742 4.011347705040821 0.17666601122930656
0.27881087534585236 14.723597427377168 1116542.25512524 4.247645192498726 0.17945655128719618
0.29196386823707504 14.498487486789672 905974.2553475965 4.494311255672432 0.18226603306168515
0.30549610748983586 14.301367100773806 738789.1603585514 4.75149922588842 0.18509011830068478
0.3194114965645569 14.128249840588841 605179.5456570989 5.019895106501278 0.18793550753781957
0.33370720601526954 13.976117389796796 497777.2753362347 5.299717816025791 0.19079872342453927
0.3483861547835453 13.842143956085105 411076.1229977178 5.5917018771267015 0.19368618233579907
0.36344693313989546 13.724100075506968 340719.96173589607 5.896007093811417 0.1965928093447554
0.3788984944679207 13.620124356284895 283371.6757741127 6.213500583319678 0.19952634929208696
0.3947274764933414 13.528577483468096 236458.49996409693 6.544445071364548 0.20248307525718373
0.4109499049931925 13.4480049349086 197920.9011834182 6.889532295374136 0.2054665186252961
0.4275555625592354 13.377157735334936 166124.0800100147 7.249471926694376 0.20847983808539625
0.44454793277514265 13.315019580878207 139838.77444720006 7.624530590761699 0.21151870328678954
0.4619263045514505 13.260660234161632 118017.77603326032 8.01564191993372 0.21458903939546975
0.479688084501227 13.213248530006952 99843.35359114883 8.423517694904474 0.2176926066427857
0.49784161100903485 13.172071838254425 84672.83428966954 8.84860920509323 0.2208270247264447
0.5163769585242451 13.136476465678903 71963.0969409044 9.29176880621817 0.2239954067820989
0.5352928063120548 13.105900829866924 61299.05048834574 9.753890709715902 0.22720081364648914
0.5545951299169982 13.079875369180895 52320.84242354776 10.23578408539762 0.23044459558473682
0.5742734771251073 13.05791655087182 44747.809879794055 10.737934634939345 0.23372363602566432
0.5943285451001921 13.03956901782585 38345.1907924726 11.261557835641593 0.2370437579281391
0.6147619417269279 13.024555187780322 32917.3520695706 11.807604546246464 0.2404067525581906
0.635560424604492 13.012466596899225 28307.399149381414 12.377053236281185 0.24381425190469258
0.6567284371385527 13.003040782114404 24382.23244934291 12.970612839487256 0.24726443378147353
0.6782576311850586 12.995987241747827 21037.80225686358 13.589569986186001 0.25076163701762993
0.7001409589314779 12.99107670568693 18181.408910317616 14.235140708371253 0.2543087145574566
0.7223697562593532 12.988004888688305 15736.718744284086 14.90851399465299 0.2579076496851909
0.7449544855583595 12.986655681540837 13641.012835568707 15.610744766608775 0.2615585955365863
0.767870426235522 12.986761085652084 11841.854140864247 16.3430481783951 0.2652629410835805
0.7911120868386684 12.988126406064929 10225.825946129848 17.10706361659741 0.26902562192650076
0.8146803808651122 12.990650354494088 8961.104052473775 17.904245204892074 0.2728490688276496
0.8385596048826911 12.994117134742526 7811.4648987084165 18.73598801434496 0.2767346336013783
0.8627366900153611 12.998387863238301 6818.567387457881 19.603576069779052 0.28068226148863973
0.8872069252326487 13.003327174001619 5958.802626379515 20.50912273214783 0.2846985718154298
0.9119631070146609 13.00882462868582 5214.3232032874175 21.45442089521664 0.28878657547836717
0.9369788829670598 13.014709396933279 4568.055650820922 22.440992409077403 0.2929465022704703
0.962253868179474 13.02090565885986 4006.9352900878876 23.470785719052735 0.2971815399706849
0.9877741516253136 13.027300555261624 3518.756203275662 24.546258177445925 0.301498084262915
1.0135130974284865 13.033757744238752 3094.142309420466 25.669396373759202 0.30589810121591304
1.039471196789171 13.040213223264175 2723.2858888523347 26.84207082789101 0.31038218500765713
1.0656215759212577 13.04654453497782 2399.7755123494267 28.067419472741047 0.31495939175421594
1.0919456508200953 13.052670587256703 2117.21158615684 29.347548387526512 0.3196305247720967
1.1184388587858967 13.058509798598523 1869.8173528977497 30.685108089315932 0.3243995551083888
1.145066622381988 13.06396185769197 1653.0883332242486 32.08360507075149 0.3292752666295107
1.1718261451075287 13.068976442894774 1463.1618634967379 33.54486218332292 0.33425459456656975
1.198677396105503 13.073441290156596 1296.3494239160623 35.07347499551239 0.3393514718438053
1.2256197037040373 13.077306784585438 1149.8456687933515 36.671533590327265 0.34456307445728057
1.2526115416651993 13.080473744805996 1020.9345313528559 38.34396073416056 0.34990306304645225
1.279651561598324 13.08292364066516 907.4698061438038 40.09310832196049 0.35536869929513565
1.3066902410241397 13.084514678526677 807.3504102893585 41.92440356845917 0.360974288011094
1.3337242166581542 13.085228880536922 719.1407025280213 43.84122751623281 0.3667212068748192
1.3607282093689783 13.085042654923711 641.1014421658733 45.84843852610167 0.372618165557388
1.3876566543601043 13.083785287111997 572.2469239810408 47.95127987992266 0.37867463550957614
1.4145107261534207 13.08150390365372 511.22108887282394 50.15440033234937 0.3848957333554843
1.4412318777868636 13.078063015247302 457.2032157633853 52.46321624807801 0.3912894651722242
1.4678248588368108 13.07347177122321 409.32530952595505 54.88403872448887 0.3978669938839859
1.4942306942615196 13.06761366582974 366.82265732252705 57.423051044206616 0.4046373694703312
1.520441211072293 13.060483101235485 329.0995681356441 60.08687400940747 0.411610351091368
1.5464238462437583 13.052008517326316 295.535753637477 62.88260532222599 0.41879646546464044
1.5721385458018986 13.042141237968524 265.6788485648592 65.81786273467293 0.42620707000580493
1.5975608870231255 13.030827683030191 239.11006524972055 68.90083135060257 0.433854421290678
1.6226487538356098 13.018024849790836 215.4152590752357 72.14031550982205 0.4417517494645283
1.6473992470089536 13.003697725402358 194.2568542439124 75.54579573834275 0.4499133393001057
1.6717488890068557 12.987778093895301 175.37077391611825 79.12734247434958 0.45835399710755836
1.6956872620377688 12.970247002430854 158.49266386649106 82.89485197401982 0.46708578260521477
1.7191595264808701 12.951045022623672 143.40985512001294 86.86118560710128 0.4761308111577276
1.7421558703980657 12.930134098343364 129.89394656035915 91.03807576433965 0.48550407420057096
1.76464078229889 12.907510103571424 117.77363904701512 95.43926287898621 0.4952261381378485
1.7865665707512932 12.883085662459418 106.91059091364869 100.07874386797097 0.5053158601028982
1.8079075602625705 12.856849198712945 97.1679737552283 104.97285431439025 0.5157982370463854
1.8286210019537736 12.828737206798902 88.40290343294582 110.13802581460347 0.5266954468434984
1.8487035579594948 12.798792729252082 80.53094873988321 115.59193509737354 0.5380310964976915
1.8680945843225656 12.766910413944037 73.44513278323811 121.35488794410267 0.5498349273832603
1.8867689828003225 12.733085714931015 67.06556940265052 127.44817626012141 0.5621363156597794
1.9046966925365807 12.697292314634655 61.3084457020287 133.8944260387199 0.5749652783224655
1.9218441298922395 12.65950481555919 56.12014667241014 140.71885232787307 0.5883565240122901
1.938165171130907 12.6196398807006 51.435674018097835 147.94931346492103 0.6023490471461947
1.9536698065821985 12.577833675010757 47.205016697694155 155.61452292794183 0.6169794296909255
1.9682925335218155 12.533927784755727 43.37545338811769 163.74775083307 0.6322940656629085
1.98201797726727 12.487960648004863 39.91324164522594 172.38272387850776 0.6483344696021932
1.9948153585189854 12.439909742207936 36.774971340624894 181.5589291657259 0.6651545858991917
2.0066547992057546 12.389767578200587 33.93268558214763 191.31813990220786 0.6828081846298141
2.0175178623396564 12.337539418127282 31.354552738202347 201.70632033833527 0.7013544077905912
2.0273654655533684 12.283188137934982 29.016057291457805 212.7736348882219 0.7208567889149734
2.0361855774464477 12.226752609722611 26.891535938861423 224.5749054733073 0.7413836489051661
2.043942210015155 12.168191066409404 24.962665900077145 237.17179191463643 0.7630139386404396
2.050613867634728 12.10752016751871 23.20551837747691 250.63053160720114 0.7858284178927436
2.056193573190442 12.04478690569469 21.610669168117763 265.0244873406511 0.8099163457041745
2.06065999486223 11.979993940249619 20.157799052870423 280.43549589271674 0.8353780049448902
2.063985962168943 11.913144947322671 18.83601030739562 296.95245651081063 0.86231796677939
2.066157129618475 11.84426572823477 17.63232423770357 314.67587789669113 0.8908574953080053
2.0671630063031867 11.77341003855205 16.53570269623277 333.7153245137798 0.9211233812157134
