M[M_sun], R[km], Lambda[1], P_c[MeV/fm^3], rho_c[fm^-3]
0.24162668629717493 15.618656898711224 2160425.4255784233 3.5677272577965504 0.1711233750220791
0.25363349672149416 15.277546479260021 1723479.4487789127 3.784629898457593 0.17388580844008938
0.2660180754327892 14.981745594013221 1383590.0347016964 4.0110026969026515 0.17666184200956667
0.2787813918045121 14.72415286515216 1117076.375810355 4.247107642127826 0.1794503165129649
0.2919242231821022 14.499122203641527 906560.7548146731 4.493567071754279 0.18225774640104042
0.3054458508257979 14.302010618726865 739274.3062649103 4.750523156653468 0.18507957489009116
0.31934806612651545 14.12898681663863 605672.9019743477 5.018679977163735 0.18792290010194573
0.3336313261297847 13.976816422573261 498262.3610162101 5.2982316553262905 0.19078376025228183
0.3482981977574491 13.842891126074262 411545.28018118406 5.589940990103091 0.1936691452694423
0.363345019057932 13.724847616263382 341139.6139064326 5.89393194326444 0.19657331909166953
0.37878164901487826 13.62084674145647 283756.5088747436 6.211086079822367 0.19950433192744293
0.3945961724474547 13.52929039949815 236807.53880615268 6.541693737321882 0.20245894977449977
0.4108036588182562 13.448656093410735 198231.47489998268 6.886391047684798 0.20543976644180026
0.4273930676635952 13.377799325021279 166407.57531291206 7.245911315896585 0.20845038206477248
0.4443681273753481 13.315648376938276 140097.45633096714 7.620560472309837 0.21148709859113493
0.4617301678612559 13.26123362123504 118231.9104982241 8.011193086904147 0.21455462407525897
0.4794753780981386 13.213764932464313 100041.7063855591 8.418555489242722 0.21765529779324563
0.4976101954810275 13.17255146026746 84846.20628940892 8.843151934948578 0.22078751175888528
0.5161253289437444 13.136910212108406 72128.5989505358 9.285728210652085 0.22395288061272642
0.5350227327660437 13.10630766086816 61441.49684008387 9.747225871959472 0.22715518263930443
0.5543059317490985 13.080234467637561 52445.637018037865 10.22845160418626 0.23039576412027937
0.573962911072406 13.058196350212445 44453.68695068444 10.729966375728033 0.23367247733326993
0.594000682235079 13.039867401939272 38439.13156391153 11.252834046234112 0.2369892515340528
0.6144088638346842 13.02478992805399 33001.66011674109 11.798073742260229 0.24034878936815895
0.6351852871264345 13.012650791398073 28380.2253997587 12.36666072354928 0.24375271706565166
0.6563278508485768 13.003184956794103 24450.148458770087 12.959406338653023 0.247200382018147
0.677837809108039 12.996113628360712 21097.431549058678 13.577390474797172 0.25069382476130325
0.6996998106996514 12.99115436314523 18234.59096353228 14.221922948725728 0.2542370075662867
0.721905338767468 12.9880566238236 15784.363433039736 14.89418856018949 0.257831905713169
0.7444651874275546 12.986670061921998 13585.692083396694 15.595377452208265 0.2614800480189134
0.7673564655014393 12.986740578345017 11879.34870345262 16.326431036781337 0.26518010880035897
0.7905725351711173 12.988078763180432 10327.372179270578 17.08911333716318 0.2689383357960867
0.8141122837750395 12.990578105653436 8991.230664351031 17.88487295727376 0.2727571488978828
0.837972129914328 12.99402348449119 7838.537729360801 18.715236164931316 0.27663910367243505
0.862126557978259 12.998276632528917 6841.727670619617 19.581262626641653 0.28058215514163437
0.8865673843899304 13.003198529629785 5979.858475131053 20.485096893948242 0.2845932868671741
0.9112991119160265 13.008669969237408 5232.966839797758 21.42856804219677 0.28867588104838593
0.9362920420384719 13.014551462766795 4584.727890107546 22.41342017812421 0.2928319829203384
0.9615369813973269 13.020731226040624 4021.6780527718083 23.441148404274976 0.2970611740292682
0.9870331239658835 13.027119019615842 3531.9499868849134 24.514416433801554 0.3013715921314014
1.0127458187167309 13.033568202341987 3105.686298123982 25.635446821462313 0.30576699058183354
1.0386752416238079 13.040009052611396 2733.9988420943273 26.805652258110335 0.31024460220890104
1.0648032796721112 13.046357732385506 2409.190659964586 28.02833504665687 0.31481480146691954
1.091102579138585 13.052478901785085 2125.533455133242 29.305936530872398 0.3194807476379521
1.1175726580683754 13.058331508018568 1877.2976871401054 30.640472490202047 0.3242421001401999
1.1441796438552148 13.06379349231215 1659.952581803499 32.03578327116197 0.32911002085666224
1.1709107092667057 13.068820083554183 1469.2172256999877 33.49391348487222 0.33408289219976023
1.1977388453360374 13.073284563180279 1301.8226215607408 35.01885119018043 0.3391708457281196
1.2246592674583854 13.077186326197918 1154.6740829863306 36.613393060978105 0.3443755221095607
1.251633541771559 13.080386952097843 1025.3069193617416 38.281635268465486 0.3497056296342308
1.278646378834508 13.082845778996242 911.3482739874388 40.02676024724033 0.35516344051741117
1.3056666889111084 13.084469742127062 810.9159140062623 41.85375892837343 0.36076071856149877
1.3326884352041348 13.085247732736333 722.3127483595639 43.765495174178874 0.3664960911883517
1.3596674564374127 13.085067665535892 644.05212079463 45.76777701410171 0.37238361283753035
1.3865781766906942 13.083858225348294 574.7451480225978 47.8653262306172 0.37842993877315784
1.4134080045681694 13.081594517574096 513.5833169606019 50.062251042924835 0.3846375208914552
1.4401321157586133 13.07824360410541 459.3404202285497 52.36499861978328 0.3910197963638921
1.4666981843778726 13.073679212366933 411.26595125281506 54.779318379022484 0.39758510554753385
1.493097586097415 13.067898894111313 368.55998376879506 57.311358443535696 0.40434243946734777
1.519298125007969 13.060828652141701 330.66136840947587 59.96770131036426 0.41130149349197487
1.5452707323251997 13.052413415436115 296.9340152100651 62.75540291750513 0.41847272523158624
1.570979544657066 13.042618647155106 266.95607235907704 65.6820354453358 0.4258674171481798
1.596396759051145 13.031380386936071 240.24960087599055 68.75573423095013 0.4334977444298608
1.6214922913232146 13.018658305153862 216.45525745462035 71.98524922069099 0.44137684874814503
1.6462237398136026 13.004402908011839 195.2067488309525 75.38000143943601 0.4495189185920522
1.6705892856536015 12.988583027599097 176.24580995070406 78.9501450155589 0.457939276955846
1.6945207627787515 12.971142268167691 159.28013603051065 82.70596304722919 0.4666517164015837
1.7180126664027207 12.952050085893934 144.1109340150977 86.6589186495222 0.4756727760160475
1.7410158111373033 12.931248191382458 130.54049191765685 90.8223465320286 0.48502415606575483
1.7635028174250114 12.908714845717169 118.36172454065273 95.20799622457069 0.49471868745872627
1.785440450735117 12.884398427869593 107.4401655534145 99.8317385145237 0.5047828332661829
1.8067875001955767 12.858253101681166 97.65090008645359 104.70850356165253 0.5152363448742407
1.8275385860941626 12.830308753061844 88.85389399241012 109.8544745686006 0.5261007949571667
1.8476229277583667 12.800435414212972 80.93944636482729 115.2884114568975 0.5374041213944242
1.8670481166924835 12.768709268101928 73.81657049820248 121.02972504736876 0.5491730148844182
1.8857390903923057 12.734989079269674 67.4000970400518 127.09955122042089 0.5614366279868285
1.9036946434173287 12.699333912439593 61.620652566035076 133.5209260549025 0.5742267873986557
1.9208685972247 12.661657168859703 56.406393599664085 140.31845555933353 0.5875763988439794
1.9372483121485926 12.622031473344624 51.69451398434842 147.51892854269533 0.6015211803353084
1.952794759162753 12.580369285908048 47.43955666091047 155.1529353964355 0.6161046751131576
1.967451449371379 12.536600658911135 43.594118636821776 163.25071983966333 0.6313634079170121
1.9812224937459577 12.490788399017505 40.11287140401362 171.84859014908213 0.6473482500717826
1.9940761809063239 12.442931145228735 36.95851811283036 180.9843110935653 0.6641079111132204
2.0059535969042863 12.392916699271964 34.09978742110825 190.6993121128207 0.6816957104911097
2.0168644442735757 12.340839928732352 31.510902880846423 201.03917369831854 0.700170288313151
2.026770041725069 12.286668412675354 29.15768004332499 212.05408763565546 0.719596113685592
2.0356476038362796 12.230399791380538 27.021409812997128 223.79876700986327 0.7400420750938668
2.0434742349821597 12.172040752218459 25.08069817690547 236.33299961641134 0.7615820651503096
2.0502183944009706 12.11156703507964 23.315570273588346 249.72335758625175 0.7842991275500422
2.055855386217105 12.048983291587703 21.711727089365734 264.0429350739447 0.8082829857053904
2.0603913743139963 11.984372447972746 20.251579482713765 279.37211467189417 0.8336307034117704
2.0637982972113296 11.917723111670098 18.92241167979321 295.80011651911934 0.8604496318708197
2.066043776951977 11.849032691368064 17.710805932238753 313.4250543109493 0.8888551727652974
2.0671314163482557 11.778365795300374 16.608081575637254 332.35666752260335 0.9189769571864125
