M[M_sun], R[km], Lambda[1], P_c[MeV/fm^3], rho_c[fm^-3]
0.24162668629717493 15.618656898711224 2160425.4255784233 3.5677272577965504 0.1711233750220791
0.25364072942124394 15.277374488393388 1723312.8952526327 3.7847755457082606 0.1738876238628064
0.26603435570925493 14.981408917439001 1383205.0479813577 4.0113088634151985 0.1766655418511837
0.27880687174578506 14.72367265938536 1116567.4595235672 4.247584672532592 0.17945584934679068
0.29195887424815026 14.498570143204992 906057.0262533283 4.494227469770002 0.18226510008621588
0.30549064257377667 14.3014270361965 738808.800622728 4.751389329704526 0.1850889312121587
0.31940345916962065 14.128358644365852 605248.910874576 5.019758291035267 0.1879340880245538
0.3336992060826328 13.976168917289334 497834.066995139 5.299550479983962 0.19079703862825875
0.3483753162083654 13.842254715840241 411134.34624924563 5.591503603249953 0.19368426398149827
0.3634356709578461 13.724183421552107 340764.48960942915 5.8957734284196945 0.1965906147099475
0.37888461060757367 13.620203940687341 283415.187308471 6.213228699525182 0.19952387003925054
0.39471259466184533 13.528639338996149 236495.69099566972 6.544135251987133 0.2024803585597893
0.41093343838553986 13.448080634433996 197955.42744493118 6.889178560461259 0.20546350607033895
0.42753660914469865 13.377239172050578 166155.5048688812 7.249070957808466 0.20847652097256264
0.44452753015198304 13.315091011100318 139870.55657638606 7.624083496631286 0.21151514413003086
0.4619040255878561 13.26072814235667 118039.97346643587 8.015140903623953 0.21458516362925942
0.4796637036477547 13.213309161670125 99865.17694973727 8.42295885073549 0.2176884049158848
0.4978157768333452 13.172124061236515 84692.96212515632 8.847994594013617 0.22082257467962518
0.5163488826780803 13.136523434945635 71980.34468193313 9.291088483830892 0.2239906172700793
0.5352612187920491 13.10595782767998 61313.437338234144 9.753140064668612 0.22719567433315582
0.5545631448615553 13.0799375949157 52336.97871686928 10.234958226195523 0.2304390956846196
0.5742404102769358 13.057923595046539 44763.74048753769 10.737037150139749 0.23371787389524493
0.5942907289746677 13.039596144004689 38354.57258931563 11.260575231155546 0.23703761859752875
0.6147215330865803 13.024567490345909 32925.93020946371 11.806531019136377 0.24040022372222083
0.6355173366808081 13.012480551588641 28315.742077694682 12.375882621656432 0.24380732060863633
0.6566833538821274 13.00306811923428 24390.049846062742 12.969350512875303 0.24725721884020102
0.678208268143372 12.996026924034728 21044.58087766253 13.588198026240015 0.2507539983122207
0.7000893111032988 12.991095064531722 18187.666979581125 14.233651761224978 0.25430063694652
0.7223181384591196 12.988015412229501 15743.135386620199 14.906900234038993 0.257899117124513
0.7448993885248636 12.986649546833652 13645.659485833123 15.60901360561073 0.26154974698988875
0.7678134290998805 12.986741961392708 11846.356214735551 16.34117617909055 0.26525360963656097
0.7910499422872942 12.988129138169816 10229.129205371186 17.105041386894342 0.26901578850823915
0.814616732906723 12.99065299712278 8964.26351121714 17.902062730142852 0.27283871314101893
0.8384940097790271 12.994107584446272 7814.505559688905 18.73365497347015 0.27672391448570627
0.86266767610705 12.998370588360151 6821.062857229684 19.601062135445346 0.2806709830507398
0.8871358737800873 13.00331845565039 5961.3191324113495 20.506415808941355 0.28468670965822396
0.9118889373866172 13.008804452615344 5216.217509170542 21.451508059630378 0.28877410355990607
0.9369009282833209 13.01469494127619 4569.831991597295 22.43788579289541 0.29293359915548933
0.9621720751569575 13.020890422803133 4008.664590520473 23.467446347400433 0.29716797779018095
0.9876912232243831 13.027276082538071 3520.2513214563273 24.542670337722967 0.3014838314789232
1.0134305130122971 13.033743536646735 3095.4580930668367 25.665573951300406 0.30588334975148757
1.039381961116728 13.040187583250056 2724.4074194642862 26.83796710673904 0.3103666818881002
1.0655288628292443 13.046524621528006 2400.9676079820715 28.06301525046479 0.3149430986209134
1.0918497913824652 13.052647641158986 2118.200284063699 29.34285927000487 0.31961364682815163
1.118342179786238 13.058486899211697 1870.7404869608345 30.68007811095743 0.32438181153379475
1.144967128571938 13.063949395647663 1653.888022006084 32.07825064441885 0.3292568693480215
1.1717228138492886 13.068960985075485 1463.852351869741 33.539120522937765 0.33423524457908177
1.1985723232251075 13.073419333504255 1296.9710222556314 35.067319012099325 0.3393311156755492
1.2255113932532948 13.077299498671847 1150.406847711225 36.66498114333465 0.3445419372775794
1.2525013654857216 13.080467800238077 1021.430115356458 38.336936460542034 0.3498808116875026
1.2795365715775546 13.082910326160636 907.8145803001169 40.08563052744215 0.35534556549706564
1.3065756150062513 13.084511642717185 807.7988775386789 41.91644135377703 0.36095021702983965
1.3336056087682082 13.085231795504397 719.4275352658825 43.832691644742965 0.36669583385032367
1.360609234244198 13.085039869182047 641.4277069812571 45.83934687776629 0.37259172827903586
1.3875357582926915 13.08379277875054 572.5348101037927 47.941593635947314 0.3786470653324347
1.4143866709398913 13.081517503530009 511.4758290885755 50.14401332142418 0.38486662780619973
1.441113859705584 13.078098814372801 457.4665106691076 52.4521449537671 0.39125906754610196
1.4676966966610454 13.073497629461936 409.55127682534834 54.87223414323409 0.3978352180742557
1.494103278586524 13.067648350184925 367.04067267712065 57.410460204026876 0.40460412271531365
1.5203140374997535 13.060518632074297 329.2795831013152 60.073439614687715 0.4115755334281301
1.546293101412884 13.052055532268096 295.6888950780384 62.868265363072084 0.41875996912851643
1.5720074079310105 13.042194414959072 265.8268184958771 65.80255005688713 0.4261687787699773
1.5974296886952302 13.030890332945148 239.24370372381068 68.88447318185521 0.43381420973932877
1.6225166208162756 13.018090672149725 215.52260979837297 72.12283293705009 0.4417094821922981
1.6472686385521815 13.003777238250514 194.36571414980176 75.52710313079184 0.4498688700297254
1.6716184261929627 12.987868666903365 175.47444548883234 79.10744440423521 0.45830757513763026
1.6955577784502593 12.970347531275001 158.5912471553597 82.87355439239603 0.4670368408246719
1.7190287817168397 12.951156942088529 143.48236511247953 86.83837892981397 0.47607916525477056
1.7420274716406468 12.93025902815039 129.97078235248517 91.01375049639311 0.4854499594331992
1.7645129034109743 12.907645077521865 117.84571847290205 95.4131847984137 0.49516891700612
1.7864392765443262 12.88323481878123 106.96950158535793 100.05089027130443 0.5052557532496859
1.8077829121518478 12.857009357953023 97.2224175857878 104.94308083092386 0.5157350129918369
1.8285076568657395 12.828936567099307 88.45562889333415 110.10604906661302 0.5266283865368367
1.848583434156726 12.798982564554686 80.57910808633196 115.55770494740698 0.5379603888197773
1.8679763455811362 12.767113396186048 73.48629416076417 121.31821622630767 0.549760277204515
1.88665460571041 12.733305466476564 67.10440455327205 127.40885718481982 0.5620574025893815
1.904585038050214 12.6975264194544 61.34195418840839 133.85237887219148 0.574882264160209
1.92173741419323 12.659754423713546 56.15254267411235 140.67369130303607 0.5882685331620379
1.938068668621146 12.61993533113161 51.465827443874495 147.90076827544695 0.6022556680589676
1.9535622753125623 12.57808421581808 47.22766007532347 155.5624564847983 0.616880758569244
1.9681979603023474 12.53422428505133 43.399915202348254 163.69168422273938 0.6321890846337925
1.9819285916928318 12.488277316556665 39.934280774454535 172.32246976853017 0.6482232169761677
1.9947295872358377 12.440245132558879 36.795599365243 181.49410567522287 0.6650365090124118
2.0065764633191128 12.3901217406713 33.951755505866615 191.2483263028402 0.6826826798849426
2.0174446066461424 12.337913087053778 31.37093272803615 201.63105253210975 0.7012208148590977
2.0272979296068976 12.283579569359237 29.032302929878586 212.69259004455574 0.7207150058097384
2.036127276544421 12.227165226430865 26.90661500708862 224.48733390426375 0.7412322793632908
2.0438894532182994 12.168628342129272 24.975200489985568 237.0772672027586 0.7628527653235
2.0505695004253925 12.107980591336977 23.218292648603285 250.52816615629163 0.7856558528810842
2.056156337371682 12.04525905122371 21.621104143961226 264.91372398317276 0.809732029042115
2.060631055175279 11.980491172104928 20.168195141107116 280.3154928208436 0.8351808211434866
2.063965966430997 11.91366144636496 18.846150273346147 296.82249942308107 0.8621074130114121
2.0661429028828 11.844803559997311 17.6408058299399 314.5347079998602 0.8906315100691606
2.067159613046931 11.773973008034254 16.54472795530443 333.56201125398564 0.9208812351684452
