M[M_sun], R[km], Lambda[1], P_c[MeV/fm^3], rho_c[fm^-3]
0.24162668629717493 15.618656898711224 2160425.4255784233 3.5677272577965504 0.1711233750220791
0.25364542987675565 15.277256082489318 1723088.1310959863 3.7848551025193857 0.1738886155000776
0.26604334172633015 14.981206084637702 1382901.964097245 4.011476107626919 0.17666756289878155
0.27882132539898685 14.723406805902718 1116409.683927011 4.247845262191251 0.1794588717941309
0.29197808714751644 14.498280449270107 905762.5359836892 4.494588242857389 0.182269117378275
0.30551533359289446 14.301093514539064 738545.9652969197 4.751862536028047 0.18509404274358057
0.31943486015668404 14.127976259046857 604979.8391187473 5.020347416247664 0.18794020042601386
0.33373601641744827 13.975788992187047 489595.4646833003 5.300271033985445 0.19080429341143837
0.3484190055336407 13.84187565736091 410912.5179399361 5.5923573849753945 0.19369252455455915
0.3634849838869496 13.723813922024076 340563.95105936605 5.896779619056431 0.19660006506534036
0.3789408835944099 13.619854329928861 283208.7487828273 6.214399475194002 0.19953454610364452
0.3947754922885742 13.528313617702798 236343.79190992564 6.54546939701381 0.20249205720933158
0.41100435923185796 13.447728062563963 197811.16740859195 6.890701830115711 0.20547647887393158
0.4276154975665391 13.376920564088723 166022.7098039004 7.250797645972086 0.208490805421228
0.4446134788338089 13.314810822056184 139747.06678268715 7.626008830817891 0.21153047102814207
0.46199700318926123 13.260446105312536 117928.1252720071 8.017298465797099 0.2146018541169828
0.4797669859608536 13.213056847143353 99772.05520715067 8.425365464859984 0.21770649928971614
0.4979276719161515 13.171892629624173 84607.88824085784 8.850641386450999 0.22084173858775924
0.5164706824493734 13.136317475754561 71909.91109162319 9.294018287291363 0.22401124326909297
0.5353924262119275 13.105768317152876 61247.64067108663 9.756372743509049 0.22721780696365407
0.5547033143030894 13.079752826583249 52280.55543898736 10.238506906009789 0.23046267925778385
0.5743898600808033 13.0577919594953 44708.701975031756 10.740902268927774 0.233742689155128
0.5944516203372976 13.039477729066476 38307.14127567671 11.264806967966527 0.23706405856570253
0.6148924090054173 13.024475256129408 32885.42377401898 11.811154372425467 0.24042834142411315
0.6357009266867141 13.012395379463813 28276.463254163402 12.380924149442288 0.2438371718687527
0.6568750676558447 13.002988717384095 24357.163619224913 12.974787063705923 0.24728829193538623
0.6784122000098184 12.99595390825867 21015.858471133397 13.594106798936828 0.25078689677554167
0.7003053497986024 12.99104678743379 18161.753617023514 14.240064436851464 0.2543354260247644
0.7225444180217163 12.987996939707688 15719.685216842132 14.913850529192935 0.2579358659549255
0.7451365263329184 12.98664192315936 13625.512578727728 15.616469590605384 0.2615878570394311
0.768061441573514 12.986760911280602 11828.369591026707 16.349238821440473 0.2652937998864948
0.7913123096437285 12.98814603076243 10283.339830857367 17.113751150268033 0.2690581411381521
0.8148899246635621 12.990680211037565 8950.213350486134 17.911462760855887 0.27288331561461787
0.8387786134174349 12.994157036498812 7802.412746888082 18.743703579136902 0.2767700826294568
0.8619230601252225 12.997686951535393 6847.026146249287 19.634814676346583 0.3836589130413327
0.8780353907798752 12.992600623852042 6229.104011429996 20.678773972043775 0.5496119747522268
0.8890516413598226 12.976430916723661 5793.516389556111 21.879752643352226 0.7171147877906324
0.8963424020824537 12.950084472889362 5467.656835057538 23.250603188593917 0.8899220345901282
0.9006836873355253 12.914277581620528 5213.0606028604225 24.798796482072532 1.0793040185318248
0.9025448755701687 12.869870019274474 5010.523383641514 26.541575283262897 1.307786210736578
