M[M_sun], R[km], Lambda[1], P_c[MeV/fm^3], rho_c[fm^-3]
0.24162668629717493 15.618656898711224 2160425.4255784233 3.5677272577965504 0.1711233750220791
0.2536449613703173 15.277270898845414 1723296.7126268398 3.7848379677854154 0.17388840192388472
0.2660414521093095 14.981253375122854 1382919.1314906774 4.0114400865928275 0.17666712760584272
0.27881755441810463 14.723472947638783 1116368.860484745 4.247789135794006 0.1794582208125035
0.29197350641506836 14.498342350688235 905809.5969835414 4.4945105378680825 0.1822682521151847
0.3055102303853529 14.301149694831135 738600.219288758 4.751760613505922 0.18509294178581956
0.3194284472103519 14.128051150906371 605044.3660932154 5.020220524956089 0.18793888387988822
0.33372545215629684 13.975940644049906 497646.01132958627 5.300115832643755 0.19080273079145316
0.34840972757856015 13.841912587548798 410942.93660508137 5.592173485622686 0.19369074527773272
0.3634739923273879 13.723937906719643 340625.8073989701 5.896562889452241 0.1965980294950329
0.3789276067829529 13.619955036196197 283265.49231792387 6.214147291942096 0.19953224649603554
0.3947636929278417 13.52838162861996 236370.96637566225 6.545182021485612 0.20248953731417463
0.41098905246383594 13.447800136389638 197831.2899678605 6.8903737136480805 0.2054736844964045
0.42759924794151677 13.377006468946439 166058.7025096868 7.250425708771436 0.20848772848008637
0.4445954207376058 13.314864464475907 139775.55636756198 7.625594100456731 0.2115271695077965
0.4619785931677753 13.260510763128394 117958.35567310081 8.016833707210232 0.2145982588335722
0.4797448285182777 13.213133810460628 99794.83039487862 8.424847052986523 0.2177026015571542
0.49790438446195134 13.171929914624817 84626.11892484092 8.850071232407767 0.22083761042887817
0.5164442858323605 13.136351823279464 71926.27442873719 9.293387162662498 0.2240068001123597
0.5353642835543174 13.10580630886292 61259.328315820996 9.755676367974209 0.2272130392081295
0.5546738582763131 13.079782046269331 52294.41464633028 10.23774819049547 0.23045767269397532
0.5743576948197653 13.057807584585847 44718.44501029131 10.740069639478437 0.23373734341614694
0.5944167458502603 13.039493543010094 38319.47874545463 11.263895352206932 0.2370583627739397
0.6148557724972719 13.024499055759275 32893.26806779987 11.810158383511386 0.24042228414974473
0.6356617159277763 13.012415868337863 28284.0159688114 12.379838064396132 0.2438307410786037
0.656834567704004 13.003005413961596 24364.28291783406 12.973615870097843 0.247281597872993
0.6783682178542552 12.995978374702077 21021.982943785555 13.592833862405694 0.2507798094059764
0.7002587674757155 12.991057018094095 18167.119664858372 14.238682930236088 0.25432793128395154
0.7224953727894015 12.988002421372723 15724.206448883053 14.912353186595528 0.25792794894018545
0.7450857442512244 12.986647372105464 13629.783873855431 15.61486329133595 0.2615796467030662
0.7680086959669519 12.986753465174246 11832.63495950804 16.347501808442782 0.2652851413123592
0.7912558966467159 12.988148391994041 10286.800474379179 17.11187470337214 0.2690490166123156
0.81483294625251 12.990670435241176 8953.618026752454 17.90943758165277 0.27287370628410634
0.8387172506480816 12.99414129415328 7805.246539929426 18.74153865104797 0.27676013590505205
0.8629014884521327 12.998413226674208 6812.042176486877 19.609557136834752 0.28070909476445705
0.8873827021145615 13.003366160714831 5953.29006294019 20.51556301567326 0.28472679413642
0.9121414356145755 13.008858212519689 5209.311153731496 21.461351152507792 0.2888162488331755
0.9371639702326844 13.014753324457148 4563.649686427759 22.448383771588983 0.29297720178233977
0.9624491330178052 13.02096753378632 4003.082151205392 23.47873094108904 0.29721380787812984
0.9879725585476842 13.027348994004115 3515.2413021528255 24.55479465552218 0.3015319956378556
1.01371791265399 13.033806767784293 3090.668481548946 25.678491064843783 0.3059331993803471
1.0396840871296287 13.040267658350698 2720.432445054295 26.851834913684474 0.31041907196557034
1.0658377309245104 13.046591089426547 2397.28679889851 28.077898657355338 0.31499815881480286
1.0921701318598185 13.052725342315089 2114.598477639329 29.358705531576295 0.31967068364015455
1.1186721218200926 13.058553187667238 1867.6787196459861 30.69707639408086 0.3244417740789739
1.1453053147383052 13.064011393548626 1651.422708351532 32.096345474998635 0.3293190414036245
1.1720704723514836 13.069018549241688 1461.4386434835087 33.55852412594477 0.3343006367218106
1.1989285400820628 13.073482865952771 1294.8671678756928 35.088122955718994 0.3393999086771376
1.2258765948021715 13.077340870827289 1148.5824365890876 36.687125061904425 0.34461337013108057
1.2528746525395285 13.080504966556072 1019.7400522023436 38.360623010092915 0.34995570493992895
1.279918811862976 13.082942159721492 906.3295145036301 40.110902010503594 0.3554237470230008
1.306963224074901 13.084527824834037 806.3749188984583 41.94335012983378 0.3610315663365209
1.3340036444788888 13.085242580615063 718.2883743527573 43.86153936500676 0.36678158419388995
1.3610126699262715 13.085030244315009 640.3335232699912 45.870073103470354 0.372681075969541
1.387945827678098 13.083765532875967 571.5423361663511 47.9743295900723 0.3787402424252703
1.4147965502916189 13.081456196267908 510.603826382132 50.17911791271569 0.38496499473960444
1.441527951906691 13.078016243887012 456.6770806684734 52.489562461495844 0.3913618020031964
1.4681242234375707 13.073413661761943 408.8312967813365 54.912130224466054 0.3979426111497784
1.494535108206641 13.067543421329859 366.3697649156972 57.4530139331121 0.40471648800514193
1.5207469068283255 13.060392401004803 328.69997492180295 60.11884468443161 0.41169320887690286
1.5467332999637664 13.051896689392233 295.1552593542922 62.916731405750376 0.4188833190603539
1.5724478968706923 13.042011672131647 265.33919697279475 65.85430409844712 0.4262981961219342
1.5978621733091074 13.030670775321218 238.80077709901573 68.93976124427468 0.4339501185195422
1.6229597189099936 13.017850557339608 215.13502792171113 72.18192180565887 0.44185234018739067
1.6477116928187479 13.003504240055616 194.00173310514793 75.59028230544918 0.4500191717889952
1.6720615206977285 12.98756015540522 175.1485714848172 79.17469841676134 0.45846447797941786
1.6959975134012322 12.97000158427632 158.28865650927307 82.94553930005368 0.4672022619328151
1.7194777108023414 12.950783261467954 143.21139334895042 86.91546522823785 0.4762537277935202
1.7424577377609944 12.92982975038035 129.71849571380284 91.09597027456877 0.48563286817562756
1.7649410641107912 12.907175568740346 117.61777213005882 95.5013299670002 0.4953623271878585
1.786867059111133 12.882737600339793 106.76736627503219 100.14503757642643 0.5054589190496739
1.8082036934388472 12.856467319431683 97.03489230303416 105.04371839240352 0.5159487170645836
1.8289175509521711 12.828332653990692 88.29083583193238 110.21392363590304 0.5268542732423167
1.8489900271474313 12.798342914687117 80.42529441618866 115.67340882507294 0.5381993931046964
1.868363531967222 12.766396136922879 73.34892725649523 121.44217423610948 0.5500126102869287
1.8870388865364391 12.732568061229129 66.97388677681641 127.54166077379446 0.5623237749489572
1.9049615614832704 12.696739189345198 61.22612068590707 133.99450973611428 0.5751628746168342
1.9221004154795014 12.658910118109794 56.04670680772255 140.82634949483267 0.5885659693726341
1.9384120070744544 12.619009067300182 51.36565429794097 148.06486780663238 0.6025713216716635
1.9539055856107639 12.577152994906642 47.14114858770646 155.73846087089947 0.6172143044991931
1.9685186846003975 12.533213566614773 43.32100759873832 163.88091167446717 0.6325429451261456
1.9822291410382447 12.487199891523058 39.85921516276709 172.52615623839833 0.6485993017721614
1.9950137382874804 12.439106443598385 36.72681820825031 181.71324125353334 0.6654356675067912
2.0068472029211226 12.388936301127094 33.886133819817466 191.48433373415216 0.6831069532746955
2.017689374704662 12.33664893717215 31.31288425869119 201.88550125098632 0.7016724362358072
2.0275227046079554 12.28225390781543 28.977379166813073 212.96657170911107 0.7211943203400757
2.0363277385657104 12.225770385527193 26.857131235982273 224.783383871613 0.7417440087798042
2.0440671077092523 12.167163362063636 24.930795574941538 237.39682748509722 0.7633976449601949
2.050721363105615 12.106441164267174 23.1772269813373 250.87397818852045 0.7862384048670452
2.0562896283596026 12.043679018246165 21.584329427335682 265.2881608634726 0.8103550627044986
2.0607302805964256 11.978816148262807 20.132907185307477 280.72069913790176 0.8358458181218346
2.0640298945924185 11.91190623675128 18.812693353993186 297.2618710482309 0.8628192737712526
2.0661852136183074 11.842989880510151 17.610272918203886 315.0119964346301 0.8913955549778172
2.06717025923826 11.772086444652368 16.516922754896157 334.08036376989077 0.9216999315616106
