M[M_sun], R[km], Lambda[1], P_c[MeV/fm^3], rho_c[fm^-3]
0.24162668629717493 15.618656898711224 2160425.4255784233 3.5677272577965504 0.1711233750220791
0.25364367213918226 15.277297326912633 1723255.372234882 3.7848135364627096 0.17388809739923325
0.2660381351094059 14.98130440128398 1382859.8062958678 4.011388726901279 0.17666650695428077
0.27881400724941013 14.723525570526682 1116417.9985956543 4.2477091099749416 0.1794572926335987
0.2919676003902156 14.498449484541135 905891.1103141975 4.4943997457967315 0.1822670184197567
0.30550369296091606 14.301206128769525 738679.5478685488 4.751615293064303 0.18509137204770185
0.3194190905378737 14.128163978956161 605123.935626319 5.020039605484345 0.18793700677054037
0.33371572201645977 13.97604605540151 497709.7082639762 5.299894550782526 0.19080050285028358
0.3483966475478155 13.842063404917765 411027.79056191567 5.5919112886886 0.19368820845026757
0.3634582184882487 13.7240433361418 340668.9815501115 5.896253886542169 0.19659512727430953
0.37891168644629736 13.620027934038724 283321.0350554373 6.213787743411448 0.19952896784636062
0.3947429492024573 13.52849863745801 236416.17691995745 6.544772300441409 0.20248594461412298
0.41096753835446603 13.447920997062063 197878.23296807357 6.889905910088968 0.20546970048498894
0.4275749676181222 13.377082817510235 166091.99195428315 7.249895432570587 0.2084833416409749
0.4445689174735453 13.314976216723512 139815.5875611058 7.625002817061279 0.21152246251177473
0.46194950313380717 13.260593682722103 117988.59545769935 8.016171102759689 0.21459313305245456
0.47971292149468353 13.213182147231969 99829.35123724285 8.424107960219617 0.2176970446127798
0.49786953525285216 13.172007587145869 84648.93834306048 8.849258376324556 0.22083172500352904
0.5164064995857793 13.136426116472983 71944.26142686217 9.292487388112692 0.22400046564343468
0.5353238178912489 13.105866166688118 61283.55755440499 9.754683573810393 0.22720624201376743
0.5546298274914906 13.079842612263151 52305.472538609945 10.236656399215558 0.23045040485447357
0.5743114510436084 13.057868226469793 44734.983341719555 10.738882608193244 0.23372972230759972
0.5943664632974437 13.039547265486236 38331.9795033373 11.262595723219041 0.23705024266850488
0.6148032174139985 13.024513697156111 32905.9795214841 11.80873847866915 0.240413648759245
0.6356042409030859 13.012437893497745 28297.54633844392 12.378289726503448 0.24382157325504983
0.6567750775334098 13.003026192994769 24374.493337832664 12.971946209404557 0.24727205477714675
0.678306080402442 12.995986212343485 21030.643791260776 13.59101916814636 0.2507697056745261
0.7001934305301127 12.991069098693277 18175.565147014426 14.236713471585675 0.2543172468746536
0.7224258897191251 12.987999500104085 15732.061344867976 14.910218607474533 0.2579166626157371
0.7450128077680448 12.986653310717408 13636.202921729371 15.612573398254018 0.26156794228857744
0.7679320119260818 12.98676005758049 11838.441349728744 16.345025589794176 0.265272797983453
0.7911750095438905 12.988140345403751 10290.351213653383 17.109199730574044 0.26903600912542025
0.8147486861621441 12.990659561243342 8957.804320018799 17.90655060208295 0.2728600077724765
0.8386293896779182 12.994118465302702 7808.763696214264 18.738452469959558 0.2767459564997838
0.8628090799512815 12.998397271851063 6815.732464941821 19.606231624109835 0.2806941752861515
0.887283377842707 13.003349476062079 5956.311616514047 20.51198216445593 0.28471110229116586
0.9120409880293682 13.008839462269634 5211.960739407551 21.457497859778243 0.28879975014957104
0.9370637760397194 13.01472256813645 4566.114704744253 22.444274089320707 0.2929601325018956
0.9623379974692903 13.020931416238822 4005.2576429281585 23.47431329265259 0.2971958664952182
0.9878628745965141 13.027325060988852 3517.2075137143497 24.550048245839196 0.30151314040541155
1.0136032235471104 13.033780758190575 3092.4762815074773 25.673434267363774 0.3059136842249875
1.0395662281903075 13.040237212752144 2722.003510469983 26.846405904272842 0.31039856214561246
1.0657156501387057 13.046560949744482 2398.7659966063857 28.072072021036497 0.3149766035534438
1.0920451466936514 13.052686886325596 2116.307314564622 29.352501919902224 0.3196483544471649
1.1185432107546613 13.058528802590285 1868.9686513783845 30.690421737597617 0.32441829934701827
1.1451715356621313 13.06398895906474 1652.4318354946868 32.089261494148445 0.3292947015431673
1.1719342864467028 13.069001841099636 1462.3426492548456 33.550927721221115 0.3342750360546698
1.1987889430975667 13.073458646431028 1295.6867956235205 35.079978271034 0.3393729764129133
1.2257335438387909 13.077325994098063 1149.2816932842625 36.67845573370863 0.3445854042203041
1.2527275151506498 13.08048762036958 1020.3410857112549 38.35138137579827 0.34992657001239413
1.2797696169542585 13.08293469105841 906.8961766292442 40.10100812015487 0.35539313863159705
1.3068118389943357 13.084521253554966 806.9303511417684 41.93281517256075 0.3609997175646455
1.3338480513403255 13.085234152385857 718.7762540405744 43.85024521852207 0.36674801214963504
1.360855053759286 13.085035052515334 640.7736370546381 45.85804343412269 0.37264609532518506
1.3877843565003263 13.083780968062818 571.925266123744 47.961513012210396 0.378703762307394
1.4146410467569637 13.081488944193975 508.9706074591712 50.16537387862435 0.38492648244145666
1.4413632692619784 13.078039695845058 456.98849493111067 52.4749127907785 0.3913215794961639
1.4679567540132725 13.073448154227357 409.1094538052558 54.89651004554618 0.397900564437354
1.494365823198908 13.067585602159397 366.6190746218955 57.43635311951031 0.404672494277932
1.5205772893875942 13.060442314513772 328.91957701353516 60.10106738425823 0.4116471357888607
1.5465596420226548 13.051959403549612 295.35815358386435 62.8977555242467 0.4188350239332776
1.5722756734305774 13.04208416947297 265.52566719440847 65.83404072834907 0.42624752507053865
1.597699490842903 13.030759555227922 238.984786443121 68.91811403813111 0.4338969054884962
1.6227863634802353 13.017945152759456 215.290436004763 72.15878628352152 0.44179640589069863
1.6475387471824974 13.003611478863187 194.1464991584447 75.5655450905307 0.4499603225409345
1.6718874304739488 12.987680092089079 175.27566508156823 79.1483655704011 0.4584030437501267
1.6958249514103418 12.97013853765834 158.4049762679047 82.91735388457606 0.4671374919301368
1.7192902637957437 12.950900140215388 143.3219039760691 86.8852821416585 0.4761853779527791
1.7422922453088519 12.92999852355314 129.81102008089155 91.0637769538145 0.4855612498868847
1.7647713389952058 12.907357903926671 117.70685535580888 95.46681625772642 0.495286596403175
1.786699876969741 12.88292818856442 106.84702920915208 100.10817342580509 0.5053793678119389
1.808039273144164 12.856678904260963 97.11001340177432 105.00431262719864 0.5158650388395732
1.8287527134862096 12.828552213400995 88.35292729759274 110.17176773156253 0.5267661364601385
1.8488309921700041 12.798595382794574 80.48449137050153 115.62810289464299 0.5381058066863028
1.8682190762338204 12.766694277711167 73.40070312648771 121.39363584372872 0.5499138039073779
1.8868899385191644 12.732853894900124 67.02388941652504 127.48972175933584 0.5622196971452054
1.904815836847611 12.697046939316897 61.27313123752404 133.93885445544123 0.5750529938119744
1.9219588855617644 12.65924000435156 56.08967322254481 140.7665713923841 0.5884494988966007
1.9382745861062192 12.619361761248442 51.4054466234904 148.0006088734899 0.6024477164166827
1.9537744891027833 12.577526997757502 47.174229958020035 155.66953956501945 0.6170836917254305
1.9683925209385937 12.533609900982944 43.34948297020637 163.80691030256517 0.6324047099484384
1.9821111470042132 12.487620913583479 39.88956594877977 172.4463933701462 0.6484520283570254
1.9949047298011906 12.439554861139193 36.755849070790724 181.62742772213116 0.6652793569694702
2.0067432935375527 12.389405553996978 33.911252337755975 191.39191223224915 0.6829408060322953
2.0175946789907924 12.337143812814213 31.336399796042873 201.78585700065787 0.701495577520569
2.027434001200376 12.282769741506415 28.997299844679727 212.85927710503452 0.7210066148494759
2.0362485114507036 12.226315730684862 26.87560232804729 224.6674457157428 0.7415436069172865
2.043998198099833 12.167733470859298 24.948828248649434 237.27168091282044 0.7631842585583031
2.0506564696350806 12.107043052300323 23.187898857755123 250.73870764308256 0.7860107782372473
2.0562385434958506 12.044308983951696 21.598331601384327 265.1415393748629 0.8101111270896827
2.060692265736803 11.979470344321486 20.146568248251175 280.5620938562733 0.8355856685449079
2.064002713528939 11.912590498779114 18.826185415057022 297.08979539764704 0.8625404803845997
2.0661684677366705 11.843700698233251 17.622518750516917 314.8250685122816 0.8910963201400299
2.06716650787563 11.772821582213927 16.52740179922208 333.87735058349455 0.9213792884502767
