M[M_sun], R[km], Lambda[1], P_c[MeV/fm^3], rho_c[fm^-3]
0.24162668629717493 15.618656898711224 2160425.4255784233 3.5677272577965504 0.1711233750220791
0.2536419705774717 15.277369122339318 1723162.8645926865 3.784803308149636 0.1738879699082451
0.2660379812934783 14.981291890676228 1383159.036854798 4.0113672250121555 0.17666624711664025
0.2788114766832696 14.723614558529631 1116530.0953088107 4.247675607135689 0.17945690405115108
0.2919659546809761 14.49846512488406 905948.9482425768 4.494353362938045 0.18226650193586033
0.3054994307484703 14.301299092157539 738681.0320216524 4.751554455356091 0.18509071488434264
0.3194143500581395 14.128233658086332 605155.094001497 5.0199638648564555 0.18793622093229284
0.333711226434245 13.976089063060432 497733.72211092216 5.29980191329235 0.1907995701444709
0.3483913526819384 13.842102619691978 411055.1051468391 5.591801523121483 0.19368714643821025
0.36345220643077725 13.724072590392398 340692.0572877485 5.896124526984963 0.19659391230197285
0.37890443153511916 13.620074761620335 283343.2219785632 6.213637224550696 0.19952759529558708
0.39473480439600445 13.528526278736773 236447.49709769807 6.544600778632049 0.2024844405995695
0.4109582964042737 13.447961811727305 197900.6169947145 6.8897100742812425 0.20546803266507105
0.4275639585641698 13.377135896485123 166114.3990901896 7.249673445215646 0.20848150519647796
0.44455776075544096 13.31499358287658 139838.59909106474 7.624755291780661 0.21152049205138276
0.4619378087726299 13.260622142808947 118002.19491839405 8.015893722349436 0.2145909872907288
0.47970010347045855 13.213213845645202 99831.85808792249 8.42379856189334 0.21769471836989712
0.4978548411413236 13.172044175877526 84662.41913148464 8.848918100940253 0.2208292612643582
0.5163913869010508 13.136448877100932 71954.83587600436 9.292110729258912 0.22399781394162213
0.5353081116875952 13.105880417989972 61291.98301363035 9.754267977865718 0.22720339662394246
0.5546120559359037 13.07986709985388 52313.602108188796 10.236199157399811 0.23044735980235131
0.574292496907787 13.057878858813622 44741.715750622 10.738385707249945 0.2337265320496231
0.5943477408074797 13.03955031243232 38336.32345213075 11.26205169092116 0.23704684354486277
0.6147811625312516 13.024526750174468 32910.52262121055 11.808144101423787 0.24041003395389665
0.6355798267599726 13.012454584647452 28302.2696391903 12.37764159024218 0.24381773559215322
0.656750755095278 13.003033134918175 24378.279939346157 12.971247290452553 0.24726806004302232
0.6782807154429942 12.996001211254175 21034.953362500244 13.590259542336597 0.2507654762815333
0.7001658302835304 12.991058020221786 18041.981496527427 14.235889066304651 0.25431277443576894
0.7223968474222476 12.988001688920384 15734.825412309352 14.909325088451412 0.2579119382438473
0.7449820778094126 12.98664836751291 13638.694144553028 15.61161487025167 0.2615630429292462
0.7678992319355948 12.9867619601457 11839.942296325795 16.343989073252718 0.26526763120846114
0.7911415437482047 12.988129009442764 10293.024430271564 17.10808002392382 0.2690305643711447
0.8147137280013811 12.990664125456508 8959.715862322299 17.905342158917072 0.2728542737960622
0.8385930129839919 12.994116797859927 7760.250723721216 18.737160650002412 0.2767400212554863
0.8627713628971665 12.998392551170193 6817.33091516411 19.604839631858884 0.28068793029480504
0.8872423525231091 13.003342430192776 5957.252229802935 20.510483300944223 0.2847045340388551
0.9120019427810914 13.008831516261345 5213.33205194207 21.455884967337155 0.288792844211211
0.9370179802912729 13.014722481976374 4567.213262450363 22.442553886332917 0.29295298775801937
0.9622944678424544 13.020918731253445 4006.4701478488505 23.472464193624624 0.2971883567546448
0.9878156053851006 13.027311172664184 3518.0051052522763 24.548061548134434 0.3015052481985602
1.0135556800258607 13.03376727665543 3093.44990257453 25.671317660764775 0.30590551583248654
1.0395164686107627 13.040226428489234 2722.6601216729014 26.844133515190467 0.3103899774688473
1.0656651824199288 13.046553281693287 2399.399604937445 28.069633213647535 0.31496758134443736
1.0919916312455573 13.052678280365784 2116.7141842811407 29.34990533718292 0.3196390083436853
1.1184889474131547 13.058514366479457 1869.3991451151321 30.68763638201779 0.3244084738247239
1.1451168446820763 13.063970670965864 1652.715909186565 32.08629645585451 0.3292845139636339
1.1718776747622184 13.0689863030001 1462.8487067622311 33.547748224248714 0.33426432082205293
1.1987304191491805 13.073445894420793 1296.0185135658694 35.07656931063425 0.3393617039050426
1.2256734516228727 13.077318233374333 1149.6230136287027 36.674827201601914 0.34457369913741254
1.252666778310918 13.080486897733318 1020.659621515305 38.34749152841053 0.3499142478286091
1.279704801979119 13.082926734900205 907.0883777159211 40.096867096652915 0.3553803276883085
1.3067474370061327 13.084516294535856 807.1584490302255 41.92840585755609 0.3609863875373781
1.3337828058756926 13.085231451330651 718.9047430768179 43.84551818209107 0.3667339609527189
1.3607885161362265 13.085036058965535 640.9556151885082 45.85300858001163 0.37263145465336334
1.3877185439860142 13.083785220484593 572.0935493351855 47.95614883760928 0.378688494134886
1.4145726573495239 13.081496345442567 511.0753784359123 50.159621570979425 0.38491036384151817
1.4412950137704288 13.078051630190716 457.0927252501683 52.46878148074537 0.39130474521601627
1.4678873648989794 13.073458890936541 409.2300195140803 54.88997258771677 0.3978829667766134
1.4942941279282247 13.06760193798548 366.7218043899252 57.42938016982796 0.40465408184901314
1.5205053993744715 13.060465130802646 329.0134717689405 60.09362720318259 0.41162785321420625
1.5464878997916591 13.05198534769877 295.445250610352 62.88981376028062 0.4188148115125857
1.5722035208419303 13.042113002273735 265.6065623594986 65.82556017973903 0.4262263184147651
1.5976262710942541 13.030797024729523 239.05427835468194 68.90905439029001 0.4338746351170387
1.6227073427027334 13.017955492111138 215.35380987954184 72.14910381941826 0.44177299678773363
1.647465461265522 13.003656191651315 194.20626932067626 75.55519237095002 0.4499356936663941
1.6718146451426297 12.987732461172953 175.32817300835165 79.13734513018372 0.4583773331891816
1.6957525415415153 12.970193275065421 158.45130068962814 82.90555821795024 0.4671103855225852
1.7192234477224444 12.950956501131566 143.37825811517573 86.87265053677059 0.47615677358257585
1.7422204029915354 12.930071784800571 129.85575818369472 91.05030415251237 0.48553127786314737
1.7647034483376722 12.907432102199847 117.74546112654998 95.45237249201814 0.49525490355607493
1.7866294480759497 12.883012164014183 106.87730684311495 100.09274611972168 0.5053460763547056
1.8079693218797817 12.856768154718749 97.14023639498842 104.98782179404631 0.5158300205208082
1.828683659958297 12.82864880587121 88.38391982799213 110.1541010078481 0.5267291590705503
1.848764362126962 12.798697294177343 80.50952155013198 115.60914321219192 0.5380666425248424
1.8681530000789004 12.766808395784864 73.42371855841573 121.37332359253122 0.5498724556075495
1.8868270134728116 12.732974739122573 67.0476526967279 127.46794291669758 0.5621759871818068
1.904752924707983 12.69717618271633 61.29148299883988 133.9155642946619 0.5750070118030652
1.9218992024605195 12.659380330930684 56.10624679477516 140.74155615917013 0.5884007597094876
1.9382176900232302 12.61950781020862 51.42216832681377 147.97371879033952 0.6023959920038778
1.9537199343033183 12.577690196584408 47.19400723347257 155.6406986768851 0.6170290353554023
1.9683403175971395 12.533776830038574 43.362867204159386 163.77593782617893 0.632346843948002
1.9820645836507866 12.487801575398235 39.90064553557693 172.41301631101544 0.6483904012667127
1.9948582142128817 12.439742398167999 36.76685812200631 181.5915190657063 0.6652139488538906
2.006694255961593 12.389590045857442 33.924243975888224 191.35323883461766 0.6828712824015555
2.0175543249413845 12.337351246443816 31.345822529206348 201.74416167957315 0.701421572438548
2.0273976326702647 12.282986937716528 29.007585164667745 212.8143809718435 0.7209280717505085
2.0362163417612416 12.22654453790166 26.88473722281549 224.61893330127648 0.7414597520539646
2.043968568640391 12.167973635027995 24.955368910107353 237.219315915441 0.7630949714274405
2.0506375287686076 12.107292133302915 23.200404731991046 250.68199814517237 0.7859151788423233
2.0562120743570835 12.044548147392607 21.604456633320616 265.0801766022128 0.8100090158708911
2.0606758053442467 11.979744131562622 20.152881579839242 280.4957309319985 0.8354768179032619
2.0639966741650384 11.912886596987006 18.83173548228431 297.0177971134163 0.8624238302634132
2.0661612356282255 11.843996896797151 17.627718138280414 314.74685684192195 0.8909711186388358
2.0671654522766416 11.773131532051902 16.53166308384425 333.7924097803553 0.9212451312367417
