M[M_sun], R[km], Lambda[1], P_c[MeV/fm^3], rho_c[fm^-3]
0.24162668629717493 15.618656898711224 2160425.4255784233 3.5677272577965504 0.1711233750220791
0.25364506395359965 15.27726851778197 1723298.4688548336 3.7848399755924604 0.17388842695023093
0.2660418606606586 14.98124920243635 1382999.6843425038 4.011444307439276 0.17666717861228107
0.2788180332747246 14.723466613432068 1116490.0868541917 4.247795712514012 0.17945829709254468
0.2919738048181056 14.498352373562263 905841.1763788083 4.494519643077382 0.18226835350380344
0.3055108664530409 14.301153577127744 738628.8405127607 4.751772556411937 0.1850930707919979
0.31942831175468256 14.1280712559171 605005.2681984903 5.020235393572555 0.18793903814752283
0.3337283164113626 13.975853683712351 497624.01818175724 5.300134018471225 0.19080291389256004
0.34841088796988806 13.841944031473462 410955.17500338895 5.592195034106965 0.19369095376524592
0.3634736569037359 13.723942025725792 340624.50524960324 5.896588284769623 0.196598268013228
0.378930455507039 13.619949672204344 283268.1574211785 6.214176841469263 0.19953251595214336
0.39476427588220286 13.528376622813115 236370.8391806844 6.545215694582718 0.2024898325817461
0.41099088767272146 13.447796151891472 197840.2750672518 6.890412160449836 0.20547401192550183
0.4275993501796674 13.377007152761644 166049.80219923006 7.250469290126112 0.20848808901746466
0.4445976575706594 13.314852757196977 139774.01889766092 7.625642695946961 0.21152755635914552
0.46197909620019795 13.260502339901553 117948.41769858627 8.016888164559118 0.2145986801051927
0.4797474176717896 13.21309962751559 99791.15463495417 8.424907796925682 0.2177030582666582
0.4979064511065508 13.171933771935809 84621.52491487717 8.85013803899531 0.22083809413711622
0.5164471044972576 13.136358483336432 71924.40175543849 9.293461113170535 0.22400732072854657
0.5353680705520047 13.1058026634219 61261.67174350983 9.755757963904017 0.22721359785705622
0.5546771623890328 13.079779151225896 52293.614800127725 10.237837090760236 0.23045825932340328
0.5743614889984382 13.057803155057169 44717.22388199255 10.740167200159755 0.23373796978594152
0.594420288080246 13.03950961523327 37985.44422745918 11.264002167601879 0.2370590301584603
0.614860561589694 13.024471664162517 32891.256429933324 11.81027508475955 0.24042299388804528
0.635666537038488 13.0124116705944 28283.529967923063 12.379965322017565 0.24383149458042308
0.6568392867948828 13.003012232476674 24363.587970193952 12.973753099697173 0.24728238222110913
0.6783736116839023 12.995964104883322 21021.84119132691 13.592983012944803 0.25078063983621834
0.7002647043437941 12.991041215571405 18166.860484545105 14.238844801598116 0.25432880944399067
0.7225014209448234 12.98799396679493 15724.053650885746 14.912528630064259 0.25792887657593855
0.7450915854081815 12.986651635951517 13629.807813224463 15.615051500877934 0.2615806087054005
0.7680141497078679 12.986765730899544 11832.29014928709 16.347705333186884 0.2652861558321628
0.7912629666834992 12.988146760992574 10217.949676552369 17.112094564978868 0.2690500857248577
0.8148396630175719 12.990665711911728 8953.126931085291 17.909674869526288 0.27287483219809927
0.8387244590327373 12.994143505038156 7804.867421031731 18.741792312641138 0.2767613013488246
0.862908332873481 12.998414259407447 6811.566228018245 19.609830470887015 0.2807103210419668
0.8873919071753078 13.003363623290179 5953.11573421794 20.51585733801353 0.28472808390255044
0.9121510783530047 13.008854999663281 5209.254914136555 21.461667869081573 0.2888176049218275
0.9371732842710127 13.014759330008188 4563.402458169136 22.448721562938438 0.2929786047752962
0.9624592888037264 13.020966221623981 4002.93891694881 23.47909404697003 0.2972152825590018
0.9879823777202928 13.027355929862441 3515.10289972085 24.555184785409704 0.30153354543869537
1.0137273431670388 13.033818901863551 3090.5324143969287 25.678906708422474 0.3059348034289657
1.0396948181438512 13.040264918305176 2720.2955747088886 26.852281153178975 0.3104207577780264
1.0658474403369653 13.04659405688865 2397.1829642708835 28.078377582055342 0.3149999305655206
1.0921832897525372 13.052729056240585 2114.725910008057 29.35921544386616 0.31967251901131033
1.118682991642653 13.058558898429075 1867.5917242105718 30.69762338292038 0.3244437036175493
1.1453163517532257 13.06401337014226 1651.2013564543643 32.09692775488011 0.329321042059945
1.1720814967930628 13.069025018131056 1461.3381505618104 33.55914852823984 0.33430274102192353
1.198941149415365 13.07348351563976 1294.8603430170924 35.08879242813083 0.3394021224409091
1.2258877742257759 13.077345011390788 1148.508377009782 36.68783766137842 0.34461566886667566
1.2528869630964117 13.08050146916805 1019.6917525437672 38.36138162910261 0.3499580937584643
1.2799311800289614 13.082943016369285 906.2725325175238 40.11171527329285 0.3554262629863772
1.3069825834861313 13.08454588384234 806.3932912745671 41.94421609078191 0.3610341842676596
1.3340163752903296 13.08524139234942 718.2605386644005 43.86246773499382 0.3667843437896091
1.3610254937024955 13.085031932195085 640.3132538711986 45.871061936911126 0.3726839513628639
1.3879586464926894 13.083770143763838 571.5148246704402 47.97538311143686 0.378743241087158
1.4148100414302853 13.081459863057189 510.5778957741573 50.18024767672761 0.3849681604628684
1.4415415739980046 13.078016296131429 456.647376067983 52.490766674347576 0.39136510832050775
1.4681362394494812 13.073414846152414 408.7886270977975 54.91341421942717 0.39794606743329225
1.4945485819372248 13.067538976201217 366.3460714817594 57.45438347551045 0.4047201043516251
1.5207608089104814 13.060386356329024 328.68045368452243 60.12030601034251 0.41169699616725036
1.546744905070047 13.05189541761788 295.1329140560582 62.91829126454651 0.4188872890250044
1.5724622630833147 13.042006187879622 265.32271567003164 65.85596979964005 0.4263023614128186
1.5978758884650428 13.030666901690896 238.789533602059 68.94154070912879 0.43395449278927006
1.6229740645585935 13.017841903719205 215.12214504451322 72.18382362412112 0.44185693817646954
1.6477268174663888 13.003492650291554 193.98451534706555 75.5923157990028 0.4500240094219689
1.6720750949975536 12.98755048030147 175.1460197903774 79.17686308685983 0.45846952812999214
1.6960119294783715 12.969989552656733 158.28305444764717 82.94785627165233 0.4672075863268007
1.719490672912426 12.950771976461246 143.19968609925726 86.91794643144239 0.4762593464980033
1.7424735469253976 12.929819894291226 129.7151960157835 91.0986167420509 0.48563875559164565
1.76495486435845 12.907161461724654 117.60975090756102 95.50416719973391 0.4953685527099996
1.7868807186288889 12.882720402590596 106.76103079190527 100.14806804507504 0.5054654586695444
1.8082176429851944 12.85644886951792 97.0324016243116 105.04695781525653 0.515955595985802
1.8289304683830587 12.82831327722551 88.28242930700122 110.21738915802918 0.5268615187272266
1.8490028368796743 12.798322814351888 80.42050022800736 115.67713332643712 0.5382070866392882
1.8683763517146046 12.766373469229826 73.34495706529592 121.44616449446741 0.5500207329906789
1.8870520201513659 12.732543208756931 66.9697241571434 127.54592402270224 0.5623323075041087
1.904974034840151 12.696713013349965 61.22243851285235 133.9990851144341 0.57517190783428
1.9221135954884194 12.658882005869001 56.04466320671113 140.83126383894572 0.5885755443837969
1.9384231903442517 12.618979769619216 51.36272835577609 148.07015055404042 0.602581483299136
1.95391606253098 12.57712184736379 47.13866898658766 155.74412694830866 0.6172250422830659
1.9685295414973183 12.533180583545533 43.31786995048567 163.8869954272191 0.6325543096268457
1.982239352845762 12.487165921983909 39.85657258176879 172.53271369974044 0.6486114094075516
1.9950228560310859 12.439071871480456 36.724727159801674 181.7202962003485 0.6654485181902374
2.006856611396005 12.388896377532825 33.885185163551085 191.4919319932622 0.683120612756225
2.017698217773278 12.336607968433684 31.311281002878776 201.89369337554558 0.7016869764488135
2.0275308346834984 12.282212066590256 28.976345905722155 212.97539286003456 0.7212097524158636
2.0363336969690757 12.225725766909063 26.855816942207387 224.79291572235542 0.7417604848107336
2.044072796486229 12.167116369290984 24.929021484860243 237.40711648447427 0.7634151886492964
2.050726463438496 12.106391287084202 23.17518119263738 250.88509869423237 0.7862571164424635
2.05629353760045 12.043627856412678 21.583468325897112 265.30019536734443 0.8103750523034395
2.0607327694360427 11.97876218203513 20.13231919255105 280.7337392913824 0.835867207008612
2.06403278160267 11.91184953996759 18.812591041943858 297.27601883157587 0.862842195715287
2.0661859407661582 11.842931779203466 17.610406824759448 315.02736549215024 0.891420157816046
2.067170932874029 11.772025466454382 16.51467794339431 334.097055498782 0.9217262948140684
