M[M_sun], R[km], Lambda[1], P_c[MeV/fm^3], rho_c[fm^-3]
0.24162668629717493 15.618656898711224 2160425.4255784233 3.5677272577965504 0.1711233750220791
0.2536396358461647 15.277424980469426 1723389.9003017503 3.7847563599411673 0.1738873847214751
0.26603246226122523 14.981428907875442 1383215.559048649 4.011268531870205 0.17666505446826447
0.27880323037819665 14.723737525394803 1116652.4395795467 4.247521831519784 0.17945512048574147
0.2919542637662895 14.498643844154225 906153.2278226075 4.494140471109649 0.18226413133594152
0.30548522075140333 14.301499469175992 738892.3996985554 4.751275220336788 0.18508769861320612
0.31939639930854247 14.128424915807964 605280.3287352432 5.019616231263037 0.18793261409958686
0.3336894930160609 13.976230077616576 497869.62174103764 5.299376730885854 0.19079528926314268
0.3483662688603876 13.84231216882281 411180.8873668585 5.591297731903363 0.19368227211958675
0.3634228087590869 13.724289632522124 340828.02564989903 5.895530810981391 0.19658833599562361
0.378870515469215 13.620301132390816 283456.28730907314 6.2129464012825295 0.19952129581918676
0.3946979568792084 13.528723748343928 236535.7918130868 6.5438135669194235 0.20247753781632072
0.4109154608306015 13.448144190437224 197984.30743648292 6.888811280242707 0.2054603781578746
0.4275167799114234 13.377335025418708 166205.1165758415 7.248654637506615 0.20847307686139918
0.44450695270763807 13.315167095349874 139897.52193060954 7.623619287723521 0.21151144872863972
0.46188092350254933 13.260794768509397 118064.64924208008 8.01462071157067 0.21458113952317007
0.4796391228039015 13.21336488593901 99889.33721446215 8.42237862106435 0.217684042399904
0.49778902786166573 13.172174843636167 84714.21227031891 8.847356466786765 0.220817954365852
0.5163198111088249 13.13657305586327 72000.72696175335 9.290382135297762 0.22398564453237035
0.5352302913049108 13.106002920265508 61331.40493802697 9.752360707899198 0.22719033844417483
0.5545285189171896 13.079955521756355 52351.660567070874 10.234100783488001 0.23043338545067696
0.5742015956776592 13.05795665585152 44773.31589808706 10.736105347412137 0.23371189143309729
0.5942537134324041 13.039665752796513 38365.36471312336 11.259555059972337 0.23703124454951474
0.6146802523515809 13.02459632670269 32935.523283563096 11.805416455775614 0.2403934453173795
0.635473868703924 13.01250101106735 28324.413882453246 12.374667266717598 0.24380012440186055
0.6566369206119155 13.003091953101428 24397.768610674528 12.968039947264902 0.24724972818459467
0.6781606611869174 12.996028339889838 21051.209199379384 13.586773646090812 0.2507460677451642
0.7000394012238805 12.991093719776048 18193.401383956596 14.23210593308155 0.25429225075339773
0.7222636812986137 12.988016480361916 15747.823717711233 14.905224834141961 0.2578902586537107
0.7448409691309824 12.986652967966352 13649.946663075909 15.607216329848663 0.2615405605083732
0.7677523416797375 12.986757893890989 11850.206080442806 16.339232697704272 0.26524392186929235
0.790988327254838 12.988123283924116 10302.24324034671 17.1029419509718 0.2690055796622765
0.814552324613464 12.990627848493533 8968.751835690413 17.8997969446399 0.27282796215081884
0.8384246713331863 12.994095968340579 7817.56835013236 18.731232886066675 0.276712786247309
0.8625958727026938 12.99835677579169 6823.784763116316 19.59845226585768 0.28065927421185854
0.8870605565031822 13.003290443623024 5963.624468926355 20.503605602577622 0.28467439489820867
0.9118111181387845 13.00878856931524 5218.296803054748 21.448484102470243 0.28876115585104506
0.9368196722075401 13.014675653176207 4571.8616922811625 22.43466067836748 0.29292020386584205
0.9620896221147891 13.020870910798735 4010.378054684635 23.463979620297863 0.2971538983813524
0.9876019715164829 13.027267699941856 3521.7307107114434 24.538945689418107 0.30146903521938156
1.013341875220732 13.0337273381073 3096.891051824674 25.66160579503331 0.3058680358722291
1.0392894927118366 13.040167722029386 2725.710411308992 26.83370695346086 0.31035058779613905
1.0654334540948787 13.046501721841022 2401.941984685424 28.05844316977942 0.31492618450636517
1.0917522353186364 13.052631354136322 2119.0498620521307 29.337991460593322 0.31959612570312024
1.118240655558774 13.058466270174343 1871.5714524942678 30.67485648462186 0.324363391908543
1.1448620733402946 13.063921851482752 1654.6147006899498 32.072657429053116 0.3292375460390503
1.1716156936131246 13.068946355156756 1464.4681404998862 33.5331601684849 0.3342151575700374
1.1984624386424585 13.07340649660422 1297.6268092054024 35.06092859566934 0.33930998430086107
1.225398527598014 13.077283504174101 1150.9461758049456 36.6581792018052 0.3445199952671233
1.252385579855593 13.08045529132935 1021.91310693883 38.32964477618775 0.3498577132299644
1.279419048633571 13.082907845913759 908.2721915338749 40.07786809994454 0.35532155113964753
1.3064543276878675 13.08451152377209 808.1560061606484 41.90817611387532 0.3609252299574384
1.3334835753528513 13.085227648704633 719.8712154869726 43.82383097823381 0.3666694953670592
1.3604859611181086 13.085041395826222 641.85660304931 45.82990934182771 0.3725642852065188
1.3874097063176332 13.083800711861532 572.8326797981105 47.93153894299061 0.3786184464305544
1.4142592073193123 13.081530923262854 511.7577247536618 50.13323128487605 0.38483641535158686
1.4409845298915975 13.078116444346772 457.70466879149023 52.44065268095485 0.391227514070742
1.4675663507861 13.073523838893246 409.7786225439752 54.85998077789633 0.39780223421848615
1.4939703426382878 13.067680610551653 367.20936883614763 57.39739077196561 0.404569612214048
1.5201787917778007 13.060563420086373 329.4569857702847 60.05949465522662 0.41153939254404026
1.5461588944741846 13.052102339519717 295.85692286318516 62.853380523756265 0.41872208602906047
1.5718727829416828 13.04225149224034 265.99458214391865 65.78665564733164 0.42612903284224707
1.5972889176218221 13.030946082406784 239.36666358104023 68.86749368215385 0.43377247083599124
1.6223811751491914 13.01816609936225 215.64216711991222 72.1046864555906 0.4416656098010961
1.647131799195844 13.003858524611537 194.47988726100468 75.50770080568395 0.4498227123580962
1.6714859055779825 12.987965985104129 175.5798298795365 79.08674101910512 0.45825918226434803
1.6954214016350442 12.970455249222974 158.68345697696472 82.85144849761463 0.46698604154284706
1.718883954746825 12.951242398136776 143.56148240167335 86.8147068516491 0.4760255596446112
1.7419007265223754 12.930404800314793 130.04351087828357 90.98850237850637 0.4853937916643993
1.7643801351389805 12.907789386226831 117.91561553141611 95.38611759523488 0.4951095255185329
1.7863086940471804 12.883388269261562 107.03848926767628 100.02198042015509 0.505193367045124
1.807651113766651 12.857172456193789 97.2786291771406 104.91217852200917 0.5156693918740828
1.828380808377507 12.829120767925062 88.5103318057064 110.0728602577478 0.5265587843464918
1.8484581137094303 12.799175378066215 80.62432229640389 115.52217760947374 0.537887001599149
1.867854826985584 12.767325120889334 73.53001711095845 121.28015511216651 0.549682798723966
1.8865352763180494 12.733532751836327 67.14107286560765 127.36804876315416 0.5619755004127146
1.9044699425525207 12.697767869322066 61.381335092841425 133.8087393635578 0.574796106220219
1.9216066761538249 12.659953499068505 56.18509465420607 140.626820444249 0.5881772109050339
1.9379600709626281 12.620212407734506 51.49506997920416 147.8503856031299 0.6021587544820715
1.953458729307813 12.57837801101326 47.25644456458761 155.50841974913394 0.6167783535460065
1.9681000500726766 12.534537439630592 43.425582024842576 163.63349653533456 0.6320801320277831
1.9818356851184966 12.488607236292275 39.958705228664236 172.25993675325245 0.6481077566006759
1.9946404257443726 12.44059259512044 36.81715492274392 181.42683111844377 0.6649139674744242
2.006494948864438 12.39049023718824 33.97232984725712 191.17587369248113 0.6825524309583617
2.0173756754364853 12.338320514203954 31.39072953001818 201.5529403673449 0.7010821734717698
2.027229624785828 12.283987978715343 29.048716928232466 212.60848337498587 0.7205678662232681
2.036064443566483 12.227595002477415 26.921614301380213 224.3964549685281 0.7410751929593512
2.0438355177743968 12.169077579764611 24.98859165780343 236.97917359387083 0.762685506709314
2.050522505305663 12.108449498817091 23.232372148134406 250.42193707192794 0.7854767746567526
2.056118142256835 12.04575116040014 21.633323577921963 264.7987813883561 0.8095407578863162
2.0606004293424767 11.981004286976956 20.17998897557808 280.19096342271837 0.8349761998806676
2.063942037372327 11.914202086467522 18.855103011243138 296.6876421877266 0.8618889201262682
2.066130490071056 11.845361883387923 17.65054944027719 314.38821712423277 0.8903970069898189
2.067155979173876 11.774552685727096 16.55252121122099 333.40292140272817 0.9206299654563918
