M[M_sun], R[km], Lambda[1], P_c[MeV/fm^3], rho_c[fm^-3]
0.24162668629717493 15.618656898711224 2160425.4255784233 3.5677272577965504 0.1711233750220791
0.2536385324438731 15.277430866830251 1723355.7370897187 3.7847375238452377 0.17388714993862617
0.26603005201366997 14.981509058109111 1383275.0760036402 4.011228935672044 0.17666457597157778
0.2788003845497842 14.723798448690953 1116644.3407569767 4.247460136683448 0.17945440491861211
0.291949770797582 14.498709507371899 906167.7733600787 4.494055059817503 0.18226318026138055
0.3054792732595957 14.301576636678421 738965.9966209201 4.751163193758419 0.1850864885123538
0.31938882080193576 14.128532946156218 605339.4111948716 5.019476765343995 0.1879311670868479
0.3336824824015161 13.976285847087155 497931.6978451851 5.299206155383915 0.1907935718508741
0.34835614200802195 13.842356844225003 411222.9254206678 5.5910956221283 0.1936803166519145
0.3634112609284153 13.724357952801135 340882.8177807144 5.895292628063056 0.19658609893124973
0.3788577341969194 13.62037057367205 283502.20519455685 6.212669264621331 0.1995187686665309
0.39468266960485704 13.528810591683044 236585.67269953009 6.543497765442654 0.20247476866399633
0.41089958006522675 13.448208334916393 198021.05717127962 6.88845071981988 0.2054573074740105
0.42750033930835624 13.37736518988031 166225.5405646839 7.248245936804449 0.20846969578523117
0.4444855073166093 13.315268288590923 139934.56227071304 7.623163577442253 0.21150782098178006
0.4618593718301592 13.260849746486809 118090.45321335433 8.014110046218052 0.21457718911381235
0.47960986659252136 13.213487630551095 99917.67443721216 8.421809021106935 0.21767975980451038
0.4977619879220973 13.172235619128625 84732.2812156305 8.846730033325278 0.2208134187199364
0.5162913868102386 13.136620636517991 72022.89671014523 9.289688734892787 0.22398076295029087
0.5351984906889237 13.106057598357637 61350.36928247763 9.751595642195179 0.22718510039939224
0.5544962368316696 13.080004416939932 52366.79511404593 10.233259068774421 0.2304277799590385
0.5741660841044061 13.058008124966445 44784.382970834085 10.735190641384666 0.23370601873706046
0.5942176972434543 13.03966869934299 38376.7155757604 11.258553612845935 0.23702498748974649
0.6146401905111868 13.0246242756334 32947.103064608156 11.804322355449115 0.24038679136192828
0.6354312941106045 13.01252948252768 28333.33652345719 12.373474232417902 0.24379306035724535
0.6565876182670275 13.003108737349637 24212.63793208174 12.966753457331773 0.24724237513568695
0.6781118207802186 12.996038270445094 21058.045939380954 13.585375440729624 0.2507382829123148
0.6999889655191623 12.9911051756848 18199.928317242364 14.230588520487606 0.25428401871601825
0.7222101030318043 12.988031660770224 15753.253299090717 14.9035802413625 0.2578815630717517
0.7447860753751293 12.986659609418771 13655.824904860989 15.605452110918094 0.2615315429914528
0.7676939218885807 12.986751988430745 11854.70841001896 16.337324973605412 0.2652344123431333
0.7909264838143388 12.988113526537623 10305.64013680619 17.10088115395778 0.26899555870424174
0.8144866766853841 12.990635402057476 8971.848899359717 17.897572872913862 0.2728174090895076
0.8383557860108548 12.99408825422058 7820.2193178418565 18.72885540162384 0.27670186293643767
0.8625253918060874 12.998343658296667 6826.459135209547 19.59589047265494 0.2806477810613963
0.8869865193186107 13.003282877372069 5966.086689581387 20.50084717966938 0.2846623070613245
0.9117340552105995 13.008773885169493 5220.44825287085 21.445515885576608 0.2887484468058635
0.9367413117424777 13.014651494948684 4574.1528389044815 22.4314950276242 0.2929070555549027
0.96200736401063 13.020844626176109 4012.1030034824553 23.460576832662355 0.2971400786496979
0.9875182427466659 13.027244236082478 3523.287011360358 24.535289760237703 0.3014545119482989
1.0132502833334394 13.033690576107933 3097.9388109388296 25.65771087008112 0.3058530046067184
1.039198039336864 13.04014810164101 2726.8417482474306 26.829525446470242 0.3103347908156906
1.0653404964810664 13.046481371462768 2403.0366519980385 28.053955522273515 0.31490958274686215
1.0916553859010867 13.052601616474082 2120.0021411546013 29.33321357014194 0.319578928231135
1.1181416233566497 13.058442687277998 1872.4312049201737 30.6697313460668 0.3243453126501894
1.1447599430214883 13.063909187961217 1655.3575669948948 32.06716101543342 0.32921853730259587
1.1715108101390002 13.068921615513123 1465.164064872008 33.52731002156422 0.3341954419717393
1.198360296131732 13.073400815591137 1298.2413345957618 35.05465638046724 0.3392892437855891
1.2252890608148688 13.077267487214616 1151.4816573716062 36.65150310965638 0.34449845922728806
1.2522734586742985 13.08044080293781 1022.4265825097663 38.3224880512971 0.3498350422944209
1.279304364659629 13.082891502191195 908.7533678282291 40.070249387426045 0.3552979813883627
1.3063381579336635 13.084498701910112 808.622491210439 41.90006394429188 0.36090070563979937
1.3333642408599558 13.085233060588859 720.174921940192 43.815134471002615 0.36664364485006573
1.3603633420240124 13.085052194920278 642.1614082573744 45.82064670722294 0.37253735072332195
1.3872865931710496 13.083807143615276 573.0981351490057 47.921670648027764 0.37859035807753527
1.414126234259032 13.081528860687076 512.0349690581662 50.12264920876843 0.3848067632081644
1.440857337555589 13.078132582018368 457.94228282226464 52.42937361067092 0.3911965459696448
1.4674387739502952 13.073546701739124 409.99245591835415 54.847954811174404 0.3977698624788937
1.4938415804936354 13.067711043034212 367.4234368183617 57.384563966372504 0.4045357423803337
1.5200473303775062 13.060604760607948 329.6295161097388 60.04580866662732 0.41150392282976817
1.5460268496283096 13.052149586391348 296.01942602378625 62.838772208728955 0.4186849067059034
1.5717401916059224 13.042303892831072 266.12493391411886 65.7710566255165 0.4260900255679244
1.5971552636183357 13.031009507078744 239.50549342448403 68.85082985403298 0.4337315079146212
1.6222494586123646 13.018230301717097 215.78000959810745 72.08687747064606 0.44162255336857825
1.6469978015418705 13.00394050225564 194.58777350102181 75.48865947525402 0.4497774134842508
1.671352580139077 12.988056158154976 175.67441541071946 79.06637266754657 0.45821147996252476
1.6952890976587291 12.970558442461742 158.7787086991338 82.82975420610295 0.46693618812413723
1.718753726756974 12.95135664717221 143.65354400376333 86.79147572413503 0.475972952570724
1.7417684218290204 12.93053013990007 130.11792427363144 90.9637247412017 0.4853386705417168
1.7642490304775584 12.907927306964277 117.98255474723688 95.35955499324875 0.4950512412386345
1.7861795077266163 12.883540809811613 107.10370959016208 99.99360973196914 0.5051321443308462
1.8075247748023535 12.857340951313438 97.33297874773345 104.88185276709677 0.515604995069961
1.8282547147516646 12.829293980353128 88.56398398023757 110.04029095866578 0.5264904813663123
1.848336000993504 12.799369350556383 80.67003391098704 115.48731371696792 0.5378149848278364
1.8677345601980941 12.767532392218621 73.57545267260106 121.24280507416988 0.5496067677338667
1.8864182089509876 12.733755235844535 67.18099918267767 127.32800309231256 0.5618951290708656
1.9043569859251268 12.69800548955126 61.41750387720155 133.7659158585712 0.5747115593247951
1.9214980878214099 12.660209145718074 56.21980261222183 140.58082643830758 0.5880875970908236
1.937853776109217 12.620481232842753 51.52654681278143 147.80094595595355 0.6020636548609519
1.9533654467666055 12.578696073363632 47.286167920275744 155.45539490131918 0.6166778661515354
1.9680028802442633 12.534842707763932 43.452649676006764 163.57639904987423 0.6319732207529939
1.9817440745115682 12.48893110028148 39.981106079507015 172.19857593877964 0.6479944605658045
1.9945540408197406 12.440937562110966 36.837473380484724 181.36081829799141 0.6647937242066506
2.006414600744675 12.3908511715722 33.99130231930634 191.10478066414026 0.6824246261686807
2.017301857624817 12.338701908315864 31.409130084587684 201.47629480479287 0.7009461351587013
2.0271582835258095 12.284381208750688 29.06560046062839 212.52583336164957 0.7204230865522185
2.035990894678399 12.227977794383426 26.93617556443212 224.30728426900038 0.7409210592823642
2.0437820196281744 12.16951814222294 25.002696908888606 236.88292489692472 0.7625213938394649
2.050483971229897 12.10892799345647 23.24321730534712 250.31770719656242 0.7853010666468928
2.0560795151509192 12.04623477096267 21.64462408380161 264.6860033385142 0.8093530886591126
2.060571282898279 11.981504857009902 20.19113427220556 280.0687806256734 0.834775434450155
2.063921606586803 11.914724877651249 18.864755207964492 296.5553277812002 0.8616745470794526
2.0661169884975625 11.845908665512574 17.659171855526694 314.24449037668444 0.8901669287358696
2.067152459516938 11.775120690568567 16.560932984172567 333.24683548370905 0.9203834402153562
