M[M_sun], R[km], Lambda[1], P_c[MeV/fm^3], rho_c[fm^-3]
0.24162668629717493 15.618656898711224 2160425.4255784233 3.5677272577965504 0.1711233750220791
0.25363803860122375 15.27742786169842 1723312.4825222467 3.7847261807500576 0.17388700855241684
0.2660291913655356 14.981493113561323 1383285.1761033358 4.011205090980139 0.17666428782254828
0.27879737335200216 14.723871948131997 1116717.8415450165 4.24742298447203 0.17945397400894686
0.29194677416389847 14.498763170686766 906202.2062404928 4.4940036259913665 0.18226260753378934
0.3054761146338121 14.301615740322193 739020.6851331698 4.751095732837282 0.18508575980565442
0.3193849842083633 14.128563972092023 605342.2991866389 5.019392781244263 0.18793029571939832
0.3336760997652216 13.976396020056765 497991.83606182353 5.299103438141893 0.19079253765868567
0.3483492782726817 13.842465507103329 411285.1702553546 5.590973916159034 0.19367913911318171
0.3634051480504789 13.724392482243214 340889.04097230406 5.895149200394455 0.19658475182823368
0.3788504492976203 13.620400519359404 283521.19684635533 6.2125023808559074 0.19951724688753136
0.3946731830456387 13.528867355179369 236608.40080253108 6.543307599718573 0.20247310116749745
0.4108894176647318 13.448260417818227 198047.60109418468 6.888233602751862 0.2054554584139496
0.4274885062206396 13.377439962489408 166253.93583218343 7.247999832542634 0.2084676598277443
0.44447427308922305 13.315298188146778 139950.8591970244 7.622889166994153 0.21150563649816786
0.4618451059960265 13.260897024673191 118110.18017673741 8.013802545535373 0.2145748103474282
0.4795999598749472 13.213458521028738 99923.15438011965 8.421466034213866 0.21767718102256137
0.49774685167963456 13.172261723698444 84744.82051358852 8.8463528255247 0.22081068757429173
0.5162736063247381 13.136654683009958 72033.30552538524 9.289271204858434 0.22397782351281906
0.5351808056849191 13.10607656129461 61360.34936892391 9.7511349612133 0.22718194633353764
0.5544765935698863 13.080030831238433 52374.614721487575 10.232752236346792 0.23042440465278646
0.5741448139210816 13.058023337178717 44794.17853929609 10.734639860024297 0.2337024825501162
0.5941948740473143 13.039685669971846 38383.87228845683 11.257950604029395 0.2370212198797485
0.6146158869887439 13.024636994694628 32950.83640898739 11.803663559786562 0.24038278478512368
0.6354047765652746 13.012550754188508 28336.593496876267 12.372755868581594 0.24378880687166585
0.6565605004797144 13.003091223932616 24410.966658654866 12.965978823970342 0.24723794764904636
0.6780829449625051 12.996045076128244 21063.248550683802 13.584533544189062 0.2507335954579345
0.6999581914828247 12.991103127973904 18203.68812507484 14.229674850411307 0.25427906201126266
0.7221774876320454 12.988034930355063 15757.05542789552 14.902589997751525 0.25787632728050536
0.7447510692290427 12.98665572722976 13658.171383563194 15.604389842050251 0.26152611337763115
0.767658365111236 12.98674383679095 11857.213516295762 16.33617630303607 0.2652286865084416
0.7908889670367988 12.988112350610148 10307.869216292402 17.099640321656405 0.26898952495694123
0.8144474851599219 12.990628244795541 8973.8380796597 17.896233737171222 0.27281105498616154
0.8383157133770865 12.994079330312742 7822.171265658007 18.72742390010889 0.27669528592765524
0.8624822653000668 12.998336473671891 6828.1636760831125 19.59434800478868 0.280640860980864
0.8869440200117708 13.003267172718152 5967.749343133654 20.4991863280881 0.28465502895217626
0.9116887128219598 13.008753054710828 5221.920530121556 21.443728725266716 0.2887407947029549
0.9366934360551654 13.014640099834244 4575.211483622079 22.429589000056467 0.2928991390015138
0.9619561433570101 13.020835191783965 4012.9834337008465 23.458528035761887 0.29713175787672824
0.9874676293022702 13.027225756302931 3524.26074462901 24.533088559225227 0.30144576762163555
1.0131961654398431 13.033683615319681 3098.696381456022 25.65536578125685 0.30584395445730694
1.0391432229876363 13.04013895325786 2727.5841993209497 26.82700782248745 0.310325279685631
1.0652834459278537 13.046463728049478 2403.6140361998223 28.051253589165313 0.31489958712140437
1.0915971510533327 13.052591795887494 2120.6021066976778 29.330336898612895 0.3195685739799157
1.1180814636547356 13.058431231276103 1872.871112230854 30.666645619250502 0.3243344275488948
1.1446978319771866 13.063889415489562 1655.9536511010235 32.063851769659685 0.32920709264338205
1.1714480091710684 13.068913295753227 1465.61090221696 33.52378781711256 0.33418357177958274
1.198294216806582 13.07339845430278 1298.6626139994764 35.05088008087411 0.33927675658659173
1.2252225380187614 13.077256676858914 1151.897811564886 36.64748366606372 0.34448549312445464
1.2522056282545917 13.080436302385618 1022.7517129680606 38.31817925874851 0.3498213929842082
1.27923513813631 13.082890641976668 909.0209342890751 40.06566247004731 0.355283790998383
1.3062685537965972 13.084495164101623 808.8315259374548 41.89517995852156 0.3608859406108951
1.3332918388372343 13.085229744717106 720.4283224422095 43.8098987103849 0.3666280814617739
1.3602904674708511 13.085045661255366 642.3851587104688 45.815070133831355 0.37252113480541943
1.3872113119204008 13.083817613645158 573.3043384355122 47.91572946482038 0.37857344755227135
1.414050693659579 13.081533535891271 512.1904625799403 50.11627833292481 0.3847889113119656
1.440780176697253 13.078144552171448 458.0964748751817 52.42258314720757 0.39117790190114127
1.4673600829182563 13.073563879764356 410.1205075161912 54.84071472190877 0.39775037346069225
1.4937632180650922 13.067728796868193 367.5390931778468 57.376841781426926 0.40451535155752755
1.519968920367508 13.06062642342896 329.7357306301499 60.037569266856586 0.41148256893534385
1.5459477093109768 13.052175237608465 296.1137150258772 62.82997758645207 0.4186625236930053
1.5716591869432632 13.042337540173692 266.20245084149917 65.76166562113809 0.426066542205423
1.5970749476889583 13.03104570478307 239.58552711462846 68.840797865848 0.43370684734201886
1.6221737626066155 13.018272361462287 215.74665210331844 72.07615613478505 0.44159663260580384
1.6469177429334603 13.003989951203177 194.65108223920038 75.47719631235229 0.4497501428913652
1.6712717923968663 12.98811161889095 175.7366382043344 79.05411069229172 0.4581827626437533
1.695195484454917 12.970601977046577 158.83466658149527 82.81669406786045 0.4669061759644933
1.7186907984734305 12.951464670431827 143.69570188043798 86.77749048693708 0.47594128288933824
1.741688969510386 12.930606643460022 130.16115719742496 90.94880858088395 0.48530548757545106
1.764171242010708 12.908011263486388 118.02763158375485 95.34356438922565 0.49501615428287943
1.7861018660314019 12.883633462725063 107.139665948268 99.97653076606063 0.5050952886633655
1.8074482032608674 12.857439439004889 97.37087180499059 104.86359697488679 0.5155662288569375
1.828178200055753 12.829403572447951 88.58704720961359 110.02068471730422 0.5264493639719299
1.8482620979719524 12.799485215677564 80.69818803743858 115.46632629969284 0.5377716320659469
1.8676615776431458 12.767653893723192 73.60232919713714 121.22032119358643 0.5495609987924219
1.8863405905187831 12.733861679373096 67.20343226167833 127.30389666787191 0.5618467476693617
1.9042868498761658 12.698150239008484 61.43562331261489 133.74013741312126 0.5746606646693407
1.9214378938758225 12.660389247571326 56.239708671101845 140.5531396518755 0.5880336527021011
1.9377830260406228 12.620617013253128 51.54331317461592 147.77118524010712 0.6020064086433333
1.9533041053737896 12.578870255095229 47.3020185125102 155.42347626012446 0.6166173771313704
1.9679500977289377 12.535046153024565 43.46688650623576 163.54202913762933 0.6319088653597069
1.981690244459424 12.489132601193884 39.993333680880404 172.1616399890543 0.6479262623731298
1.994517003758449 12.44118194758823 36.83757085075186 181.32108240021515 0.6647213447178817
2.0063662468546353 12.391070126277723 34.0024790441044 191.06198712447426 0.6823476957091918
2.017257028398435 12.33893158693858 31.42008513215911 201.4301593788786 0.700864249328588
2.0271179078850707 12.284620802959282 29.07521658895502 212.4760421277175 0.7203358022437684
2.0359550574338345 12.228230957888133 26.946206781002907 224.25361048292365 0.740828282865339
2.0437487751839436 12.169784340333072 25.010932428582752 236.82496636101507 0.7624225305816782
2.0504547994404323 12.109207209345273 23.251672797221524 250.25497012945033 0.7851953061327596
2.056056631225157 12.046526554447722 21.65237013802892 264.6181216791942 0.8092401296341629
2.0605523160109294 11.981808650005041 20.196662146950107 279.9952389300306 0.8346545939509731
2.0639075523148094 11.91504176806437 18.87115243454558 296.47568865083525 0.8615455174184331
2.066109798080058 11.846237907173569 17.66437404687545 314.15798316287095 0.8900284477012136
2.0671501913247807 11.775463536871014 16.565645712715895 333.1528904403379 0.9202350615236287
