M[M_sun], R[km], Lambda[1], P_c[MeV/fm^3], rho_c[fm^-3]
0.24162668629717493 15.618656898711224 2160425.4255784233 3.5677272577965504 0.1711233750220791
0.2536442444899483 15.277267700663621 1723166.3593620374 3.7848235503244063 0.17388822221718847
0.26604032611672535 14.981260626550503 1382917.9958093946 4.011409778052059 0.17666676134501438
0.27881569632867953 14.723490077059475 1116468.3664751947 4.247741910623371 0.17945767307169097
0.29197037242155444 14.498395158070355 905844.544391001 4.494445156672592 0.18226752408039873
0.30550547018757895 14.3012261499095 738709.7940402803 4.75167485609468 0.18509201544210765
0.319421846115365 14.12813894618902 605080.4009051237 5.020113759440861 0.18793777614646004
0.3337217995274274 13.975933093971534 497671.7550844472 5.299985247953436 0.19080141602030082
0.34840203640789535 13.842018910870376 411001.49322125805 5.5920187555376595 0.19368924822159533
0.36346537086366015 13.723959098245707 340642.3882734162 5.896380537479599 0.19659631680671608
0.3789185266175472 13.619989915358234 283301.0608717223 6.213935111108969 0.19953031166231977
0.39474996222337605 13.528461541033082 236408.33698567603 6.544940231908932 0.20248741714622887
0.4109763860788738 13.44785642261666 197865.0045298247 6.890097647251237 0.2054713333991222
0.42758456000857387 13.37706644548779 166076.1753385138 7.250112774679925 0.20848513965654544
0.4445796544957712 13.314917599543323 139792.76350262185 7.625245163420917 0.21152439174462562
0.4619613033512438 13.260567892646387 117979.7100221143 8.016442680487547 0.2145952339257407
0.47972588877824984 13.213147935382766 99810.45491557055 8.424410887051783 0.21769932219907376
0.49788351041742385 13.172009682428637 84642.93528272017 8.849591535334874 0.22083413721711162
0.5164217821912926 13.136399107419496 71935.14760675892 9.292856170873057 0.22400306189705857
0.5353409230902266 13.105845637387034 61276.2591157453 9.75509048077857 0.22720902791425998
0.5546473807507748 13.079816710959465 52298.13582634625 10.237104082788262 0.23045338625242584
0.5743299871094947 13.057867486038218 44327.15436975426 10.739369123192565 0.23373284588459886
0.5943882575423044 13.039513087125336 38327.33776708497 11.263128386151791 0.23705357075614794
0.614824565946338 13.024500787036187 32900.628279976554 11.809320436270452 0.24041718803243575
0.6356295441022114 13.012428792149992 28291.039934184308 12.378924321825957 0.24382533074104326
0.6567997216100453 13.003013293761445 24369.46098170024 12.972630528284958 0.24727596606324898
0.6783316920856818 12.995988292918202 21027.347794003726 13.591762928095457 0.2507738467306575
0.7002201574955985 12.99106287300355 18171.627016268467 14.237520660544575 0.2543216259141505
0.7224517028192858 12.988020078576795 15728.499019147877 14.911093469618045 0.2579212883416716
0.7450416987007605 12.986653359645118 13633.520644813938 15.613511914430733 0.26157273936073044
0.7679629849107839 12.986761663131603 11836.18164592469 16.346040469501997 0.26527785690425587
0.7912087490362901 12.98813349497239 10288.625027368475 17.110296067311953 0.2690413402397259
0.8147832813024348 12.990662691643905 8956.043689372456 17.907733827043835 0.27286562209031123
0.8386664969894254 12.994129142546653 7807.394368369209 18.73971733506834 0.2767517679004999
0.8628483780666762 12.998400101807675 6814.555418641474 19.607594575700645 0.28070028999037083
0.887326512001452 13.003356295701717 5955.243309803611 20.513449762411344 0.28471753353296114
0.912084281178 13.008844149308329 5211.318099449578 21.45907711318734 0.2888065120553376
0.9371028610697649 13.014752912294336 4565.049511215117 22.445958419593605 0.292967128250937
0.9623873344526575 13.020945600346817 4004.4032335577976 23.47612383691805 0.2972032196534453
0.9879082704113175 13.027338037944672 3516.390670234606 24.551993526181207 0.30152086808074247
1.0136524532801676 13.03378952587169 3091.8711898300144 25.675506753873677 0.3059216823495676
1.0396147617833278 13.040242495380792 2721.306998536388 26.84863093345887 0.31040696790521727
1.0657656449999802 13.046580200781301 2398.189924304465 28.074460008185863 0.31498543775628574
1.0920974759333146 13.052708520093447 2115.6912617639855 29.355044401585015 0.3196575058201312
1.1185956767387988 13.058536710425589 1868.5203444673264 30.693149068336925 0.3244279201829278
1.1452269361935516 13.063993751321098 1652.048417478354 32.09216477253293 0.329304676921735
1.171990187009679 13.069008136357734 1462.000111289726 33.55404100215908 0.3342855281324234
1.1988457826826318 13.073462768889708 1295.4469413639074 35.08331624845577 0.3393840141993194
1.2257922028772978 13.077335798125826 1149.010979458846 36.6820087211068 0.34459686560765995
1.2527871725467339 13.080497225116059 1020.1070428699139 38.35517626999394 0.34993855367751747
1.2798309997904183 13.082932532346629 906.6606163939668 40.105062955909965 0.35540568293879016
1.3068741204295657 13.084522470333253 806.6898172642734 41.93713272891733 0.36101277019161837
1.3339123300423148 13.085235265731873 718.5701897444989 43.854873901981975 0.36676177099065665
1.3609210716553075 13.085030287156782 640.6104461246139 45.86297354612406 0.37266043142117994
1.3878508379322034 13.08377769363421 571.7709031011311 47.96676561049252 0.37871871289768055
1.414707567884368 13.081482037579521 510.7952697909056 50.17100655897364 0.38494226583252955
1.4414309015320486 13.07803121944487 456.85142136903545 52.48091661154913 0.3913380637385628
1.4680253858595342 13.07343357389225 408.99151245896445 54.90291159069187 0.3979177962455934
1.4944347487746397 13.067567981839893 366.5165813071169 57.44318112630552 0.40469052397777233
1.5206467335238467 13.06042321276495 328.82713319481076 60.108352936089325 0.41166601761386656
1.5466303444911755 13.051934781610214 295.2796833942551 62.905532262640044 0.41885481635076677
1.5723467009956096 13.042054173052387 265.45878877509307 65.84234508637837 0.42626829114007564
1.5977706737305408 13.030727359572815 238.9075412779804 68.92698549760686 0.4339187132564537
1.6228578386554164 13.017903969643259 215.22593038746243 72.16826765866016 0.44181932882483016
1.6476100178252475 13.003565494533477 194.08859932504336 75.57568284113681 0.4499844400093788
1.6719580439565895 12.987630786621292 175.22073727161919 79.15915721319507 0.45842822052930066
1.6958950038972378 12.970081396273722 158.35075744713401 82.92890470713537 0.46716403568673665
1.719375916142769 12.95087113670231 143.26965461705063 86.89765160346072 0.47621338869787017
1.7423565165183361 12.929927462185166 129.77693628829542 91.07697020359635 0.48559060001138865
1.7648413175636337 12.907284695819 117.67488358742729 95.48096038838318 0.4953176317840669
1.7867679858764294 12.882849355328283 106.81358004020127 100.12328075295841 0.505411968768523
1.8081053080918954 12.856592818006499 97.0792568713713 105.02046148856105 0.5158993309805256
1.828816520891847 12.828458769724943 88.32408283933772 110.18904357454005 0.5268022556522961
1.8488955695428997 12.798493971795212 80.45944033113408 115.6466695790052 0.538144159049325
1.8682732727533697 12.766553644939258 73.38341866846034 121.41352714986031 0.5499542953173113
1.8869520436320597 12.73273555225857 67.00488121745154 127.5110493624728 0.5622625014745254
1.9048758202927532 12.696920218174315 61.25532631461248 133.96166215905794 0.5750980233006429
1.922017244152836 12.659103595674187 56.07117249142369 140.79106855460907 0.588497228684415
1.9383306087749705 12.619216654923683 51.38911901306673 148.026942191536 0.6024983698641085
1.9538281604130108 12.577374493959866 47.159422588270836 155.69778342919093 0.6171372166752861
1.9684447587985996 12.533447523144478 43.33907601627795 163.83723586555598 0.6324613583521282
1.982159455946314 12.487446765431082 39.8774489801457 172.47907984781017 0.6485123803641664
1.9949508268668803 12.43937246882079 36.74438014545317 181.6625936031275 0.6653434121093076
2.0067858324917753 12.389213553005392 33.90175353465395 191.42978587290054 0.6830088919303203
2.017634042638614 12.336940321692007 31.326463400820025 201.82669030422826 0.7015680526065332
2.027470501789356 12.282556176631756 28.99054909204331 212.90324528426675 0.7210835345485102
2.036281056026417 12.226093490102592 26.868250988775564 224.71495572261026 0.7416257290952097
2.044027352485098 12.167499093030115 24.94115720614964 237.3229641986881 0.7632717012716703
2.050686322035067 12.106794769925095 23.186317509124724 250.79414603188675 0.7861040777547397
2.0562590741423157 12.044050598097531 21.592823025948253 265.2016353462739 0.810211130277613
2.060707390826006 11.979203304242791 20.14123977805448 280.6270871577493 0.835692272686387
2.0640134852672105 11.912307239244447 18.82055722930976 297.16030824199464 0.862654723827013
2.066174863422544 11.843409799981798 17.61839395520293 314.9016671011055 0.8912189394149541
2.06716823286542 11.772520958798973 16.5230053191105 333.96054010880306 0.921510679660369
