M[M_sun], R[km], Lambda[1], P_c[MeV/fm^3], rho_c[fm^-3]
0.24162668629717493 15.618656898711224 2160425.4255784233 3.5677272577965504 0.1711233750220791
0.2536468399571461 15.277196317873095 1723015.584577632 3.784876764200575 0.1738888855024837
0.2660460694946552 14.981130090348776 1382823.6719819596 4.011521645645312 0.17666811319885914
0.2788251181419473 14.723333462371286 1116217.9461978415 4.247916218034897 0.179459694774989
0.2919830287635905 14.498213648618293 905724.565069308 4.494686479357284 0.18227021126450085
0.3055229671499136 14.300988609523127 738442.9102220804 4.7519913898046795 0.18509543461028932
0.3194427285860719 14.127899510663974 604908.5202477882 5.020507837409922 0.18794186485748918
0.333745474032997 13.975709382127038 497544.32830975374 5.300467247199107 0.19080626895292335
0.3484306605817653 13.841777256023196 410851.5208548227 5.592589881101228 0.19369477401853408
0.3634982411021656 13.723751132708719 335575.6047621699 5.897053622883989 0.19660263856727417
0.37895686005234314 13.61974040020429 283180.6276413513 6.214718303948775 0.19953745343799323
0.3947936537652811 13.528207167448828 236297.43527266863 6.5458327206302585 0.20249524306662167
0.4110240738279431 13.44765373829861 197766.96474224218 6.891116664425032 0.20548001177698821
0.42763699901710106 13.376835439002386 165983.5925779208 7.251267885395919 0.20849469559146933
0.44463793802045604 13.314716006563001 139719.27887496309 7.626533176548025 0.21153464515730713
0.4620227581414908 13.260372445669063 117902.7459272132 8.017886066167218 0.21460639968090017
0.4797954105541037 13.212985512467458 99743.17824848702 8.42602090388803 0.21771142727492007
0.49795878532698823 13.171816569959875 84583.24995866309 8.851362248158827 0.2208469579345244
0.5165036359538498 13.136261691299486 71887.05805384961 9.294816240747352 0.22401686091116974
0.5354282777702865 13.105711482340043 61234.00928099929 9.757253201444572 0.2272238350447342
0.5547422415716918 13.079713615282143 52264.2182676486 10.239466188201222 0.23046900930825884
0.5744315747489119 13.057737150172986 44695.265383056954 10.741955010645595 0.23374944808305498
0.5944938383674381 13.039431310052475 38295.44993126878 11.2659595836765 0.23707126012951651
0.6149392233749761 13.024437508129699 32871.39249901609 11.812413674317169 0.2404360000807135
0.6357502807800657 13.012386441847914 28267.054513783245 12.38229737483211 0.24384530283818326
0.6569275640644772 13.002983663281528 24154.539365605793 12.976267906322471 0.24729675582453434
0.6784656078648952 12.995958686949102 21008.414175570284 13.595716293775101 0.2507958580115917
0.7003644388960503 12.991032985708573 18154.7653649454 14.241811217759324 0.2543449023964412
0.7226044981052954 12.987997831298026 15712.878500456987 14.915743784926178 0.25794587631165533
0.745201261096033 12.98665042884717 13620.39908005944 15.618500622490204 0.26159823832718965
0.7681291345970347 12.986756317625192 11822.92446862079 16.351435143286643 0.26530474800004145
0.7913834112071058 12.988149750853559 10277.992053839163 17.116123790187874 0.269069678482639
0.814966423845589 12.990678256540567 8946.399226627062 17.914023478329682 0.27289546603593096
0.8388550373700986 12.994159610873412 7749.400376095208 18.746441014341677 0.2767826597278357
0.8630453450805922 12.998430812249207 6806.517860868269 19.614839728514468 0.2807327944217677
0.8875337920124176 13.003399246784985 5948.324706643581 20.52125127086184 0.28475172095263424
0.9122974656794975 13.00889734990422 5204.909856433669 21.46747224849205 0.2888424575935904
0.9373279041029169 13.014795158622455 4560.084177028413 22.454912205250338 0.2930043171790426
0.9626188672132936 13.021008668657002 3999.6059407037924 23.485748665943284 0.29724230894393217
0.9881477149788568 13.02739247214234 3512.237514481456 24.562334716843612 0.3015619487220505
1.013899405498606 13.033855280950606 3087.944108406248 25.686524269604224 0.3059642010646255
1.039870238558085 13.04031266786423 2718.0518376946015 26.86045950262532 0.31045165410956305
1.0660310880245567 13.046643502281256 2395.2738273808905 28.087155018694897 0.3150324021203723
1.0923720150701528 13.052765389141015 2112.9818415666646 29.36856085092096 0.3197061567385984
1.118877247100289 13.058601712776314 1865.8693406937325 30.70764837570106 0.3244790674291865
1.1455160671031626 13.064052158901497 1649.7452807411353 32.107599604863964 0.3293577094853546
1.172284988423312 13.069053549788954 1460.042359727065 33.60506394662066 0.3550350504576431
1.1732839265345822 13.056456269967564 1440.589900341447 36.2811705240421 2.588899802292192
