M[M_sun], R[km], Lambda[1], P_c[MeV/fm^3], rho_c[fm^-3]
0.24162668629717493 15.618656898711224 2160425.4255784233 3.5677272577965504 0.1711233750220791
0.253644052680177 15.277272086559845 1723104.4454509232 3.7848203432696015 0.17388818224279745
0.2660399820555615 14.981258466683494 1383040.8039619834 4.011403036169418 0.17666667987334148
0.2788150679270321 14.723516390082162 1116444.3732131917 4.24773140581074 0.17945755123169485
0.29196894094080467 14.498436257245867 905826.1049018839 4.494430613261469 0.1822673621361405
0.3055045837216959 14.301235622668619 738663.8751225324 4.751655780252663 0.18509180938660708
0.3194217331297332 14.12813253547337 605115.3490329895 5.0200900106359425 0.1879375297434428
0.3337194984834431 13.975992250933048 497702.760352288 5.299956200926453 0.19080112356493684
0.3484003083913629 13.842032444159818 411008.99091406906 5.591984337750555 0.1936889152200371
0.36346221579265114 13.724004420012575 340664.9886304013 5.896339975668245 0.19659593584160004
0.37891610728756525 13.620013436429257 283313.2543226876 6.213887914398449 0.19952988128514837
0.39474845458855284 13.528460420048816 236416.877792947 6.544886449286782 0.20248694554528937
0.41097321471903 13.447877104169851 197875.06128769208 6.890036240421751 0.20547081043279394
0.4275812613766169 13.377060489973381 166087.13439380712 7.2500431673869485 0.20848456381324945
0.4445762207122339 13.314936595694258 139802.45657077542 7.625167548038161 0.21152377387627236
0.46195728093772764 13.260575927228833 117982.2514223663 8.016355703185333 0.21459456108598995
0.4797222681499426 13.213152546199106 99811.68730340789 8.424313869568847 0.21769859276323003
0.49787964009147745 13.171983168077379 83766.68713845508 8.849484835378412 0.22083336466383746
0.5164172020157448 13.136403530764401 71939.82861471784 9.292738061664197 0.22400223040086495
0.5353357385665487 13.105847724840682 61276.998271182725 9.754960161476268 0.2272081356793344
0.5546424945560605 13.079823592421388 52302.24162476176 10.236960703887707 0.23045243140488045
0.574324679864962 13.057840174126518 44731.20804698589 10.739213307669063 0.23373184550067236
0.5943807398857213 13.039524984049304 38330.14374656163 11.26295779070769 0.23705250487272606
0.6148180883536553 13.024520017302402 32902.217707217045 11.809134053071535 0.24041605451161283
0.635621588313681 13.01243750720104 28292.71198042847 12.378721080160151 0.2438241273320589
0.6567920772162951 13.003014393119116 24371.271173688572 12.972411361472663 0.24727471339562349
0.6783241313363989 12.99597248044536 21028.704863887546 13.591524723838916 0.2507725204731758
0.7002119366057284 12.991051790907095 18172.284750603223 14.237262141582503 0.25432022343616423
0.7224447214751444 12.988001007624637 15730.374065376778 14.910813276620635 0.2579198068556747
0.745033385077473 12.986637951721809 13633.978591187893 15.613211334626214 0.2615712029961522
0.7679533002144703 12.986761478914602 11837.027247711367 16.345715432303646 0.2652762366753442
0.7911973281187283 12.98814422536178 10289.232783058438 17.109944941361515 0.26903963283313015
0.8147707746287981 12.990671988409137 8956.55844021333 17.907354872823387 0.2728638239796317
0.8386542475568286 12.994131955552586 7807.680675542065 18.73931223341261 0.276749906667997
0.862834831657782 12.998403400961273 6814.821818784184 19.60715805916099 0.280698331615954
0.8873150216551726 13.003361863124566 5955.703550896579 20.51297972996219 0.2847154737778893
0.9120699789973329 13.008843075252928 5211.219036973576 21.458571319926342 0.28880434639506514
0.9370905429526379 13.014735052473164 4565.542207827903 22.445418972505202 0.29296488769484635
0.9623687286519451 13.020933277523767 4004.5739171745945 23.475543966139647 0.2972008646259178
0.9878929186064065 13.027331825676226 3516.6755918540784 24.55137050221121 0.301518393102273
1.0136350197223618 13.033789308346643 3091.9736598926434 25.67484298839803 0.30591912075076305
1.0395990032344737 13.040244283681906 2721.570578241908 26.84791831158713 0.3104042757481073
1.0657496710348464 13.046567599862865 2398.404287152765 28.073695194037242 0.3149826083761833
1.0920820760950463 13.052693605015268 2115.89636002812 29.354230105850075 0.31965457485546556
1.118579131271348 13.058541576932633 1868.6518589078669 30.69227556888594 0.3244248388570131
1.1452094369606127 13.063989148099965 1652.114736152725 32.09123492034518 0.32930148204120463
1.1719721986577047 13.069002265949921 1462.0978065378476 33.55304388988763 0.3342821677612621
1.198827546364832 13.07346159482342 1295.5411276502143 35.08224716979293 0.33938047904600926
1.2257734146572525 13.077327332121799 1149.1116550512481 36.6808707785033 0.3445931947809708
1.2527697824103305 13.08049584484503 1020.2389177064242 38.353964845269 0.3499347390171937
1.2798109466957075 13.08293827043635 906.7385463004548 40.1037642795818 0.3554016652680906
1.3068541259570867 13.084517662291718 806.7876476546006 41.93574990744413 0.3610085897128083
1.3338930692029274 13.085230344423403 718.6368897788093 43.85339143122812 0.3667573643208988
1.3608988229353043 13.085034499690632 640.6450959228422 45.86139453243115 0.37265583986385376
1.3878298269920482 13.083775301857788 571.8325366199774 47.96508330925515 0.37871392452530034
1.414686423021825 13.08148570036143 510.84597818630255 50.16920252271833 0.3849372107241333
1.4414097677913542 13.078032825248217 456.90021096773876 52.4789937042026 0.39133278415544037
1.4680042391127095 13.07343614918579 409.0433719582739 54.90086129760798 0.3979122772253488
1.4944125379161668 13.06757281707859 366.5432310337372 57.44099424312925 0.4046847494013203
1.5206245646618235 13.060429586268473 328.84874685783524 60.10601950700444 0.41165997011044253
1.546607961297365 13.051945036048641 295.29810610257204 62.90304151245455 0.4188484771935213
1.5723240815365138 13.042064133283313 265.4783662639791 65.83968534576165 0.4262616401312436
1.5977478124266846 13.030737422328073 238.93561222083926 68.92414412070929 0.4339117286009715
1.6228346236062698 13.017917069309402 215.2459255044694 72.16523093225109 0.44181198699113694
1.6475867776548487 13.003579755688502 194.10719773202945 75.57243588428776 0.4499767155759823
1.6719357494854152 12.987646996098434 175.2422899003905 79.15570082137565 0.4584201568067296
1.6958724800150153 12.970102611189413 158.36955592785054 82.92520515692549 0.4671555341311292
1.7193533135897725 12.9508907687199 143.28406483796465 86.89368985006404 0.47620441727564644
1.7423388739701289 12.929950714461103 129.78143960392936 91.07274459798138 0.48558119959428486
1.7648195405773337 12.90730818365384 117.68432004082622 95.47643022266259 0.49530769158893906
1.7867462523481061 12.882871010973538 106.82895191508398 100.11844208255424 0.5054015271277106
1.808084499652096 12.856620285939556 97.08974824630432 105.01528922189438 0.5158883476614174
1.8287952409335642 12.828488786718175 88.33643423425127 110.18351034273381 0.5267906871364719
1.848875292165527 12.798526733515024 80.46695423905605 115.64072289725961 0.5381318752568807
1.868261462905994 12.766620132924727 73.38306856710375 121.40715619836855 0.5499413263947673
1.8869314498924212 12.73277356600701 67.01004154998999 127.50421837129889 0.5622487917297447
1.9048551422068978 12.696961536141858 61.25854225807803 133.95435709806796 0.5750836008420473
1.921998627554247 12.659147743938762 56.07766544296533 140.78322236523508 0.5884819413237594
1.9383145183466108 12.619273880476305 51.395295646761795 148.0185078858377 0.602482146057465
1.953810817978895 12.577422268194347 47.165036946724506 155.68873717982407 0.6171200731271936
1.9684289663740617 12.533498347370067 43.34106174544024 163.82752285124624 0.6324432143606769
1.9821444965400397 12.487502661959853 39.88202117126729 172.468610633239 0.6484930501041409
1.9949348706859644 12.439430669882215 36.745999378533725 181.65133023572676 0.6653228957294117
2.0067718643461747 12.389275699605552 33.905006833159256 191.41765520808343 0.6829870844886932
2.01762072608766 12.337005913198114 31.328858222471833 201.81361165487124 0.7015448392940269
2.0274605068492155 12.28262352487477 28.992921518855663 212.88916252841375 0.7210588976096899
2.036271322750479 12.226164208783526 26.871936191925364 224.69973850832616 0.7415994257780492
2.044017503490804 12.167574381496706 24.943635576016554 237.30653838978373 0.7632436937585878
2.0506784863278855 12.106873799939597 23.187984555046896 250.77639295306875 0.7860742060850678
2.0562540914798126 12.044132300089062 21.594741796214507 265.18238678942896 0.8101790995607054
2.0607023571088705 11.979288773782812 20.143054110968553 280.60626995748237 0.8356581276327884
2.0640103560919996 11.912395937890054 18.822599860503217 297.13772309272616 0.8626181318383658
2.066173072387926 11.843503148610667 17.619895472315637 314.8771326385 0.89117966456588
2.0671680044033454 11.772618023145451 16.524563455332608 333.93389451141536 0.9214685950677305
