M[M_sun], R[km], Lambda[1], P_c[MeV/fm^3], rho_c[fm^-3]
0.24162668629717493 15.618656898711224 2160425.4255784233 3.5677272577965504 0.1711233750220791
0.25364489436966836 15.277243585497544 1723148.7729482055 3.7848360698077412 0.17388837826650863
0.2660410084634765 14.981249428025682 1382991.198220382 4.0114360966345 0.17666707938955103
0.2788174085133284 14.723478620190837 1116356.2021503663 4.247782918837162 0.17945814870517288
0.2919731150734735 14.4983567938474 905818.3324927125 4.494501930742627 0.18226815627284512
0.30550942944090986 14.301156753394206 738629.2097091073 4.751749323922645 0.18509281983677367
0.3194281169982039 14.128054165886866 605042.8769522675 5.020206469719214 0.1879387380513808
0.33372413713261234 13.975962310624181 497669.94873181405 5.300098641673812 0.1908025577069108
0.3484087709604721 13.841961919272133 410964.3310368119 5.5921531159633515 0.1936905481956752
0.3634739671976092 13.723893383281895 340633.9760365758 5.8965388834195025 0.19659780402529323
0.37892732843507065 13.61993876873988 283269.74125900597 6.214119358979576 0.19953199178105083
0.39476105722123533 13.528416349097661 236378.16800134713 6.5451501905603084 0.2024892581999612
0.41098735552965815 13.447830034954288 197839.26282642328 6.890337370199299 0.20547337498034374
0.42759662612464083 13.377003060707134 166050.3572240048 7.250384511698069 0.2084873876672563
0.4445926591512551 13.3149086657497 139779.46196609896 7.625548163591361 0.21152680382081082
0.4619762818968733 13.260514104369125 117962.2375919358 8.016782229216963 0.2145978606096761
0.4797424867640231 13.213110941417998 99790.95058760312 8.424789632377847 0.21770216983444948
0.49790109691885714 13.171945877415412 84628.42717269283 8.850008080876151 0.22083715318480668
0.5164407185789663 13.136369630197967 71927.15925075977 9.293317258104937 0.22400630797991644
0.5353613890309383 13.105813407353871 61264.392559482636 9.755599236335971 0.22721251112410598
0.5546692347758964 13.079779268241891 52294.938113776414 10.237663823308946 0.23045711390593812
0.5743542603047682 13.057811183882853 44718.82333964621 10.73997741666113 0.23373675131709276
0.5944128959856297 13.03949970381633 38321.13970171994 11.263794381093534 0.237057731904596
0.6148516014928427 13.02450024115603 32895.146464987796 11.810048067505434 0.24042161324437034
0.6356574110783884 13.012418952456105 28284.962985044145 12.379717769676471 0.24383002880464236
0.6568300076912137 13.003001706575606 24365.07939647741 12.973486149083886 0.24728085644087183
0.6783630216349567 12.995970399912276 21022.50858565065 13.59269287279784 0.25077902441361327
0.7002540190333459 12.991052435523619 18167.94646919336 14.238529915932062 0.25432710117388435
0.722489111649252 12.988005113168448 15725.212452500688 14.912187342906138 0.2579270720620844
0.7450797811952787 12.98665236332132 13630.507634458038 15.614685380187318 0.2615787373392875
0.768001923189536 12.986758656697864 11833.214020596974 16.347309420222118 0.26528418230533185
0.7912494409613107 12.988147821797213 10287.318473887117 17.11166687234111 0.2690480060003892
0.8148263526211744 12.990661242701972 8953.68519189924 17.909213278038145 0.2728726419794934
0.8387105225238364 12.994141174186245 7805.419183771701 18.741298869794747 0.2767590342342596
0.8628952293087014 12.998399636123871 6812.23684045594 19.609298759757326 0.28070793558946056
0.8873763641857163 13.00336144222953 5953.508125910814 20.515284798970136 0.2847255749476887
0.9121310356769915 13.008865153339068 5209.412934099536 21.461051767194817 0.28881496695196346
0.9371560904189747 13.014747968914563 4563.894616163184 22.448064464909105 0.2929758755641772
0.962441852692554 13.020962504016588 4003.3087898518347 23.47838770535981 0.2972124138958482
0.9879639797701468 13.027352849667132 3515.4010227599647 24.55442587484881 0.3015305306473087
1.0137088271966488 13.033806727727317 3090.8619299955812 25.678098166876275 0.3059316831114226
1.0396746836260997 13.040262262993135 2720.5258961777477 26.851413094399025 0.3104174784082667
1.0658273499141757 13.046588860657392 2397.3462720809657 28.077445941838977 0.3149964840232521
1.0921615958044688 13.052726303180378 2114.92874820139 29.35822352452207 0.31966894871071316
1.1186627118144221 13.058551854852032 1867.7546707829736 30.696559339854566 0.32443995013668636
1.1452946135611761 13.064008217708489 1651.5391911476586 32.09579506137098 0.32931715023661345
1.172060345570423 13.069018892331204 1461.5183283221227 33.55793389552343 0.3342986475844354
1.1989184449826473 13.073476624907073 1294.968675673861 35.087490122181855 0.3393978160681918
1.2258661842217988 13.077338898017812 1148.6376389921563 36.68645146193878 0.34461119720186245
1.2528632531571602 13.080500265614715 1019.7595531779189 38.35990590957919 0.3499534468591572
1.279907432986743 13.08294063995157 906.3906958622091 40.11013325735844 0.3554213687575935
1.3069509281202067 13.084530113289974 806.4059412986169 41.942531563164174 0.3610290916854664
1.3339915552799961 13.08524038141863 718.3409926806974 43.86066180560283 0.3667789756335012
1.3610006234871352 13.08503092700679 640.3749997148752 45.8691383904014 0.37267835795090765
1.3879335557158898 13.083767558693461 571.5751941173756 47.97333373016285 0.37873740788649746
1.4147838491606484 13.081463992298847 510.6327225971076 50.17804998389628 0.38496200228536426
1.4415158971704531 13.078017138270122 456.7164628016067 52.48842415936184 0.3913586766520214
1.4681112159284775 13.073415614521181 408.85676638943795 54.9109165077655 0.3979393440427027
1.4945224815993063 13.067543761536156 366.383720030735 57.45171935219661 0.4047130695982737
1.5207339311908254 13.060396972260468 328.71546582093964 60.11746334468741 0.4116896288851702
1.546718086952955 13.051903594869495 295.1713710653658 62.915256927378366 0.4188795663956709
1.572434448055046 13.042017172004728 265.352527207356 65.85272957218886 0.4262942588251978
1.597848578764207 13.03067832988579 238.81496744782908 68.93807918262476 0.43394598368578097
1.6229459837099418 13.017856346135504 215.14566665964492 72.18012408905444 0.4418479938833253
1.6476986009189758 13.003512023598777 194.01538437976959 75.5883601228601 0.4500145989621683
1.672047339755613 12.987573115542977 175.1614196831933 79.17265223940504 0.45845970427105537
1.6959840154690344 12.970012698505846 158.29689968045653 82.94334915984591 0.4671972289969964
1.7194641995020303 12.950794958261447 143.21938746554673 86.91311984841482 0.4762484166621699
1.7424459447416407 12.92984959864049 129.72427586732212 91.09346867897764 0.4856273030462416
1.7649277436272155 12.90718970071056 117.62880368589644 95.49864805127203 0.4953564424659082
1.7868532899465317 12.882751712221216 106.78006826319972 100.14217300516746 0.505452737429173
1.8081915174061767 12.856483574127678 97.04333636634941 105.04065630816046 0.515942214722275
1.828904733762395 12.828352072606043 88.28928269859271 110.21064783260314 0.5268474244090057
1.8489785020164993 12.798361903803748 80.42864255761296 115.66988822364074 0.5381921207570037
1.8683528830925025 12.766416727538559 73.35470224451299 121.4384024299647 0.5500049322718307
1.8870281285590311 12.732589595922752 66.97889392969242 127.53763092548073 0.5623157095266155
1.904950225433608 12.696762767240122 61.230092590231365 133.99018485057317 0.575154335949911
1.9220898003216889 12.658935929419448 56.05013173391303 140.82170420562932 0.5885569185827517
1.9384009125300723 12.619036861816785 51.36890551590876 148.05987428872768 0.6025617163915308
1.9538954788292286 12.577183370392254 47.14381232184225 155.73310501511224 0.6172041546163476
1.9685086263954723 12.533240774452038 43.321797864949936 163.87516101678486 0.6325322028498037
1.9822206675997656 12.487233082696507 39.86237725141228 172.5199578151499 0.6485878570613547
1.9950057017694796 12.439139606621445 36.729400704810296 181.7065725902292 0.6654235204441165
2.0068392935538313 12.388972162773953 33.888265882596535 191.47715151443418 0.6830940417121708
2.0176829891793817 12.336687255247627 31.31554583205546 201.87775769116166 0.7016586921809577
2.027516800878366 12.282293532812107 28.980524200760215 212.95823357434568 0.7211797332721583
2.0363214925926254 12.225812326446317 26.858070229045754 224.774373963177 0.7417284349385771
2.0440620110214027 12.167207910201622 24.932606664496237 237.38710189879217 0.7633810619421373
2.0507173992224743 12.10648717433876 23.178164044556194 250.8634666405975 0.7862207179356395
2.056285447442662 12.043728252777303 21.585463168153744 265.27678538186586 0.8103361677573118
2.060726673652114 11.978867431231922 20.13402944046526 280.7083730929495 0.835825600539251
2.064027574930453 11.911959417673923 18.813860688864278 297.2484980475989 0.8627976071140395
2.0661842531412455 11.843044741086484 17.61184009772461 314.9974690612708 0.8913722995103834
2.067171506977834 11.772141265198112 16.517883731497097 334.06458618262747 0.921675012122833
