M[M_sun], R[km], Lambda[1], P_c[MeV/fm^3], rho_c[fm^-3]
0.24162668629717493 15.618656898711224 2160425.4255784233 3.5677272577965504 0.1711233750220791
0.2536368070193097 15.277464578218037 1723346.5909193223 3.7846993135382427 0.17388667366558275
0.2660262616723781 14.981556907170155 1383367.093437396 4.011148612938715 0.17666360531874875
0.27879326286954703 14.723939072123274 1116782.407603231 4.247334987125322 0.17945295337233422
0.2919407528842966 14.49888576928048 906328.9399420382 4.493881802564328 0.18226125100165552
0.30546795522468334 14.30172369360565 739045.3577438616 4.750935949577177 0.18508403384149436
0.3193747482693723 14.128684207710478 605449.5064847289 5.019193863614798 0.18792823187221744
0.3336634013173162 13.976514185950473 498078.5259216457 5.298860152398698 0.19079008817493573
0.348335345347707 13.84252474543519 411322.66008840885 5.590685657414778 0.1936763501305338
0.3633873252151966 13.724547365052624 340958.5938511596 5.894809496346556 0.1965815612559268
0.3788314087663083 13.620524536251878 283578.7385820653 6.21210712431464 0.19951364262379487
0.39465201380503123 13.528966898426008 236659.85927003666 6.542857203585274 0.20246915180186378
0.41086610554690356 13.448385665309393 198096.23085642385 6.887719377232251 0.20545107905363824
0.4274610373079992 13.37753987286021 166285.56784311347 7.247416956696064 0.20846283784524391
0.44444451780984207 13.315392453222941 139989.76098804074 7.622239254152038 0.21150046277405204
0.46181200837597264 13.261011993832902 118139.06823946041 8.013074266397242 0.21456917651950635
0.479565123820506 13.213542697247167 99957.50656384601 8.420653715176229 0.21767107351899953
0.4977089097229883 13.172338307584592 84774.52482871074 8.845459463639743 0.22080421925254048
0.5162328414146844 13.136725757346795 72058.19150416636 9.288282351635994 0.22397086192448526
0.5351357841183355 13.106142095717747 61378.554223009145 9.750043918478541 0.22717447647745292
0.554429322618123 13.080088858036731 52394.910568338324 10.231551899204751 0.2304164108756735
0.5740933771732382 13.058080343309664 44810.22444240928 10.733335444886619 0.23369410780087504
0.5941404630032991 13.039733968296108 38399.3354420774 11.256522507201199 0.23701229710492266
0.6145585325249598 13.024670213274526 32965.01414333358 11.802103353139826 0.2403732961255642
0.6353436329673566 13.012573443979822 28348.96056090813 12.371054598535638 0.24377873352548446
0.6564956363025082 13.003111029197932 24421.641394279137 12.9641443024712 0.2472274622764382
0.6780143631071981 12.996073310385345 21072.275619488068 13.582539738883192 0.25072249448416384
0.6998853106454324 12.991114524433069 18212.14783173764 14.227511081705137 0.2542673234604289
0.7221021619847919 12.988030644087804 15765.40710561535 14.900244900320295 0.2578639278663953
0.7446720010656752 12.986657173666861 13664.931897914146 15.601874186645626 0.2615132550159029
0.7675729947446757 12.986754971755683 11863.252267934298 16.333456048151113 0.2652151267201036
0.7907977719717433 12.988124147023122 10313.346707798883 17.096701829098237 0.2689752360626879
0.8143567051750586 12.990602138377822 8978.834029848886 17.89306246514245 0.27279600752714184
0.8382204478775321 12.994055571910042 7826.646975557959 18.724033908880802 0.27667971067199076
0.8623825619289108 12.998316672208638 6831.888112353648 19.590695252135607 0.28062447338338015
0.8868388522096329 13.00325763234313 5971.001605298256 20.495253252191507 0.28463779360376434
0.9115816423509686 13.00873010946145 5225.074103380811 21.43949656250743 0.2887226738075989
0.9365808664925386 13.014617944662666 4577.863415221908 22.425075370871216 0.29288039195554905
0.9618398063096021 13.020810339565774 4015.3952548706056 23.453676347052497 0.2971120537273022
0.9873457857457858 13.02719884121068 3526.3419729737125 24.527875999746183 0.3014250605973435
1.0130717037590062 13.033653994687473 3100.6027782222673 25.64981251583911 0.3058225233365613
1.039013982584011 13.040103978044513 2729.3528268712093 26.821046024410517 0.3103027570860346
1.0651509368499732 13.046431892855066 2405.232099558865 28.044855383082805 0.3148759173749519
1.0914602997469878 13.052557829799259 2121.958546661256 29.32352494523359 0.3195440551303109
1.117939155831252 13.058401069052609 1874.2344774744693 30.65933867065185 0.32430865181423457
1.1445513220635195 13.063861772771478 1657.010564772804 32.05601558332355 0.32917999206268017
1.1712975647081731 13.068884218194695 1466.6157913609782 33.51544739597711 0.3341554637004229
1.1981404572943442 13.073364574173372 1299.4657186561967 35.041938033798196 0.3392471876611061
1.225065689590159 13.077237069318835 1152.6887860818872 36.63796592085283 0.3444547903517196
1.2520448397354214 13.080416630210275 1023.4486743987412 38.307976426604796 0.3497890726486601
1.2790706553882274 13.082881821575429 909.7272812839415 40.054801124519535 0.3552501896238612
1.30609837834313 13.08448156009181 809.4219905324973 41.883615251935076 0.36085097875083877
1.3331214438900854 13.085231249003632 720.9075223338886 43.797501130646936 0.3665912294432366
1.3601167198794748 13.085051546309739 642.8255867150684 45.80186563322113 0.37248273791134073
1.3870365364450759 13.083831345784269 573.7281841616754 47.90166170688118 0.3785334061720053
1.4138710209346015 13.081554061691469 512.625716475697 50.10119324518259 0.38474664123370084
1.4405999307524904 13.078174784191296 458.45195089585434 52.4065046520918 0.39113375637764486
1.467171954660741 13.07358934167568 410.4646509491294 54.82357170992105 0.39770422755552476
1.4935781770418723 13.067775994320673 367.82506949933384 57.35855738724989 0.40446707068308474
1.5197813174282107 13.06068107601453 329.9993079317433 60.01806035443319 0.41143200806103086
1.5457589125413245 13.052242152920273 296.34775322813874 62.80915418272652 0.4186095264749898
1.5714706713657747 13.042414771134855 266.4396633389048 65.73943029274658 0.42601094002956225
1.596884002794429 13.031134931363406 239.75889119150358 68.81704503235149 0.4336484582705656
1.6219772838555186 13.018378935782236 216.0097997762485 72.05077131124959 0.4415352602173754
1.6467166496662156 13.004103547479108 194.8053341497657 75.45005527319216 0.4496855750024002
1.6710815650447635 12.988243392857305 175.8732350153206 79.0250785472782 0.4581147698982416
1.695012459831329 12.970764604920742 158.95711645896685 82.78577234992464 0.46683511794673543
1.718501273782509 12.951626554581107 143.80726197665547 86.74437873266315 0.47586630105720085
1.7415013494233893 12.930785339774632 130.26690112105385 90.91349299934136 0.4852269234057171
1.763983779466435 12.908207178122224 118.11901932945477 95.3057052686375 0.4949330829187782
1.7859171261366296 12.883844033136022 107.21982179655708 99.93609515664322 0.505008030372492
1.8072536678642248 12.857647105095255 97.45223768581148 104.82037548173473 0.5154744479256332
1.828000364938567 12.829653334237676 88.66468495785944 109.97426639238681 0.5263520173904509
1.8480760994610304 12.799730962452017 80.76303638526318 115.41663840894564 0.5376689940296362
1.8674906532399016 12.767949357260607 73.66388633384149 121.16709086322405 0.5494526413465439
1.8861796847288061 12.734204913286474 67.26062199936801 127.24682548188318 0.5617322062544613
1.904113166962461 12.698453252492607 61.4921547263403 133.67895114901935 0.5745396194805258
1.9212813070566268 12.660752950952794 56.286799053561445 140.48759320318135 0.5879059432939902
1.937639800445075 12.621030981156679 51.58536132038186 147.70072959298844 0.6018708837007135
1.9531518245322335 12.579249057162386 47.33773951291804 155.34791260213711 0.6164741764354557
1.9678044635706895 12.535454731071779 43.50029950298779 163.46066321701983 0.6317565130410956
1.9815593153410829 12.48959188303972 40.02790401048935 172.07420017391368 0.6477648143149443
1.994394694886483 12.44167340075042 36.87946081695745 181.2270151022802 0.6645499998303763
2.006251988047264 12.39158489939234 34.03101369911841 190.9606824783838 0.6821655791319485
2.017138524670111 12.339436471228701 31.4434442237963 201.32094469531515 0.700670404038403
2.0270206524455148 12.285193095306647 29.098479110346833 212.35817449584562 0.7201291796332377
2.035880016366362 12.228869209670307 26.967700622924507 224.12655328149978 0.7406086614678749
2.043672869341349 12.170412120625773 25.030926019603474 236.6875360609627 0.7621877476056264
2.0503817908198427 12.109849113451933 23.27011541054306 250.10646171534395 0.784944954515255
2.0560081627279274 12.047237818780575 21.66862937609606 264.4574371450083 0.808972741233703
2.0605022807330613 11.982512620789832 20.212130548895395 279.8211585469013 0.834368552675867
2.0638721973248417 11.915776421829486 18.88516028444732 296.28717735122416 0.8612400953353984
2.0660912306118178 11.847017403649271 17.6765586470367 313.95321741159574 0.8897006580077456
2.0671448383068523 11.776272520005797 16.577397719604903 332.93052204233726 0.9198838484016489
