M[M_sun], R[km], Lambda[1], P_c[MeV/fm^3], rho_c[fm^-3]
0.24162668629717493 15.618656898711224 2160425.4255784233 3.5677272577965504 0.1711233750220791
0.2536449175580933 15.277248892270697 1723113.7146120297 3.784837403398575 0.17388839488907504
0.26604104425345393 14.981245839615198 1382891.935510383 4.011438900129709 0.1766671132681361
0.2788173332120814 14.723489096586063 1116410.2957155106 4.247787287105069 0.17945819937049776
0.29197356688681914 14.498345790079028 888692.6249219275 4.494507978432381 0.18226822361527414
0.30551010312581733 14.3011588241924 738605.4338539024 4.75175725640726 0.1850929055227469
0.3194258376411344 14.128118083093232 605072.3128185337 5.020216345454826 0.18793884051594947
0.33372495389756246 13.97592315692525 497645.09885214426 5.300110720691684 0.19080267932257805
0.34840952868294256 13.84195534987791 410957.5688619851 5.592167428445842 0.1936906866728805
0.3634751452643438 13.7238681179593 340595.65700715134 5.896555750951989 0.19659796244872788
0.37892843914346086 13.619935230789519 283273.30456216494 6.214138985717266 0.19953217075326643
0.3947620826038155 13.528388082473812 236380.0736238463 6.5451725561495735 0.2024894543159646
0.4109885475583329 13.447801919011747 197828.6349419798 6.890362906452626 0.20547359245779295
0.42759767356040135 13.376999727120037 166046.63263006197 7.2504134582851245 0.20848762713495264
0.44459457265332536 13.314892268773411 139773.8126241145 7.625580440528834 0.21152706076598712
0.4619778954066758 13.260510209265037 117957.8717168321 8.016818399552166 0.21459814041646136
0.47974552132792697 13.213087932142772 99790.59290067726 8.424829978209969 0.21770247317870461
0.4979031098891918 13.171938668276239 84627.73274605714 8.850052453462016 0.2208374744612873
0.5164438258887357 13.136350623620041 71928.08434921641 9.293366375610459 0.22400665377021745
0.5353637688111156 13.10580511903979 61265.26763009733 9.755653431848527 0.22721288217527227
0.5546724700032604 13.079787039357567 52295.219603687554 10.237723201173917 0.2304575077960254
0.5743567151326598 13.05780876125474 44719.05353068739 10.740042215777795 0.233737167347494
0.594415082202981 13.039522118350447 38319.874207482615 11.263865327075958 0.23705817517637803
0.6148541682552409 13.024480826370507 32893.63031711734 11.81012557954294 0.24042208464688436
0.6356607733278302 13.012415628863392 28284.386651039724 12.379802293113638 0.2438305292741857
0.6568332097246444 13.003005808777475 24364.10747002307 12.973577295770843 0.24728137739795802
0.6783666814432585 12.995967788181984 21022.182997819786 13.59279193719864 0.250779575977656
0.7002573089363114 12.991059692436718 18167.967463782366 14.238637429310103 0.2543276844392074
0.7224942334953056 12.987988018525607 15724.732557325113 14.912303870663562 0.2579276881882634
0.7450831220655733 12.986643852539354 13629.751376985314 15.61481038696772 0.2615793762910287
0.7680063850927936 12.986759917033867 11833.052711032096 16.347444599102793 0.26528485613814795
0.7912536966137281 12.98813634483704 10286.750517850898 17.11181290188263 0.26904871609259984
0.8148309679247068 12.990661393308331 8953.519899790292 17.909370881794104 0.27287338979804626
0.8387152173385026 12.994132316888216 7805.18698125396 18.741467348681866 0.27675980830757263
0.8628973057221218 12.998413467978981 6811.919645764831 19.609480304719625 0.28070875006721197
0.8873817358009458 13.003367256532082 5953.2770425699255 20.515480283944477 0.2847264315931567
0.9121388567014608 13.008857506127598 5209.458508343007 21.461262125970126 0.2888158676473222
0.9371624809821265 13.014755222169214 4563.748443413863 22.44828882112938 0.2929768074121872
0.9624476961930616 13.020967737072205 4003.104721387736 23.47862887495847 0.2972133933572468
0.9879700214203923 13.027347695318774 3515.259495400378 24.554684993207584 0.30153156000153886
1.0137144469403343 13.033808109950598 3090.759440939259 25.678374230879257 0.30593274849557706
1.0396808664861485 13.040265735908191 2720.3959006695027 26.851709479514895 0.31041859809786454
1.0658346882198846 13.04658995586207 2397.354674372845 28.0777640357071 0.31499766079078806
1.0921687926648544 13.052721483261585 2114.8582088322805 29.358562199630608 0.3196701677331563
1.118669711917486 13.058553039975003 1867.702456279479 30.69692264030405 0.3244412317025632
1.1453026809737006 13.064006599635396 1651.4441005725691 32.09618180127679 0.3293184790368375
1.1720680322071164 13.06901993668561 1461.4357680902042 33.55834861206349 0.33430004522193446
1.1989254258141604 13.073474929907347 1294.9003880584671 35.08793477311719 0.3393992864082898
1.2258731912221814 13.077344470402164 1148.5771489343915 36.68692475675173 0.34461272397766457
1.2528709030629428 13.08050588453129 1019.8047652061244 38.36040976935203 0.34995503346527856
1.2799154810944562 13.082940800622152 906.3454690708911 40.11067341001203 0.35542303980945034
1.3069601342401127 13.08452666964671 806.438119903316 41.94310671648107 0.3610308304610787
1.3340000589741756 13.085242444691128 718.2972807758039 43.861278409194725 0.36678080849826017
1.361009634695734 13.085029349419266 640.3524759578164 45.86979515207783 0.37268026772464835
1.3879421704203159 13.083771257608417 571.5524106290027 47.974033455658386 0.37873939953113406
1.4147926443127048 13.081457670033249 510.6061332359248 50.17880034740895 0.38496410488661853
1.4415242769374073 13.078018479843358 456.6920043990146 52.489223969511386 0.3913608726310291
1.4681203366032203 13.073414733197835 408.8323052796451 54.91176930669754 0.3979416396240552
1.4945304245833495 13.067545914517673 366.3642887372727 57.45262896900847 0.4047154714878118
1.520743135493633 13.06039154554676 328.7093874390504 60.11843392112297 0.41169214430951084
1.5467293111114517 13.051897457608478 295.16036105214835 62.9162929460875 0.41888220314565283
1.5724438961749474 13.042013237312002 265.3447069844899 65.85383588783557 0.42629702530366226
1.5978589572580453 13.030674405816992 238.8040827572445 68.93926105616701 0.4339488889601651
1.6229553944737105 13.01785345045906 215.14047852812024 72.18138722555264 0.4418510477435854
1.6477080168166598 13.003504297955812 194.01216673745628 75.58971071322038 0.4500178119846287
1.6720562221156043 12.987563982435098 175.14724742419045 79.17408995253828 0.4584630584393467
1.6959936446787807 12.970004898722769 158.29042639303154 82.9448880259496 0.46720076530682075
1.7194737354857508 12.950786700680574 143.21383677764345 86.91476779089287 0.47625214844107955
1.7424539779817323 12.929831496183906 129.71988237152084 91.09522638370889 0.4856312132922807
1.7649369759486302 12.907181393527685 117.62347949704753 95.50053245472752 0.49536057726785643
1.7868628781293923 12.88274293971403 106.77347377008194 100.14418574827035 0.5054570808414686
1.8082008834264776 12.856471670330455 97.03902128146025 105.04280783021501 0.5159467834838676
1.82891393009714 12.828337952726052 88.29435663693867 110.21294952049229 0.526852236626115
1.8489866989131967 12.79834899566406 80.4232344594647 115.67236191446221 0.5381972305486358
1.8683613751512156 12.766402081943667 73.34964986529576 121.44105262518111 0.5500103270981032
1.8870363354043436 12.732573224218577 66.97634744154507 127.54046242930485 0.5623213765573387
1.9049583604123177 12.696745840726312 61.228657168746395 133.99322365684068 0.5751603354970241
1.922097486272162 12.658918064814362 56.04760648832874 140.82496813755637 0.5885632779633562
1.9384087326729929 12.6190185820024 51.366961809978335 148.06338289701517 0.6025684653741359
1.9539025128790264 12.577161838010166 47.14266670610039 155.73686821330085 0.6172112862536164
1.9685160207897527 12.533222430485734 43.32130175524368 163.87920161505266 0.6325397507209477
1.9822268460812889 12.487210274206163 39.86110224954746 172.52431302731767 0.6485958984844334
1.9950117203196296 12.439117280775424 36.72803904970803 181.71125820754312 0.6654320553610236
2.006844843389191 12.388947622328681 33.886940899502235 191.48219797223015 0.6831031137898738
2.01768818922228 12.336659337632797 31.313237692038687 201.88319856364728 0.7016683491929218
2.027521490194421 12.282265719548365 28.97928188964707 212.96409221329364 0.7211899826104866
2.036325767903806 12.225782879774725 26.857787400053954 224.78070461061205 0.7417393776133798
2.0440653456801954 12.16717726229839 24.930905554007502 237.39393540307586 0.7633927136946773
2.0507209266201016 12.106454746682775 23.178391190248412 250.8708523850884 0.7862331453304578
2.056288406305012 12.043693198423627 21.5852660680271 265.284778151937 0.810349443939683
2.0607291602894917 11.978831439738544 20.133334691659005 280.7170337570273 0.8358398060440906
2.064029233200051 11.911922033858103 18.813550601613176 297.2578943336183 0.862812830781028
2.06618494415104 11.843006277525827 17.61149997203323 315.0076764434126 0.8913886395215549
2.0671707336508334 11.772102780563946 16.51700036997038 334.07567200156217 0.9216925212883114
