M[M_sun], R[km], Lambda[1], P_c[MeV/fm^3], rho_c[fm^-3]
0.24162668629717493 15.618656898711224 2160425.4255784233 3.5677272577965504 0.1711233750220791
0.25364603630743593 15.277212598594733 1723034.5332718026 3.7848593491352527 0.17388866843209574
0.266043875396037 14.981178104164416 1382948.743456191 4.011485034996794 0.1766676707807779
0.2788225619873781 14.72338395847499 1116299.7196472052 4.24785917248174 0.1794590331325382
0.29197904421018783 14.498275267080407 905773.9004894838 4.494607501229662 0.18226933182471988
0.3055166665621569 14.30108468258215 738527.1196216424 4.751887796560212 0.1850943156055384
0.3194381830358974 14.127918988928993 604975.4941808356 5.020378865166725 0.18794052672068728
0.33373758971308065 13.975777090338616 497561.4198918514 5.300309499451233 0.1908046806948531
0.34842129035706154 13.841856363348683 410900.5584377443 5.592402963182271 0.19369296553624882
0.36348744597896554 13.723803349168886 340548.2928559513 5.896833334214127 0.19660056956946875
0.378943834512746 13.619834835587012 283216.7555472683 6.214461977555871 0.19953511604992702
0.3947804299840509 13.528286024096497 236329.71246200384 6.545540621841259 0.2024926817548483
0.4110081542270977 13.447711557384556 197797.42993210946 6.890783152703649 0.20547717145121613
0.4276198371205103 13.376911382596926 166015.90080579533 7.250889829709615 0.20849156803366392
0.44461853558454284 13.314809250916133 139748.58550128268 7.626111621061428 0.21153128930457452
0.4620021087235016 13.260441130599943 117926.19021326248 8.01741365585413 0.2146027452052011
0.4797728698659152 13.21305652946933 99766.55301853345 8.425493953286168 0.2177074653430575
0.49793360666427017 13.171880514291605 84602.99247257574 8.850782699606867 0.2208427617553862
0.5164771563164405 13.13630354771168 71905.81848577848 9.294174712590513 0.22401234451295096
0.5353994447225535 13.105753113667296 61247.573573149435 9.75654534194078 0.22721898866387938
0.5547102450387456 13.079731006100996 52276.79806945444 10.238694956113903 0.23046392015088235
0.5743982931277495 13.057779969561665 44705.69356154207 10.741108639534271 0.23374401411834733
0.594458906225039 13.039456068265993 38304.14399065325 11.2650329164105 0.2370654702956693
0.614901457955334 13.024466257745907 32881.597489631815 11.811401233997518 0.24042984275435064
0.6357103439131458 13.012393317974958 28274.429595340982 12.381193342759618 0.24383876578235955
0.6568858016426186 13.002982026102115 24355.556378428188 12.975077352557609 0.24728995110742394
0.6784229137238389 12.995963198167997 20852.58605013876 13.594422306563617 0.2507886534374781
0.7003167463122218 12.991045974521258 18160.311445440777 14.240406855595328 0.2543372836631616
0.7225567861824185 12.987999940322524 15718.314434134245 14.914221660158809 0.25793782826424094
0.7451492692051895 12.986642222091673 13624.486317712724 15.616867728645733 0.261589892056998
0.7680752183354577 12.986764214530616 11827.73864452108 16.349669359681574 0.26529594601164397
0.791326298241168 12.988151838307035 10282.224858524436 17.11421625033077 0.2690604027622611
0.8149043338449498 12.990689437302757 8949.076378767384 17.911964727708938 0.27288569741144325
0.8387950535329349 12.994152180716162 7801.831017652341 18.744240186033856 0.27677254806050045
0.8629781892835724 12.998440492012492 6808.94949243817 19.61246819545524 0.2807221548485786
0.8874667726418597 13.00338244929618 5950.562228112628 20.51869761313012 0.28474053042850295
0.9122285896176602 13.008878862415488 5206.974287901595 21.464724263913666 0.2888306915194063
0.9372536387092252 13.014782194306521 4561.781771777308 22.451981343714106 0.2929921440488006
0.962544550087676 13.020985704284186 4001.580765177357 23.4825981321449 0.2972295136900621
0.9880708312156075 13.027368847449132 3513.5968435219343 24.558949673795816 0.30154850155297697
1.0138175487554268 13.033833010173293 3089.4344526563605 25.682917824059576 0.3059502830967065
1.0397875855484402 13.040296125980202 2719.044007616083 26.856587546026972 0.3104370265547559
1.0659437991260141 13.046618219528991 2396.229038470594 28.082999416920817 0.3150170287424158
1.0922810982665745 13.05273982428049 2113.7354940361947 29.364136336869443 0.31969023120467843
1.1187852786905863 13.058583509955847 1866.714188270527 30.702902101193217 0.32446232463830915
1.1454225383055543 13.064043152562025 1650.5139565617974 32.102547066080355 0.32934034945974916
1.1721897519785855 13.069043077410326 1460.7602479792529 33.56517436550501 0.334323048714797
1.19905093137239 13.073491598487712 1294.2487219170973 35.095253241886695 0.3394234866004692
1.2260022792725815 13.077358062754382 1147.9342381914794 36.69471469842718 0.34463785312365247
1.25300228399191 13.080519627315091 1019.2094514355139 38.36870280660633 0.3499811474445675
1.2800500127823027 13.082951170492821 905.8279570871802 40.119563830100304 0.355450543799106
1.3071043270436091 13.084556554932607 805.9620399102404 41.95257324858683 0.3610594492218077
1.3341387231156174 13.085242390127462 717.807527809136 43.87142722158953 0.3668109760172768
1.361151347155952 13.08502555604139 639.9733504325361 45.88060497410591 0.3727117012187027
1.3880924808859647 13.083778786646166 571.1796579709278 47.98555047338505 0.3787721806813584
1.4149392591725292 13.081443204885614 510.28974015124714 50.19115088956935 0.38499871246680983
1.4416732934476904 13.07799865196473 456.3854331919338 52.50238842447978 0.39139701729207726
1.4682704226244165 13.073382886885597 408.572621971787 54.92580598386049 0.39797942383453655
1.4946825013915843 13.067504877648762 366.1375531690414 57.467600901807025 0.40475500563920963
1.520896602116863 13.060346731497637 328.4952383839356 60.134409290102155 0.41173354736702267
1.5468814844971714 13.051846039604806 294.9877073210402 62.93334554416721 0.41892560336350737
1.5725994753717907 13.041948908996089 265.1697109853814 65.87204563250644 0.42634256101187135
1.5980132214940197 13.030598426529158 238.63873009178312 68.95871455388601 0.433996709430447
1.6231224845220136 13.017776818603396 214.99359024290425 72.20217839426152 0.4419013141431174
1.647863560635469 13.003408502614668 193.87036314821228 75.61194146964708 0.4500706984273363
1.6686745355738908 12.988053016594554 177.41138525538827 79.52992314192093 1.306116472688357
