M[M_sun], R[km], Lambda[1], P_c[MeV/fm^3], rho_c[fm^-3]
0.24162668629717493 15.618656898711224 2160425.4255784233 3.5677272577965504 0.1711233750220791
0.2536441139891087 15.277292337635233 1723270.7845123506 3.7848219579737594 0.17388820236930583
0.26604006672596614 14.981268205626801 1383058.1720685323 4.011406430605541 0.17666672089309876
0.27881556836696914 14.723512155120385 1116446.351442626 4.247736694823789 0.17945761257627585
0.29196997296639104 14.498407223843271 905855.8266701386 4.494437935645251 0.18226744367258335
0.30550561574646407 14.30119384408131 738634.1570302882 4.751665384642945 0.18509191313235238
0.3194215967195964 14.128141872743695 605106.2929388912 5.020101967787267 0.18793765380350283
0.3337222525109929 13.97589354660279 489687.87054537714 5.299970825645551 0.19080127081159137
0.3484011803845653 13.842026132855645 411005.9944631864 5.592001666558017 0.19368908288101627
0.3634618390073656 13.724015926180568 340636.93841351336 5.896360397888507 0.19659612765141454
0.3789171529843097 13.619999737492043 283303.0179413627 6.213911677177427 0.19953009797308038
0.3947494151834117 13.528465535508351 236411.21656671038 6.544913527958872 0.2024871829886621
0.41097493704511884 13.44788922201986 197868.07365744872 6.890067157749577 0.20547107373773166
0.42758315901246335 13.37704697536525 166076.64355287535 7.250078213503964 0.20848485374079398
0.44457778507434437 13.314924699768055 139800.31065913485 7.62520662608631 0.21152408496266273
0.4619593484774193 13.260569614490834 117980.60715156798 8.016399494792154 0.2145948998494727
0.47972398860811394 13.213156023616936 99807.06474381633 8.424362716225042 0.21769896002179825
0.4978818444337789 13.171979345493616 84643.41218726273 8.849538556983564 0.22083375363121224
0.5164195361011349 13.136402375643573 71938.50411190104 9.292797527617918 0.22400264904488643
0.5353368805452502 13.105855910215384 61274.50561583326 9.75502577498529 0.22720858490414841
0.5546453434118324 13.079808483318907 52298.97902164924 10.237032892659808 0.2304529121539417
0.5743280119828589 13.057863266564551 44730.21979324277 10.73929175804663 0.2337323491763972
0.5943849084691315 13.039537167089419 38328.908599555056 11.263043682494061 0.23705304152616163
0.6148220105130642 13.024495899553552 32624.207241830267 11.809227893689556 0.24041662521914
0.6356252017018711 13.01244110886251 28291.33555616965 12.37882340869017 0.24382473322687823
0.656795899524509 13.003014288577939 24370.794878841345 12.972521708004892 0.24727534409115198
0.6783280226731015 12.995985963103072 21028.16620653027 13.591644655350793 0.25077318821970235
0.7002159342893748 12.991063005848519 18172.74954486825 14.237392301146876 0.2543209295581534
0.7224497158096601 12.988006647918294 15729.249331574618 14.910954348629872 0.25792055275656506
0.7450376743731334 12.98664585715628 13634.04704870426 15.613362670985905 0.26157197652723757
0.7679583023576196 12.986760646959546 11836.478505235022 16.345879082467004 0.2652770524303637
0.7912032875059886 12.988141310571676 10289.085481098831 17.110121726680557 0.2690404924802721
0.8147788075100207 12.990661559563423 8956.589647137038 17.907545669105694 0.2728647292943487
0.8386600355116356 12.994133173634225 7807.459633459997 18.739516194392312 0.2767508437631665
0.8628411413553625 12.998403515754587 6814.6311370362555 19.607377836881973 0.28069931761998146
0.8873210779309876 13.003351532825505 5955.384273138154 20.513216382242046 0.28471651082487315
0.9120766238508992 13.00884319463637 5180.484450853932 21.45882597702097 0.28880543676299897
0.9370971389973143 13.014735919432939 4565.15389531069 22.44569057359294 0.2929660157711386
0.9623803433725965 13.020944197204978 4004.5523084068773 23.47583591969175 0.2972020503360408
0.9878998495749372 13.027331517004852 3516.4472944982276 24.551684182466737 0.30151963920501723
1.0136427416293035 13.033788264782961 3091.8639403455627 25.675177181126305 0.30592041046486335
1.0396068799694065 13.04024085494962 2721.409938471632 26.84827710244576 0.3104056311953639
1.0657575688837642 13.046575286587915 2398.2776919167095 28.074080262561097 0.31498403291209365
1.0920899822054224 13.052704273680435 2115.782579543408 29.35464008726815 0.31965605053684076
1.1185877650618996 13.05853809534587 1868.594165283445 30.69271535805775 0.3244263902418143
1.1452185404798494 13.063992715613914 1652.091780307303 32.09170308186866 0.32930309059808727
1.1719819301887073 13.069009200753126 1462.0752144453081 33.553545915346575 0.3342838596388197
1.1988375487386957 13.073463526612105 1295.4242254484004 35.082785428695054 0.33938225892227625
1.2257826746607536 13.077330592892315 1149.0640680047077 36.68144370883864 0.3445950429655449
1.2527788000237967 13.080496982450777 1015.7046253482692 38.35457477217679 0.34993665961855475
1.2798205088572423 13.082939378509009 906.6971717623836 40.10441813565012 0.35540368808032674
1.3068650804616353 13.084524966220615 806.7434231558259 41.936446128647496 0.3610106944949832
1.3339014747970346 13.085238494893604 718.5877573705355 43.85413782350279 0.36675958298474476
1.3609081633090374 13.085034948343566 640.6098482781573 45.86218953181191 0.3726581516140605
1.387840408581027 13.083774563913495 571.8087078685032 47.96593031147664 0.37871633536704097
1.4146972174086307 13.081483918454243 510.81839864276526 50.17011081560077 0.3849397558608858
1.4414208054021698 13.078030297860511 456.87040310513567 52.47996184583251 0.39133544230962475
1.4680150708409372 13.073433273074444 409.015913151248 54.901893574884944 0.3979150559301273
1.494423683488604 13.067569786742082 366.52368505438915 57.44209529020103 0.4046876567722134
1.5206354746460087 13.06042458710263 328.83108386231083 60.10719433635758 0.4116630148931538
1.546619207784824 13.051940038415275 295.2882686873512 62.904295549107 0.4188516688165021
1.572335037572245 13.042060761956254 265.45683307216353 65.84102446490355 0.42626498876350644
1.5977594531144552 13.030733085838914 238.9184493469769 68.92557468917859 0.43391524521571917
1.6228459499990078 13.01791127138583 215.2420208797322 72.16675985427965 0.44181568343584465
1.6475984807901622 13.00357290446869 194.10007906478413 75.57407065200745 0.44998060464964623
1.6719467457512416 12.987639586249342 175.23367745301516 79.15744103429968 0.4584242167035721
1.6958841534114661 12.97009126531784 158.36122247865734 82.92706779383751 0.4671598144653281
1.7193646692567792 12.950880785717235 143.27913043281185 86.89568449947339 0.4762089341751724
1.7423467062758813 12.929941177221695 129.78064816382582 91.07487209014049 0.48558593248123716
1.7648306720957547 12.907294785637689 117.67746125005807 95.47871105280483 0.49531269623955576
1.7867561072568745 12.882858807391674 106.82176023356206 100.12087823667342 0.5054067842426102
1.808095315623086 12.856606576580203 97.08240565926856 105.01789333286926 0.515893877496531
1.828355870584134 12.828761970190211 88.48842081443114 110.24227723577677 0.6607572906963178
1.8412719006103053 12.798290491617646 82.61883364359002 116.4025911869016 1.0212528703376598
1.8466335029808856 12.760460350121155 78.75103336679383 123.69077796331193 1.368313505433767
