M[M_sun], R[km], Lambda[1], P_c[MeV/fm^3], rho_c[fm^-3]
0.24162668629717493 15.618656898711224 2160425.4255784233 3.5677272577965504 0.1711233750220791
0.25364146986656827 15.277358378166474 1723222.100374942 3.784789595281434 0.17388779898395826
0.2660362753004577 14.981347629032676 1383110.9411361513 4.0113383980446695 0.1766658987597507
0.2788096714035151 14.723622634381256 1116550.2387512662 4.2476306910324295 0.1794563830920404
0.29196262286684077 14.498527799676376 906022.2701813166 4.494291179298808 0.18226580950660534
0.3054954868165525 14.301333216115543 738755.967591852 4.751472893028951 0.18508983385554548
0.3194094968761294 14.128277581600837 605195.3937177213 5.019862323279189 0.18793516739923724
0.3337045918373623 13.976122982704151 497772.580028458 5.2996777194765805 0.1907983197188209
0.3483842392738836 13.842162306541196 411086.39101091906 5.5916543672398 0.19368572266457376
0.3634430947922538 13.724150816449708 340733.9533832455 5.895951103364786 0.19659228347063182
0.37889530098245 13.620129589398546 283369.3091585586 6.213435434898871 0.199525755216933
0.39472309971010827 13.528607447836121 236465.40185933563 6.544370832710409 0.20248242428447843
0.41094595723670496 13.448022971695172 197928.85684373844 6.889447533519465 0.2054657967577728
0.42755123724694766 13.377176580277252 166127.503928212 7.249375846426588 0.2084790432379641
0.44454370274975746 13.315031972805368 139849.55268075064 7.624423457728768 0.2115178504389611
0.46192091689151826 13.26067531003101 118021.7882716322 8.015521865754 0.21458811067932998
0.47968197381559247 13.213288975946949 99848.27464352318 8.42338378363425 0.21769159981723815
0.497835415518946 13.172086221495968 84678.95250132655 8.84846193055961 0.22082595839589572
0.5163697197914483 13.136490365091777 71967.44659055438 9.291605785423712 0.22399425910554274
0.535284698277249 13.10592432711277 61303.180369872796 9.753710837603558 0.22719958214679617
0.5545871070975071 13.079903576936863 52323.74910986892 10.235586189774173 0.230443277677084
0.5742655400786455 13.05792068402548 44348.93414582223 10.737719575698407 0.23372225527872048
0.5943192068279792 13.039575476723641 38346.39376440302 11.261322379129338 0.23704228679158962
0.6147515385525206 13.024546492051803 32918.24085791593 11.80734730184214 0.2404051880830095
0.6355497236003772 13.012477608651874 28309.138589986334 12.376772726621441 0.24381259098618258
0.6567173238542046 13.003047984645548 24384.03143567088 12.970310352694145 0.24726270489100466
0.6782448532549614 12.996008118133036 21039.34999430651 13.589241227630742 0.25075980657807395
0.7001282379715817 12.991074289096558 18182.729564740486 14.234783915749784 0.25430677894007186
0.7223574078671008 12.988012476650061 15738.826024129401 14.908127292448576 0.25790560504486765
0.7449416575326183 12.986654982259429 13642.607863215188 15.610329931233444 0.26155647517331876
0.7678568918705708 12.986758767925256 11842.861261928538 16.342599593174057 0.2652607049987627
0.7910964316750588 12.98812011692065 10295.025057227316 17.106579030757157 0.26902326554965417
0.8146666523165954 12.990643223133379 8962.083406119242 17.903722218459908 0.2728465872944243
0.838543937094163 12.994116542089737 7812.074517795991 18.73542894674183 0.27673206497501124
0.8627217425987456 12.99837727868575 6819.226809943479 19.60297365325932 0.2806795588256399
0.8871911195445197 13.003334729470781 5959.768423474685 20.508474068068995 0.2846957292688594
0.9119456057916014 13.008823702076485 5214.79623329761 21.45372288647669 0.28878358680707694
0.9369602245169876 13.014702843557476 4568.385546814482 22.440247962941307 0.29294341026504434
0.9622333657410882 13.020902788178542 4007.3076478793273 23.46998549533039 0.29717829002437884
0.9877548004796971 13.027298645834051 3519.3608733332035 24.545398410602836 0.30149466881739795
1.0134913950482163 13.033754132572719 3094.1545434180416 25.668480391321836 0.305894566263279
1.0394500767713812 13.040213614762784 2723.5680850159524 26.841087434437988 0.3103784699242708
1.0655987926148198 13.046545510526313 2400.0315764553275 28.066364066359537 0.31495548734708484
1.0919230106972895 13.052668082613328 2117.308349664179 29.346424708104223 0.3196264802161191
1.1184168162738395 13.058502284600461 1870.0622893955754 30.68390272463435 0.3243953031063688
1.1450434517416508 13.063965250147179 1653.2623599376577 32.082321954119784 0.32927085796714606
1.1718019724691504 13.068972108085255 1463.3248729527286 33.54348626788363 0.3342499575896765
1.1986518333628553 13.073440650089351 1296.4878761051693 35.07199978922732 0.3393465937365499
1.2255940688694744 13.077309118942331 1149.9716310885815 36.669963373227525 0.3445580091799812
1.2525849068560853 13.080477898068578 1021.0415759867624 38.34227744509356 0.34989773075570163
1.2796239387829138 13.082918117587232 907.5077993029428 40.09131634794278 0.3553631555261847
1.3066626146216338 13.084513909735369 807.4526370470808 41.922495504281144 0.36096851964401333
1.33369597789955 13.085236061798195 719.1859039767439 43.83918197563389 0.3667151264702835
1.3607000004261167 13.085038781388608 641.2065150445296 45.84625979411435 0.3726118301007273
1.3876271889749974 13.083787800007627 572.3144284017422 47.94895865327775 0.3786680285492365
1.4144809958834457 13.081506106759122 511.2769493863636 50.15191116597975 0.3848887584370049
1.4412092202246445 13.078085564992257 457.29208718661846 52.460563092410084 0.3912821806008116
1.4677943643341391 13.07347770184515 409.38886809086966 54.88120983525927 0.39785937902294444
1.4941999917081237 13.067622469680247 366.8733198896409 57.4200337260286 0.40462940208794507
1.5204103319684747 13.060492245403292 329.14000181570975 60.083654530632586 0.41160200722994933
1.5463912404191824 13.05201911338883 295.5671045581219 62.87916882131151 0.41878771929659914
1.5721066959467866 13.042153460431976 265.7135260965357 65.81419311711 0.4261978936753508
1.597528730770242 13.03084238388349 239.14458127680032 68.89691117534521 0.43384478473960103
1.6226161710082192 13.018041661765581 215.43584391516458 72.13612586402436 0.4417416202403123
1.647368410107919 13.003714943814183 194.28679485516594 75.54131609906713 0.44990268234442893
1.6717178835088176 12.987800602366361 175.40141192216436 79.12257393764666 0.45834287216598607
1.69565546159688 12.970272536294356 158.51617469913623 82.88974803219212 0.4670740537617598
1.7191282071314915 12.951073099421974 143.42654756492297 86.85571999602828 0.47611843423777905
1.7421251974917793 12.930163163029237 129.9142621384898 91.03224620864007 0.4854911055849217
1.7646101466180812 12.907543802544222 117.792311428028 95.4330132419499 0.4952124250387147
1.7865360369137888 12.88312199981558 106.92652018030415 100.07206870852471 0.5053014553984068
1.807876900063704 12.856887620079341 97.18194387916849 104.96571903078737 0.5157830852566986
1.8285909264340194 12.828778564154277 88.41688284819068 110.13036248787743 0.5266793756332412
1.8486745864180805 12.79883958546491 80.54041725352238 115.58373171117357 0.5380141511325733
1.8680661658745528 12.766958657033284 73.45424688189496 121.34609939950265 0.5498170371270971
1.8867417737568366 12.733138278692746 67.07270162388127 127.4387532339302 0.5621174037214013
1.9046716004889437 12.697347689152148 61.318064972167086 133.88434918160712 0.5749453834776885
1.9218190370049708 12.659565249924654 56.128464277989835 140.7080291786926 0.588335436401851
1.9381469191990475 12.619734837010933 51.442831763464675 147.9376792362769 0.6023266681285587
1.9536385934399774 12.577869831334477 47.2087662901261 155.60204476296462 0.6169557823192117
1.9682707016327092 12.534001832505794 43.38178706711241 163.7343139433108 0.6322689059732693
1.9819975343114369 12.488035880168216 39.91746998912176 172.36828336424594 0.6483078067715019
1.994796040490643 12.43999058188908 36.78092619552643 181.543393495773 0.6651262874609583
2.0066363378526852 12.389850899871957 33.938196453912056 191.30140823360765 0.6827781059085053
2.0175003882728904 12.337629328619508 31.357303896365423 201.68828143232275 0.7013223905118103
2.0273497970915604 12.28328250298733 29.018926317310495 212.754211367376 0.7208228086273258
2.03617184607619 12.226851187535072 26.89514216559209 224.55391764303494 0.7413473709408909
2.0439299438257366 12.16829599077455 24.96540789207534 237.14913756771665 0.7629753108978777
2.0506031252571275 12.107629325173589 23.2089783729512 250.605997990745 0.7857870597609502
2.056184858352371 12.04490010079736 21.613185754321847 264.99794090604684 0.8098721708946777
2.06065277228427 11.980112742478264 20.159638033262958 280.40673486164695 0.8353307460760121
2.063981288458901 11.913271288248982 18.838980418912772 296.9213096691868 0.8622675033150335
2.0661521727224272 11.844395382215982 17.63486810315194 314.6420435101521 0.890803333109868
2.0671625881929963 11.773542972275225 16.537989954744933 333.67857952993563 0.9210653454489001
