M[M_sun], R[km], Lambda[1], P_c[MeV/fm^3], rho_c[fm^-3]
0.24162668629717493 15.618656898711224 2160425.4255784233 3.5677272577965504 0.1711233750220791
0.2536373731803855 15.277456836070321 1723440.4772094693 3.784690921418806 0.17388656906186245
0.26602415674544827 14.981640314428201 1383380.0425580821 4.011130971832518 0.17666339213639143
0.2787919403564669 14.723994599184662 1116835.26563879 4.247307501033572 0.17945263457509059
0.29193836685553015 14.498896330796432 906324.4018386554 4.493843751086793 0.1822608272896219
0.305464629378562 14.301759757846781 739090.002493104 4.750886041682414 0.18508349474098026
0.319371850373483 14.128702616516147 605451.0681561362 5.019131732569921 0.18792758723864647
0.3336615087880308 13.97647114059641 498084.4030899848 5.298784163636356 0.1907893230941871
0.34833091172242125 13.842614008122462 411364.1876281885 5.590595622136399 0.19367547901444762
0.36338286129938513 13.724569144612927 340971.86937654356 5.894703393182861 0.19658056471255955
0.37882581316127684 13.620612935185115 283616.3550597452 6.211983670621257 0.19951251687475915
0.39464476741246957 13.52903520751004 236685.64533641073 6.542716528460517 0.20246791827106245
0.41085851029926584 13.448416830185385 198113.97783589814 6.8875587668033225 0.20544971122782793
0.4274537753843594 13.377564238732763 166310.943043568 7.247234905451895 0.20846133178195664
0.4444349802191917 13.315412926157121 139998.4935003653 7.622036266111778 0.2114988468587307
0.46180269141123065 13.261047611818322 118156.2191440186 8.012846803420036 0.21456741690948175
0.47955448034374315 13.213571261301638 99968.31121924402 8.420400005512297 0.21766916597700636
0.497696332748858 13.172375685511737 84783.00393213925 8.845180443452016 0.2208021990271652
0.516219986964282 13.136747171383517 72066.31744153277 9.28797350875008 0.2239686876513143
0.5351241140278101 13.106138961224724 61385.063882727656 9.749703161232281 0.2271721434729717
0.5544161079676033 13.080096509134448 52400.71654533096 10.231177008943245 0.23041391425277705
0.5740773454597354 13.058084019287966 44814.74516145312 10.73292805085391 0.2336914922049902
0.5941235298503146 13.039748255332384 38404.52226071427 11.256076487455516 0.23700951036548035
0.6145406471582706 13.024700227243592 32968.15496272174 11.80161607586722 0.24037033266674257
0.6353245833263237 13.012601617281238 28354.045292439736 12.370523267860122 0.2437755874771284
0.6564755054643537 13.003127283245703 24427.343379955786 12.963571358144673 0.24722418756161466
0.6779932642571272 12.996069458925586 21076.36061351543 13.581917051625853 0.25071902752834285
0.6998633708879731 12.991126543283755 18214.68832993633 14.226835316730975 0.25426365740246337
0.7220783947126668 12.988041161734051 15766.996195754262 14.899512508742205 0.2578600554360448
0.7446470310828547 12.986665336550116 13570.773535019076 15.601088532108758 0.2615092392710557
0.7675480971714481 12.986732873299013 11865.09175420011 16.332606500627247 0.265210891938771
0.7907735402629149 12.988104933856768 10246.424107727886 17.095784130062665 0.2689707736030369
0.8143282914750859 12.990606504936192 8980.531019922451 17.89207207395077 0.2727913081917537
0.8381887736399357 12.99406455055881 7827.674941233162 18.722975216277934 0.2766748465272629
0.8623512099373499 12.998310698289691 6833.084374633916 19.58955450562551 0.28061935557322054
0.8868056924293048 13.003240226097944 5971.942557532709 20.49402496823896 0.28463241107303583
0.9115461004809412 13.008718895634647 5225.968697964973 21.438174882365928 0.2887170147559744
0.9365458112704026 13.014610943429018 4578.79285881963 22.423665796823084 0.2928745373874429
0.9618038975560844 13.020792666042917 4016.2276264838238 23.4521612080637 0.29710590029767703
0.9873082539274638 13.027189354546614 3527.1291678450616 24.52624817338221 0.3014185940159649
1.0130322444336977 13.033642422590846 3101.2557608904854 25.648078298721998 0.30581583065871504
1.0389741841060496 13.040097789812208 2729.808095282575 26.819184238354914 0.3102957235935675
1.0651077085480094 13.046428718899934 2405.6960583626665 28.042857324653397 0.3148685256879991
1.0914163583464334 13.05255284786164 2122.500667552384 29.32139769019779 0.3195363983183233
1.117894796618031 13.058391994346943 1874.5758635185775 30.657056850828813 0.3243006025469506
1.1445109636207342 13.063859893781636 1657.404448524369 32.053568507508515 0.32917152912257586
1.171250491128643 13.068876494998788 1466.929882626232 33.51284287106333 0.33414668618292565
1.1980930442303768 13.073363140460513 1299.8518901899963 35.03914565196381 0.3392379540113962
1.2250170253106307 13.077236218995479 1152.903580268023 36.63499377761117 0.3444452026776999
1.2519943304117458 13.080418713589692 1023.683663846717 38.30479036877743 0.34977897991591633
1.2790199048052013 13.082878376293005 909.85237940006 40.051409449077774 0.3552396969131299
1.3060469074586134 13.084483918708866 809.5576910236765 41.88000395679466 0.3608400612585205
1.3330691640201722 13.085229225167664 721.132383910601 43.7936297808478 0.36657972178951886
1.360062855983568 13.085052195673896 642.9796135046772 45.797742331512026 0.37247074791007884
1.3869809306142513 13.083840945757995 573.8439289286631 47.89726886465521 0.3785209027249899
1.4138149020153108 13.081558179416398 512.7335451116289 50.09648276081886 0.38473344193740755
1.4405433196370794 13.07818508896917 458.5649000227707 52.401483994354166 0.3911199715325752
1.4671152956411313 13.073598344331161 410.56083751270404 54.8182186785572 0.397689818157815
1.4935204669609792 13.06778899190121 367.90423873895907 57.3528479852651 0.404451994716241
1.5197227497356247 13.060703681327343 330.0648181751729 60.01196862737325 0.41141622024879704
1.5456992073104006 13.052263130365738 296.4144361744249 62.802652041939574 0.4185929780097439
1.5714107294375492 13.04244341819975 266.5075080978927 65.73248732084096 0.42599357827361717
1.5968245937339434 13.031161869650399 239.82947070380374 68.80962826884951 0.43363022642744115
1.621917936701894 13.01840906790596 216.07240640421267 72.04284501619418 0.4415160969697657
1.6466568743729295 13.004139585095459 194.85210632529143 75.4415806661818 0.44966541411315647
1.6710220352184975 12.988286642479192 175.9224479054737 79.01601351909316 0.45809353977025236
1.6943147054836534 12.970674508042729 159.3516307662556 82.81825422389007 0.5359485332358396
1.7154320551885522 12.950007983345293 145.2463876469355 86.91188680249483 0.6167803095863165
1.7345899716998063 12.925695183079691 133.04241955685393 91.31444362515828 0.6978565685446002
1.751806746688516 12.897265216883069 122.37459077813328 96.04475264776215 0.7794604976650744
1.767292526026325 12.86480669603315 112.95531212435745 101.12273612127431 0.8617779112703403
1.781138169759874 12.828262619892564 104.57295070011061 106.57122533093988 0.9452051381234953
1.793436612120845 12.787642535142595 97.05507534450773 112.41427454551601 1.0299936791177866
1.8042849528938152 12.743003670290086 90.2701176474811 118.67844792613653 1.1164569704160843
1.8137846711545464 12.694547752303524 84.11061288936563 125.39298510480451 1.2049317119084808
1.821975948761372 12.642298518651597 78.51339432182054 132.59001355670455 1.2957700153739367
1.8290006585659417 12.586597193090444 73.38124225417323 140.3054050133023 1.3893667694334275
1.8347383247134186 12.5270711284425 68.68416496161856 148.57678316845232 1.4860492342115372
1.8394099377966173 12.464360570857885 64.3631109864231 157.44745151256552 1.5862520847501793
1.8429901849502013 12.39841295302097 60.380994183104725 166.9642482577814 1.6903865392910147
1.8455027547654008 12.32927695256084 56.70692415870881 177.17811699902919 1.7988449486953717
1.8470065753886935 12.257253249560643 53.30924502140086 188.14631160627462 1.9119806350784743
1.8475189739107534 12.182396063027122 50.1696228454706 199.93022100844365 2.029755539669132
