M[M_sun], R[km], Lambda[1], P_c[MeV/fm^3], rho_c[fm^-3]
0.24162668629717493 15.618656898711224 2160425.4255784233 3.5677272577965504 0.1711233750220791
0.2536435176037147 15.277306797971061 1723226.625666002 3.7848107795277808 0.17388806303536936
0.2660383200067379 14.981323107850297 1353473.7333616335 4.0113829312835945 0.17666643691766137
0.2788131001321285 14.723557551829849 1116458.7845730418 4.24770007960979 0.17945718789497142
0.29196661619495046 14.498467395630454 905894.684604849 4.49438724373087 0.18226687920635176
0.3055016942576206 14.301277139078996 738684.366052754 4.75159889480699 0.18509119491522633
0.31941713847190184 14.1281974108305 605113.441603727 5.0200191902532 0.1879367949546377
0.33371428893604443 13.975991815093426 497718.58600751124 5.299869581115766 0.19080025144717147
0.3483951650468021 13.842075920899788 411035.44960323116 5.591881702254873 0.1936879221933823
0.36345728619320156 13.72403324332227 340680.38024057116 5.896219018660189 0.19659479978778316
0.3789097544726594 13.620041912345396 283330.15562224656 6.213747172149318 0.19952859788530097
0.3947405791221964 13.528503957318023 236420.6228033311 6.544726067934139 0.20248553921749127
0.41096470304564275 13.447938572490118 197886.89043567126 6.889853123847628 0.2054692509352068
0.4275731357076 13.377078709813 166103.5942705911 7.249835597279687 0.20848284663894776
0.444565122828143 13.314995287500334 139820.27271975376 7.624936098110062 0.21152193138602288
0.4619469478457264 13.260596860027796 116677.57644028295 8.016096336447196 0.21459255467458146
0.47970967565661987 13.213191332622872 98761.36676914492 8.424024563559326 0.2176964175864808
0.4978660973900563 13.172010686296481 84656.76546130414 8.849166656821605 0.22083106091513893
0.5164030873069531 13.136423111124115 71947.76339615509 9.292385861509395 0.22399975088981802
0.5353201717280275 13.105864732954936 61286.38624403911 9.754571551766476 0.22720547505155808
0.554626197980873 13.079838575853982 52308.80946590814 10.236533151565956 0.2304495840732063
0.5743060691883778 13.05786065118491 44736.623843821915 10.73874867045301 0.2337288623858187
0.5943622674692823 13.039553130657067 38334.80879337513 11.262449081231322 0.23704932644671195
0.6147972376708536 13.02451826512751 32906.93627889318 11.808578266190771 0.24041267440006783
0.6355976150950841 13.012441526512394 28299.0951732181 12.37811502325049 0.24382053882412558
0.6567680744101452 13.003042307283255 24375.40163043858 12.971757817638876 0.24727097800706782
0.6782982421594389 12.99599507380878 21031.364438112836 13.590814412768326 0.25076856565143846
0.7001859801117958 12.991056101675559 18039.530748112382 14.236491254792075 0.254316041337703
0.7224184671175208 12.987999252181732 15733.01119443035 14.909977760928903 0.25791538916926254
0.7450045784443939 12.986654154943135 13540.674699400199 15.61231502839816 0.26156662167325784
0.7679228127318087 12.986762857443365 11837.887486728638 16.344746197912592 0.2652714052849972
0.7911667357816624 12.988129896179057 10291.333180123393 17.10889791453761 0.26903454149623857
0.8147395804783562 12.9906616377784 8958.274891703906 17.906224866806532 0.2728584621818811
0.8386199449383467 12.994128583578943 7809.249001917821 18.7381042601745 0.27674435665599
0.8627982539062936 12.998391362873956 6816.147625349425 19.605856412461765 0.2806924919481202
0.8872668426554419 13.00336732226167 5956.3733583814455 20.511578145169175 0.28470933181600716
0.9120313702028909 13.008844967781027 5212.4292647421 21.457063103426464 0.28879788864877254
0.9370502510973914 13.01472834599624 4566.434106262591 22.44381040688234 0.2929582066290274
0.9623263472099455 13.020923360218996 4005.609915875815 23.473814865555862 0.29719384223468126
0.9878499494531644 13.027317530517234 3517.454611176977 24.549512728185245 0.3015110130479946
1.0135901274511643 13.033775602521663 3092.638408218545 25.672863731990653 0.3059114824191037
1.0395519202816124 13.040230767731249 2722.2052668969814 26.845793376676678 0.3103962481266517
1.0657018591905658 13.04655962782053 2398.9692977184745 28.071414634192333 0.31497417159365354
1.0920314043888097 13.052689100698986 2116.4020220805555 29.351802003603357 0.31964583517823975
1.1185287573338343 13.058523414544936 1869.1125328878516 30.689670936082376 0.32441565084602253
1.145157640340332 13.063979447369114 1652.5060405024315 32.08846225775912 0.3292919554456552
1.171919537179606 13.06899400419338 1462.5440794360923 33.550070675639624 0.33427214772269503
1.1987733895010264 13.073453874797188 1295.7856032752936 35.07905937150328 0.33936993786127945
1.2257172444234796 13.077320292760025 1149.3820974759367 36.67747764666005 0.34458224906289
1.2527114631622214 13.0804853703413 1020.4595497304499 38.35033284864029 0.34992324850821765
1.2797513946864192 13.082933156828663 906.9650131492582 40.09989188603247 0.355389685376132
1.306795463923503 13.08451697342338 806.9844084033065 41.93162661775787 0.3609961243834111
1.3338289133335504 13.085241692735755 718.7326471325011 43.848971018403674 0.3667442245679154
1.3608376039474592 13.085035176927283 640.827975922226 45.85668625839024 0.37264214884251345
1.3877668693633163 13.083783552447528 571.9732429018495 47.960067064420144 0.37869964667322087
1.4146223596180294 13.081495942003416 510.9775421711121 50.16382330480844 0.3849221375627477
1.4413450935377634 13.078043824743078 457.0143042973287 52.473260052256414 0.3913170416954099
1.4679378057619017 13.073449639017108 409.14415579693616 54.89474782477558 0.39789582085596803
1.4943467582903056 13.06758720437127 366.6442793564734 57.434473506247926 0.40466753106334347
1.5205574869971583 13.060447272601154 328.9409270077797 60.09906182249652 0.4116419380128925
1.5465403800426023 13.051967954641235 295.3841551512993 62.89561475385621 0.418829575502435
1.5722561182590464 13.042093380077262 265.5486992118854 65.83175472083674 0.42624180862734157
1.5976798681881668 13.030769982042045 238.99809977013086 68.91567192585347 0.4338909023028848
1.6227674401017058 13.017956247174975 215.30256028562002 72.15617628161024 0.44179009574042816
1.6475188635305862 13.00362300675555 194.1665757848772 75.56275441069417 0.44995368357973775
1.6718681341474686 12.987693956322554 175.29361371024638 79.14539489604022 0.4583961132008295
1.6958054997946077 12.970152949520669 158.42135191059643 82.91417423499416 0.46713018510465826
1.7192704696423924 12.950914865609233 143.33068700030603 86.88187715052281 0.4761776673231443
1.7422723558787199 12.930017635920112 129.82056271244008 91.06014520376108 0.485553170579815
1.7647526406952128 12.907377248567895 117.71780363944328 95.46292276650809 0.49527805321406765
1.7866801625434814 12.882951904482763 106.85550953815334 100.10401480336272 0.505370393685125
1.8080201287314608 12.856704220963808 97.11830035262797 104.99986731110417 0.5158555992015289
1.8287321220184185 12.828579781427525 88.36010047164658 110.16701220254805 0.5267561939139768
1.848813508623881 12.798622648550795 80.49240440790933 115.62299205116382 0.5380952494472914
1.8682015696286538 12.76672342058235 73.40597267466877 121.38816038765724 0.5499026578853472
1.8868733541091245 12.732886181764643 67.03171919729571 127.48385095265807 0.5622079144830471
1.9047983692448451 12.6970815346443 61.27908963877115 133.93257624106587 0.5750405986674291
1.9219427873277948 12.659277585856257 56.09278608347015 140.75982814638735 0.5884363604890722
1.9382587890144611 12.619400365824891 51.40946607375452 147.9933602188137 0.6024337732687699
1.9537587276380142 12.577570837293134 47.17720172263765 155.66176502595386 0.6170689581956589
1.9683785260304374 12.533654596188823 43.35292701367759 163.798562771076 0.6323891166902438
1.9820983753810586 12.48766865576557 39.893724585233635 172.43739599611266 0.648435415689625
1.994892773900222 12.439605406917739 36.75764421158865 181.61774789261744 0.6652617250257925
2.00672433717449 12.389444028651546 33.91675583240212 191.38148709552783 0.6829220646389806
2.0175833507901757 12.337199959126984 31.33879620750522 201.77461722443937 0.7014756280264937
2.0274239744574745 12.282828989746212 29.000520245269662 212.84717446415678 0.7209854420033384
2.0362397147460753 12.226377330471895 26.878737222379943 224.6543682051515 0.741521002128898
2.0439904137958567 12.167798030521034 24.950645664312237 237.25756482929847 0.7631601893391726
2.0506552865335963 12.107109828663171 23.1954968027881 250.72342037117278 0.7859850073523256
2.0562278449287548 12.044356829916095 21.59996927317282 265.12499767316825 0.8100836007370102
2.060686508400345 11.979544796849407 20.148508870538052 280.5442042113474 0.835556325363451
2.0639984663221207 11.912664079882287 18.827065143379812 297.07038656295157 0.8625090345946965
2.066166602116145 11.843780281417272 17.623848663326463 314.80398465697385 0.8910625690345574
2.0671662807315885 11.772903684294832 16.527820582519528 333.854452667168 0.9213431230205116
