M[M_sun], R[km], Lambda[1], P_c[MeV/fm^3], rho_c[fm^-3]
0.24162668629717493 15.618656898711224 2160425.4255784233 3.5677272577965504 0.1711233750220791
0.2536402206291308 15.277409223077465 1723313.3744097229 3.7847676072293552 0.1738875249134965
0.2660337442717084 14.9813967853619 1383199.5228950672 4.0112921754301425 0.17666534018673286
0.27880536218429713 14.723705723252 1116646.055673181 4.2475586707511575 0.1794555477653099
0.29195707388083486 14.498625832687594 906124.1501084977 4.494191472185939 0.18226469924476274
0.3054885837018422 14.301434571229782 738851.515291562 4.751342114381827 0.18508842119656174
0.31940104747625525 14.128375146978854 605203.5390051253 5.019699510490908 0.18793347815371886
0.33369608222686825 13.976188968001297 497864.29690620105 5.299478587100831 0.19079631478621747
0.3483718763928963 13.842274647185603 411159.3719023926 5.591418418855366 0.1936834397990472
0.3634293251316047 13.724251489367262 340791.3683576488 5.895673039222484 0.19658967183336265
0.3788779122329724 13.620272966089534 283424.92982470297 6.213111891153642 0.19952280488754853
0.39470628189353535 13.528690833462287 236518.79934888546 6.544002146042701 0.20247919140047393
0.4109265250830718 13.448107451056131 197963.85720926986 6.88902658799979 0.2054622118090843
0.42752949481325564 13.377261636341162 166167.61684632962 7.248898693321728 0.20847509587261145
0.44451894799976027 13.31512924119448 139884.4639731321 7.623891416539048 0.21151361504898955
0.4618946952708202 13.260751262525535 118054.03155517907 8.014925658465772 0.21458349853394265
0.47965507372648086 13.21330881506172 99876.11334401029 8.422718762765557 0.2176865997899877
0.49780377889789573 13.172151189540028 84699.33205888656 8.847730548718364 0.22082066287886967
0.5163365149996808 13.136549203570297 71985.69234883491 9.290796209291942 0.22398855963910388
0.5352475587897646 13.105985032638108 61318.29095634984 9.752817580036059 0.2271934664326603
0.5545496993326482 13.079918912829397 52343.50406471596 10.234603430292411 0.23043673288231117
0.5742235759935093 13.05795173367189 44766.15370677307 10.736651584675453 0.2337153984455309
0.5942734159282521 13.039613805340927 38024.515586688234 11.26015309945498 0.23703498111102458
0.6147041328413115 13.024601554260082 32929.00000569945 11.80606982854028 0.24039741891391705
0.6354999137024209 13.012485619075653 28087.247794828727 12.37537972404149 0.24380434291454176
0.6566638649205659 13.003079738545871 24393.253864935527 12.968808217554688 0.24725411930252703
0.6781886912438794 12.996017866839468 21047.91197805877 13.587608634882729 0.25075071673905075
0.7000690609443762 12.991083048231799 18189.93019323058 14.233012115027488 0.2542971668346807
0.7222956381911524 12.988018754941029 15744.664849001207 14.90620697129762 0.25789545158307203
0.7448756779755145 12.986645860578037 13647.968161753784 15.60826991084542 0.2615459457155607
0.7677880809567678 12.986747898231485 11847.727999876066 16.340371984484527 0.2652496009281489
0.7910249509430131 12.988114089913172 10300.416887969275 17.10417265821364 0.2690115641748411
0.8145908078306066 12.990645598830291 8966.626411145708 17.901125165765855 0.2728342644650891
0.8384636181833348 12.994110484000473 7815.575097858743 18.732652731136312 0.2767193097007564
0.8626381171936082 12.998364560435045 6822.225405861663 19.599982188275085 0.28066613800887386
0.8871028018501488 13.003309769541632 5962.211508568613 20.50525296162915 0.28468161388099955
0.9118560755681832 13.008794649612042 5217.034733969219 21.45025676121196 0.28876874586243817
0.9368677360469154 13.014679108731196 4570.713850120009 22.4365512546134 0.2929280562432367
0.962137418823953 13.02087156021403 4009.1897032010484 23.46601182828634 0.2971621517818214
0.9876549113394122 13.027273909477895 3520.884535182887 24.54112908892878 0.30147770882912905
1.013394383246062 13.033738576701394 3095.977213741304 25.66393193717623 0.3058770129027483
1.0393438288020893 13.040185312130873 2724.9965351145042 26.836204261636954 0.3103600221767392
1.0654895399083815 13.046521449493879 2401.419337343683 28.061123326719233 0.3149360995723071
1.09180957595836 13.052639588346068 2118.6175011668593 29.340844970864012 0.3196063965880305
1.1183009458885993 13.058476243435681 1871.0855051961528 30.677917398279398 0.3243741894798123
1.144924508507057 13.06393884851013 1654.2084868712845 32.07594009822474 0.3292488987860355
1.1716787013233336 13.068955114262318 1464.145669204133 33.53665411541498 0.33422693253143276
1.1985256902954313 13.073413825249421 1297.2086908175213 35.064674638789256 0.339322371449904
1.2254651962302323 13.077287608991744 1150.6380170326058 36.662166475185586 0.3445328575938318
1.2524528546604594 13.080460041918512 1021.6102029061062 38.33391912893534 0.34987125344243747
1.2794884330030227 13.082911662106707 908.0172394957318 40.08241839489391 0.35533562823206555
1.30652511790297 13.08450540795421 807.9891509184201 41.91302114910232 0.36093987723294924
1.333555863615264 13.08522873084919 719.6149909499145 43.829025041343854 0.3666849348087939
1.3605580580103604 13.085039602543226 641.5865840770601 45.83544155511434 0.372580372131262
1.3874837738143417 13.083797624463116 572.6753119154858 47.93743292174386 0.37863522259670396
1.414333503462181 13.081522053215735 511.5918640983296 50.13955161668217 0.38485412561782256
1.4410605487776686 13.078104818918753 457.5712114563409 52.44738933803964 0.3912460104070896
1.4676425456929127 13.073509678064791 409.62934587922143 54.867163570386445 0.39782156900407245
1.4940483004965557 13.067661837435644 367.11231997714555 57.4050519237107 0.4045898418755785
1.5202573119406315 13.060539213169244 329.34713056230805 60.067669019813195 0.41156057788802464
1.5462378112090565 13.052075002960201 295.76100160552124 62.86210582206613 0.41874429260695106
1.57195151869763 13.042217350751864 265.8808197065829 65.79597272904358 0.42615233135202096
1.5973685742190502 13.030906712061324 239.29167717018012 68.87744681387818 0.4337969375641195
1.622460597958429 13.0181182156742 215.59031357820388 72.11532363865737 0.4416913271093156
1.6472119388728679 13.003811621629735 194.41466081244207 75.51907412697933 0.4498497692199293
1.671560982669537 12.987910315113218 175.5103432259598 79.09889765778736 0.45828763567594855
1.6955005077906746 12.970392551093031 158.63248967852567 82.8644065683769 0.46701581915171875
1.7189733509111818 12.951205056240553 143.51568078214945 86.82858296727719 0.47605698221933
1.7419788160608878 12.930329313107213 129.99666698292344 91.00330231672636 0.48542671607927734
1.7644580656720092 12.907704155416841 117.8745060498406 95.40198381676883 0.49514433955133347
1.7863854699797381 12.88329860036924 106.99717445138964 100.03892673671008 0.5052299364610545
1.8077275788826235 12.857079253885875 97.2418979791822 104.93029274437045 0.5157078574632358
1.8284545537032204 12.829013384226485 88.47928355165057 110.09231473686033 0.5265995834713941
1.8485317112662767 12.799060851938474 80.6009128989519 115.54300284246818 0.5379300193442801
1.8679260277884382 12.767201560317673 73.50501035897965 121.30246554190042 0.5497282145830438
1.886605097393201 12.733399330996429 67.11884583289492 127.3919695492814 0.5620235092396046
1.9045378849286592 12.69762567619369 61.36017985072543 133.8343196137829 0.5748466095767605
1.9216911241100967 12.6598623535806 56.16736092109636 140.6542947676052 0.588230741334889
1.9380238534128884 12.6200500225969 51.47912528618429 147.87991838951615 0.6022155622660331
1.9535198622642895 12.578204865050095 47.24230608570078 155.54009437757685 0.6168383801375809
1.9681575106445113 12.534354949516405 43.409325322149584 163.66760424782186 0.6321439964693214
1.981890609388444 12.488413901159499 39.94651109838921 172.29659148133499 0.6481754355483352
1.9946927542005422 12.440390493114112 36.80399156600852 181.4662650954208 0.6649857970102708
2.0065436604494677 12.39027425656912 33.95926380431198 191.2183427709746 0.6826287781301095
2.017414802590704 12.33807259555414 31.380193935205845 201.59872676822977 0.7011634398168844
2.0272701169564047 12.283747753079167 29.03919772870227 212.65778342366553 0.720654113708905
2.0361007399510016 12.227344266973695 26.91235880277026 224.4497245275645 0.741167270660314
2.0438677319982745 12.168814672909232 24.980692136580593 237.0366719701232 0.7627835467227151
2.050549989807014 12.10817462033472 23.223623347800046 250.48420396343013 0.7855817425610855
2.0561415737574755 12.045462326481452 21.62688428108901 264.8661555941762 0.8096528724791596
2.0606181524541327 11.980700830647889 20.173408915076312 280.2639567937772 0.8350961393968649
2.063956708488455 11.913883387541025 18.84982792731515 296.76668905789313 0.8620169902196443
2.066138008324499 11.845035460234271 17.644887511994654 314.47408283677436 0.8905344611071121
2.0671583828116584 11.774212439439319 16.54783081698246 333.4961717533367 0.9207772469363924
