M[M_sun], R[km], Lambda[1], P_c[MeV/fm^3], rho_c[fm^-3]
0.24162668629717493 15.618656898711224 2160425.4255784233 3.5677272577965504 0.1711233750220791
0.25364487408024305 15.277244981503808 1723220.8683175866 3.784836362002036 0.17388838190856956
0.2660410708859962 14.981241044634162 1382997.023899244 4.011436710889722 0.17666708681246288
0.2788172466303175 14.723485289742461 1116435.4293151933 4.247783875939164 0.1794581598061138
0.2919730364982188 14.49835402550901 905819.6631031871 4.494503255811288 0.1822681710277922
0.3055097463126044 14.301174254229773 738670.2578973674 4.751751061955724 0.18509283861084802
0.3194282089527754 14.12803502041186 605049.3427926049 5.020208633524499 0.1879387605016958
0.3337245150029233 13.975954355859503 497655.76417470863 5.300101288224818 0.190802584353288
0.3484088920141894 13.841957156655544 410958.59316981735 5.59215625187297 0.1936905785364634
0.36347277181893606 13.72392065457051 340621.5698524138 5.896542579147912 0.19659783873635656
0.3789275762663225 13.61994401540055 283265.4630339468 6.2141236592575995 0.19953203099440853
0.39476138629485746 13.528384945177425 236389.41870310422 6.545155090928274 0.20248930116956818
0.41098761701961783 13.447832304342272 197837.92489952248 6.890342965268339 0.20547342263029955
0.4275968932569174 13.377004212627165 166053.24030232246 7.250390853980275 0.2084874401353316
0.44459356755401824 13.314870375606729 139780.58444401136 7.625555235562024 0.21152686011824456
0.4619767721266137 13.26053128033533 117962.928154059 8.016790154241036 0.2145979219161444
0.47974261289077824 13.213110736274743 99793.27925161399 8.424798472263781 0.21770223629803379
0.4979011898364661 13.171943432734976 84624.07989474582 8.85001780303378 0.22083722357738186
0.5164414448947444 13.136364766795484 71925.61951874076 9.29332801988593 0.22400638374352555
0.5353618819876467 13.10580724457197 61262.55535291112 9.755611110720363 0.227212592422427
0.5546697341481046 13.07977620404912 52293.60540885104 10.237676887711883 0.23045720090976524
0.5743548488936994 13.057824004182407 44720.407939180666 10.73999161431971 0.23373684247045873
0.5944129594663458 13.03950221157115 38321.42491162305 11.263809925544203 0.23705782902660508
0.6148526217728355 13.024476915934429 32894.69911964842 11.810065050593192 0.24042171652987956
0.635658543691694 13.01243769120112 28285.252227958703 12.37973628897697 0.24383013845879478
0.6568306725053082 13.003006860987439 24364.907918997247 12.973506119552603 0.24728097058388174
0.6783638999382123 12.995969127121377 21022.16119347354 13.592714578054053 0.25077914526266465
0.7002546572414898 12.991044623561459 18167.695817340325 14.238553472376344 0.2543272289687442
0.722491007718377 12.988004461490117 15725.220518209304 14.91221287441887 0.2579272070568164
0.7450808046161053 12.986652649265457 13630.689494598393 15.61471276947071 0.2615788773351362
0.7680027648252937 12.986759235650489 11833.131583427425 16.347339038232125 0.2652843299436833
0.791250853438859 12.98814495752302 10287.16076864876 17.111698867751123 0.2690481615832335
0.8148271595864901 12.990664886375834 8953.772122138987 17.90924780937967 0.27287280582823986
0.8387115341581493 12.994141948279864 7805.360262594674 18.741335783897288 0.27675920383546093
0.8628941802801334 12.998406260051892 6812.059133483644 19.609338536659735 0.2807081140433357
0.887376706457839 13.003370182048398 5953.550494129055 20.515327630152896 0.28472576264057264
0.9121352725001055 13.008861886653182 5209.62370651994 21.461097857252025 0.2888151642962414
0.9371574992034322 13.014755341143761 4563.72996855565 22.44811362182976 0.2929760797340399
0.9624431424478821 13.020962101099194 4003.248785846913 23.478440546118236 0.29721262849786867
0.9879646638004215 13.027350193622798 3515.3796146567333 24.554482648208136 0.30153075618091374
1.013709501080075 13.033811816231314 3090.8630902001364 25.67815865305233 0.30593191653922497
1.039676026114303 13.040268575582752 2720.5027969262487 26.851478032960458 0.31041772373445836
1.0658296644908478 13.046593089022549 2397.4249460561405 28.07751563681859 0.31499674185528737
1.0921647192297945 13.05272272603674 2114.9752122112827 29.358297728880775 0.3196692158008428
1.1186636256249975 13.058553183517223 1867.7441182543573 30.696638939658094 0.32444023093015123
1.1452965893515399 13.064008880183314 1651.5195673005394 32.09587979679073 0.32931744137916963
1.1720603232490845 13.06902319096321 1461.476909518113 33.558024760658455 0.334298953809309
1.1989196990673596 13.073476856827476 1294.9282242836157 35.08758754597862 0.3393981382222761
1.2258671277365316 13.077340181630825 1148.627679777397 36.6865551616437 0.34461153172105813
1.2528651218939895 13.080503031988044 1019.7711778695838 38.36001630610252 0.3499537944872258
1.2799093295009227 13.082940653640884 906.3802460412574 40.11025160569063 0.35542173488779566
1.3069536232952987 13.08452877603644 806.4665081933322 41.94265758017928 0.36102947265399454
1.333529713367393 13.08506048576938 719.6114592782952 43.880188863179384 0.45413459936812695
1.3506741751300009 13.07661481119679 665.0040339911449 46.2044083579217 0.7557894277831585
1.3588205219355285 13.054431392754863 632.3315355656539 49.01968856486818 1.0329285626706932
1.360933661100501 13.019719622604772 611.409811338449 52.312125530586464 1.287582264273498
