M[M_sun], R[km], Lambda[1], P_c[MeV/fm^3], rho_c[fm^-3]
0.24162668629717493 15.618656898711224 2160425.4255784233 3.5677272577965504 0.1711233750220791
0.25364481103191483 15.27725052543036 1723141.4710865929 3.7848348321132184 0.1738883628392435
0.26604090957071097 14.981261287655103 1382960.3683663832 4.011433494735254 0.17666704794713417
0.27881765984815887 14.723469795966032 1116390.2856047016 4.2477788646880175 0.17945810168315227
0.2919728802812096 14.49834606155288 888626.0296616222 4.494496317940104 0.1822680937729864
0.30550898985227537 14.301175102916996 738577.6654216872 4.751741961863592 0.1850927403124852
0.31942721542660624 14.128071239642718 605051.182002903 5.020197304152487 0.18793864295508844
0.33372744818992 13.975885386716426 497655.0782236636 5.300087431268953 0.1908024448367353
0.3484081045037429 13.841967682825821 410969.58470048924 5.592139832709847 0.19369041967654343
0.3634726422372022 13.723908506129018 340625.6553649821 5.896523228859792 0.19659765699435555
0.37892635077497216 13.619950258485149 283271.0378631696 6.214101143641718 0.19953182567910227
0.3947590249104366 13.52841558345182 236390.82879751854 6.545129433335676 0.2024890761871428
0.41098625071382583 13.447814533415666 197836.0869181973 6.89031367033096 0.2054731731423197
0.4275953690391062 13.377008989134097 166058.64806652605 7.250357646754241 0.20848716542046092
0.44459114702870295 13.314891609450452 139776.9543519227 7.625518207804808 0.21152656535348835
0.46197488832709865 13.26052858106607 117959.35992213519 8.016748660034967 0.21459760092491384
0.4797400308419304 13.213124224765169 99795.20608210165 8.42475218799113 0.21770188830500767
0.49789796118033197 13.171962193887552 84629.87552977187 8.849966899332214 0.22083685501283307
0.516438748833125 13.136369573262519 71926.84023990046 9.293271672889508 0.22400598705715793
0.5353593081887773 13.105811275603735 61264.87901013425 9.755548938319434 0.22721216675726047
0.5546671731130807 13.079780289111243 52294.46787780536 10.237608484575347 0.23045674537156005
0.5743519554523226 13.05781393571661 44721.90901850283 10.739917277649228 0.23373636520600763
0.5944106391328923 13.03949919502577 37987.26257722481 11.263728537301494 0.2370573205113918
0.6148488065179233 13.024505192165469 32894.64850845347 11.80997612989536 0.24042117574367583
0.6356552379234629 13.012416322014326 28285.149154624585 12.379639324936587 0.24382956432751665
0.6568270248821968 13.003016524370718 24365.55381729851 12.973401557449142 0.24728037294977606
0.6783600628231279 12.995978386321024 21023.123675532683 13.592600932909185 0.2507785125169454
0.7002507672853282 12.99104973808528 18168.640057890607 14.238430134739625 0.2543265598560455
0.7224859438146567 12.987999756969689 15725.362160304947 14.912079195677187 0.25792650024691854
0.7450760551859915 12.98664472086639 13630.752208762415 15.614569363774464 0.2615781443403417
0.7679985970159199 12.986758529799133 11833.632571017388 16.347183963327144 0.26528355693417605
0.791245721762014 12.988144566034721 10286.123061439632 17.111531345213038 0.2690473469778587
0.81482204387032 12.990660322559084 8953.853597227557 17.9090670091699 0.2728719479441723
0.8387050669703487 12.994141390609592 7805.614988557656 18.741142507988208 0.27675831583266236
0.8628879130100527 12.998406290853257 6812.2697860357985 19.60913027166238 0.2807071796896384
0.887371974056166 13.003368671361631 5953.777228024793 20.515103373514783 0.2847247799132129
0.9121290025326322 13.008872102581117 5209.783135830314 21.460856537760773 0.2888141310360628
0.9371515303835786 13.014750313647369 4563.988184306615 22.447856244818308 0.2929750107364626
0.9624364694538693 13.020961484944245 4003.505302060802 23.47816388123401 0.29721150487956866
0.9879572552983803 13.027347909147757 3515.4780127134068 24.55418539297981 0.30152957532700525
1.0137027056848897 13.033804374635189 3090.90818493946 25.67784195822608 0.3059306943528985
1.0396675132062956 13.040269333885865 2720.6058915861513 26.851138026308316 0.3104164392505514
1.0658214760730267 13.046587667076885 2397.45012295457 28.077150726489744 0.3149953918933058
1.0921550714862356 13.052716271533944 2115.027701960381 29.357909208322543 0.319667817365386
1.1186555671498946 13.058547867236431 1867.8097727446648 30.69622216961731 0.32443876074682637
1.1452888656187081 13.064007865612192 1651.5835214018116 32.09543613767634 0.3293159170101512
1.1720543862894224 13.069014727815999 1461.607674988819 33.55754900758141 0.3342973504723872
1.1989108107422974 13.073480670571431 1294.9773101868345 35.08707745306994 0.33939645148331354
1.225858185041142 13.0773389402842 1148.6607540189405 36.686012209341605 0.34460978024097877
1.252855597471518 13.08050262160779 1019.8261297012352 38.35943829061285 0.3499519743718612
1.279899931433929 13.082940437725087 906.4134794368274 40.10963195616116 0.355419817899163
1.3069439624051453 13.08452506880038 806.5214809567008 41.941997778995 0.361027477975055
1.3339827446264971 13.085237171592937 715.4028104261926 43.860089552834644 0.3667772746023268
1.3609927591080435 13.085029047924337 640.4041026266852 45.86852886826671 0.37267658554333727
1.387925136995398 13.083768516856646 571.6117296804971 47.972684334773476 0.3787355594975899
1.414775676527968 13.081461578264706 510.6472723289279 50.17735359314937 0.38496005092174757
1.4415070094440405 13.078019366222907 456.7130860892327 52.48768187892945 0.3913566386280625
1.4681027740199877 13.073417547319911 408.861759375725 54.91012505033256 0.39793721358163375
1.4945128594638133 13.067549605658556 366.39264445194846 57.4508751641428 0.40471084047670486
1.5207250224056297 13.060399025592234 328.72957857033043 60.116562582240945 0.4116872943964066
1.5467094834312136 13.05190623844087 295.1811941714082 62.91429543039098 0.41887711930939564
1.5724257402352098 13.042022245493355 265.36647787115663 65.85170283526475 0.42629169134312545
1.5978396441702623 13.03068291883408 238.82117071836635 68.93698232330888 0.4339432873928533
1.6229373322230793 13.01786052968612 215.1537524062095 72.17895181274434 0.44184515969395427
1.647689774616985 13.00351602300121 194.02427334182707 75.58710668406658 0.4500116170609829
1.672038703521428 12.987578145351765 175.16224969720412 79.17131794538433 0.45845659137837036
1.6959746231961812 12.97001856506962 158.30328042548084 82.94192098985152 0.4671939470665088
1.7194556773922718 12.950802298110792 143.22469937712845 86.91159044912447 0.476244953325256
1.7424314328182418 12.92982650162847 129.73624700314144 91.09183741384588 0.4856236740817705
1.7649194506525192 12.907200341806899 117.6371176064045 95.49689920241984 0.4953526051010275
1.7868455720116267 12.882760407621753 106.78675361493477 100.14030504971934 0.5054487064623548
1.8081824965101074 12.856494138450719 97.04870637404238 105.03865955792638 0.5159379746189676
1.8288966874228012 12.82836066677225 88.29982166645716 110.20851172000236 0.52684295836578
1.8489696150812673 12.798375667668235 80.42948865780086 115.66759248283896 0.5381873785487065
1.868344983759708 12.766429508431383 73.35734522812422 121.43594288337498 0.5499999255362973
1.8870199083182961 12.732604667248737 66.9788172922817 127.53500311453156 0.5623104501710544
1.9049431409701219 12.69677824699892 61.23422186977524 133.9873646518321 0.5751487680019323
1.9220819744679802 12.65895261725033 56.051893460823116 140.8186750783611 0.5885510166909144
1.938395314794981 12.619055044023222 51.37200496888875 148.05661808903346 0.6025554529294129
1.9538889166422564 12.577202813138838 47.14716275149965 155.7296125427536 0.6171975360316266
1.9685020907688793 12.533259835860676 43.32393878828593 163.87141110294198 0.6325251979795813
1.9822144802119812 12.487253437140692 39.86381857346443 172.5159159239151 0.6485803941511209
1.9949996265959031 12.439165071057534 36.729945171757564 181.70222406663868 0.6654155995481007
2.0068337014956286 12.388997220669157 33.8891953928941 191.47246811328768 0.6830856223057608
2.0176776764526867 12.336711904696845 31.315881091405238 201.87270825429786 0.7016497299286103
2.027512211093772 12.282319294321256 28.980273978156674 212.9527964303531 0.7211702213140373
2.0363175913836025 12.225840407501215 26.85926691299651 224.7684987735309 0.7417182795334053
2.0440575946078186 12.167236880225142 24.932941878838886 237.3807600350225 0.7633702484818364
2.0507138073979925 12.10651791083877 23.178698190728877 250.85661227321143 0.786209184646092
2.0562831351057973 12.04375985094588 21.586446742437698 265.269363929202 0.810323834574553
2.0607250594548616 11.9788998344854 20.134395423951858 280.70033554505767 0.8358124170899855
2.0640264433380375 11.91199476856465 18.81482485751824 297.2397778118468 0.8627834787696196
2.066184208758876 11.843080713520447 17.6129396718232 314.9879960953323 0.8913571351551048
2.067171916594306 11.772180570902147 16.518197821428785 334.0542979922559 0.921658762747956
