M[M_sun], R[km], Lambda[1], P_c[MeV/fm^3], rho_c[fm^-3]
0.24162668629717493 15.618656898711224 2160425.4255784233 3.5677272577965504 0.1711233750220791
0.2536453912820781 15.277278739545505 1723133.0939749635 3.7848559412814655 0.17388862595484228
0.2660434325889466 14.981198093412639 1382877.85069282 4.011477870897888 0.1766675842068706
0.2788216346046019 14.723401440769365 1116388.091932846 4.24784800965177 0.17945890366053258
0.29197826560401335 14.498276373460271 905716.8374975148 4.494592046630277 0.18226915973416893
0.3055155782631309 14.301089213449993 738535.8446091106 4.751867525300618 0.1850940966372465
0.3194349872004638 14.127965467644062 605008.6893947561 5.020353627800851 0.18794026487327561
0.33373568895578953 13.975810766010818 497577.4380914935 5.3002786313894745 0.19080436990469057
0.3484194568140688 13.84187184659419 410910.15574548795 5.592366387228546 0.19369261165383483
0.36348496235845507 13.72383617906146 340566.46511236543 5.896790228450677 0.1966001647110163
0.37894042722150484 13.61988082799526 283222.9751948793 6.214411820160402 0.19953465867487377
0.39477808799562425 13.528287275286374 236344.55232529025 6.545483464764416 0.2024921805644998
0.4110050891390261 13.447722820551634 197799.67888574264 6.890717892285041 0.2054766156661058
0.42761637250551937 13.37692152358238 166028.6549716593 7.250815853336194 0.2084909560460851
0.44461489054609626 13.31480536841536 139745.31568088295 7.626029133080538 0.21153063264720703
0.46199785169258717 13.26046107454362 117931.66184148217 8.017321217153823 0.21460203011712073
0.47976816641345454 13.213052066036877 99770.3007061857 8.425390842783122 0.21770669009622043
0.49792891128083094 13.171889068816185 84604.68443071055 8.850669297390368 0.2208419406748857
0.5164719628051102 13.136312270959559 71909.43349099919 9.29404918303241 0.22401146077703607
0.5353943348795479 13.105771090354343 61247.55930715934 9.756406833605679 0.22721804036250054
0.5547050786879939 13.079748713608218 52280.16082212807 10.23854404796503 0.23046292434776208
0.5743914287879919 13.057779913363996 44708.46898260949 10.740943029361073 0.2337429508497358
0.5944523792618457 13.039467116063923 37972.33209785675 11.264851595211237 0.23706433739753507
0.6148935056926125 13.02446181480713 32884.14276555685 11.811203130211558 0.24042863795280314
0.6357029248296989 13.012407580501879 28276.422749879992 12.380977317957198 0.24383748668347477
0.6568758099580099 13.002994224043958 24356.519296068083 12.974844398785285 0.24728861963918852
0.6784142195901374 12.995951449864457 21015.438270912942 13.594169114954452 0.25078724373443234
0.7003076103181591 12.991034609164215 18161.6677998098 14.240132068056957 0.254335792927355
0.7225466959205102 12.987994007805458 15719.266592242348 14.913923831317012 0.25793625353088695
0.7451389605580367 12.986637628897856 13625.35444584455 15.616548226865492 0.2615882589758313
0.768064097327622 12.986765156649936 11828.103312322024 16.349323857020195 0.2652942237675321
0.7913142407976865 12.988155241968462 10282.908145004598 17.11384301210181 0.2690585878311427
0.8148928529899238 12.990690123921052 8950.021533506419 17.91156190418996 0.27288378604264896
0.8387818215372745 12.994149726582263 7802.141926151469 18.743809564169997 0.2767705695758457
0.8629673874161237 12.998431585090646 6809.375110655602 19.61200417442326 0.28072007307885083
0.8874527967608745 13.003382596819483 5951.014560954278 20.518197958711234 0.28473834086536676
0.9122147848968891 13.00888055085283 5207.353570006304 21.464186588857423 0.2888283893505192
0.9372395229089877 13.014771559497664 4562.156971914997 22.451407888209097 0.29298976224110884
0.9625276852240885 13.020987313963523 4001.4715543784246 23.481981697404205 0.2972270101654195
0.9880535373172578 13.027370186433693 3514.0285273512222 24.558287357124588 0.30154587048325865
1.0138010861247788 13.033831606471635 3089.7150689541963 25.682212189768514 0.3059475599180798
1.0397706284277486 13.040288084238876 2719.2517421993452 26.855829964657826 0.3104341645487606
1.0659264962730177 13.046619437627985 2396.3658085874113 28.082186340773855 0.31501402082019564
1.0922638965246274 13.052736306401906 2113.8951116597236 29.363270648356927 0.3196871152575688
1.1187670265944643 13.058577530348892 1866.8445846058642 30.701973461178167 0.3244590488004817
1.1454027974479608 13.064034562459275 1650.5864847319708 32.10155850627179 0.32933695286561615
1.1721714124145532 13.069032652143987 1460.897762427618 33.564114285933194 0.3343194761373412
1.1990320622023907 13.073490624754102 1294.4040814781906 35.09411663703692 0.3394197281563653
1.2259827283944176 13.077358276753852 1148.0492825094016 36.69350486761871 0.34463395039674216
1.252980143322857 13.080517331910109 1019.2870893074216 38.36741483817231 0.34997709175544184
1.2800289415288066 13.082949430235532 905.8922369232447 40.11818307915287 0.35544627221695374
1.3070817123830256 13.084553640944804 805.9860111942996 41.95110301890766 0.36105500449474875
1.334117291132804 13.085237124821683 717.8982739240605 43.86985102275026 0.3668062907391765
1.3611281623932467 13.085030468608558 640.0274282195186 45.878926109897854 0.37270681930964217
1.3880700975176354 13.083780327374871 571.2316110574922 47.98376176998467 0.3787670894540749
1.4149167306167505 13.081447576851035 510.33165885049414 50.18923272486818 0.3849933375579311
1.4416505943188704 13.07799804080809 456.4525085154348 52.50034384463523 0.39139140364186203
1.4682465998790437 13.07338856054894 408.622923576867 54.92362593187365 0.39797355552666175
1.4862176505046745 13.064210281578795 377.7715363941965 57.88203675790814 1.1052340795330526
