M[M_sun], R[km], Lambda[1], P_c[MeV/fm^3], rho_c[fm^-3]
0.24162668629717493 15.618656898711224 2160425.4255784233 3.5677272577965504 0.1711233750220791
0.2536437173727122 15.277277789220134 1723234.3174995764 3.7848141338476764 0.17388810484534867
0.26603934657822015 14.981272944717494 1382956.3957160816 4.011389982722369 0.1766665221301375
0.27881404013917166 14.72353718848973 1116530.1178301277 4.247711066717182 0.17945731532885995
0.2919677240487478 14.49846261454931 905909.931339173 4.494402454805102 0.18226704858519363
0.30550383042593005 14.301219909770357 738673.3247947036 4.751618846320499 0.18509141042965024
0.3194195579988896 14.128136025341625 605120.7383165166 5.02004402916097 0.18793705266789273
0.3337161912680611 13.975966785457787 497701.07836721075 5.29989996134072 0.19080055732562684
0.34839696878553206 13.84206069283958 411026.1312004562 5.591917699635531 0.1936882704779427
0.3634592798180206 13.724019592449098 340674.0211274849 5.896261441905926 0.19659519823588484
0.37891208089707856 13.620026009681352 283319.73099591635 6.213796534619872 0.19952904801159616
0.39474406891605185 13.528473167274644 236411.63864343165 6.5447823183653355 0.20248603245778227
0.4109672633919431 13.44792840416632 197880.5000099345 6.889917348119805 0.20546979789605935
0.4275751415021523 13.377103628475425 166092.79894459786 7.249908398037788 0.20848344890096226
0.4445694425800087 13.31497221916669 139817.17047027138 7.62501727412817 0.21152257759932303
0.46195022478772807 13.260607535284503 117991.72707799626 8.016187303586417 0.2145932583789471
0.47971359401236174 13.2131827186671 99827.1510932287 8.424126031133211 0.21769718048078737
0.49787017104691894 13.172007249653731 84653.52060796693 8.8492782506936 0.22083186890245257
0.516407460971042 13.136433140457997 71943.34163726855 9.292509387558765 0.22400062052090655
0.5353255882820114 13.105860713748127 61282.90538462125 9.754707847489877 0.227206408204226
0.5546316325936068 13.07983643934506 52307.047356010655 10.23668310534792 0.230450582706897
0.5743124154442928 13.057876016665345 44734.02698351027 10.738911630739794 0.23372990864133864
0.5943668211176355 13.039552077178422 38332.05665197989 11.26262749862565 0.2370504412018204
0.6148041184633932 13.024515646793871 32906.97314881799 11.808773194642397 0.24041385989028466
0.6356049871849377 13.01245422804633 28295.73819785182 12.378327582460127 0.24382179740297835
0.656776044892655 13.003040265579893 24373.699764012083 12.971987031504614 0.2472722880995308
0.678307343903099 12.99598191704512 21030.75206289394 13.591063536056335 0.250769952703162
0.7001948173400591 12.991069087593361 18174.974732634415 14.23676162318953 0.2543175080994545
0.7224276235088151 12.9879930672143 15731.819780166983 14.910270795940356 0.2579169385558285
0.7450144945924745 12.986641535447392 13636.16856870011 15.6126293838286 0.261568228449698
0.7679332361085263 12.98675439911241 11837.885196479194 16.345086130615275 0.265273099764262
0.791176911785845 12.988141278078592 10290.446862797418 17.109265130470984 0.2690363271429728
0.8147510200489645 12.990663879400367 8957.513731506 17.906621185028154 0.27286034268350456
0.8386309274412804 12.994130531888189 7808.599059279281 18.738527922894985 0.2767463031669817
0.8628106762422137 12.998401181781821 6815.611396035657 19.60631292807224 0.28069454004575506
0.8872850607529614 13.003340118104678 5956.249932279801 20.512069710742367 0.28471148593256734
0.9120447406373328 13.008836374164563 5211.971249046543 21.45759206648015 0.28880015351538757
0.9370638239620382 13.014724637708067 4566.052834395857 22.44437456401671 0.29296054981658115
0.9623403312826333 13.02093281839568 4005.1293513034593 23.474421296178242 0.2971963051296268
0.9878648225029029 13.02732146797231 3517.2062456601348 24.5501642865333 0.30151360138000216
1.0136060179786495 13.033781749453986 3092.3821362129115 25.67355789606107 0.30591416133193994
1.0395688684242428 13.040236218294526 2721.8373064002417 26.846538632293374 0.3103990635681737
1.0657185889203036 13.046561140303348 2398.763615674197 28.072214469644365 0.31497713053278575
1.092049417425427 13.05268663828626 2116.026908250421 29.352653584250987 0.31964890034569804
1.1185461765710525 13.058531431686871 1868.949909669589 30.69058442831917 0.32441887324908064
1.1451757859902796 13.063983505456727 1652.4314201174705 32.08943468027334 0.3292952965936343
1.171937493985364 13.0690022668122 1462.3453479325099 33.55111343409817 0.3342756619262132
1.1987907467368792 13.073465875220363 1295.6078834356558 35.0801773871367 0.33937363483588445
1.225737198996131 13.077323704525487 1149.2718757209718 36.678667675240966 0.3445860879108796
1.2527315998885162 13.08049145196805 1020.3427877406518 38.351608581124026 0.34992728974905773
1.2797716723940438 13.082932579994795 906.8658943402049 40.10124999702077 0.35539388691781426
1.306816005105923 13.084517983584742 806.9357041866144 41.93307272073041 0.36100049617178076
1.3338519092260734 13.085236178425664 718.7658359747301 43.85052132536487 0.3667488328819638
1.3608590907536282 13.0850331365602 640.7660416428928 45.858337521131475 0.3726469504902579
1.3877882804099908 13.083779724675914 571.9213281929917 47.96182633544134 0.3787046541264522
1.4146450017836973 13.081490610053661 510.93533584239935 50.1657098735475 0.38492742393625873
1.4413675052132882 13.078040788397201 456.98241800957305 52.47527092404015 0.3913225627959195
1.4679609348887626 13.073448601021532 409.1028504737819 54.89689190281979 0.397901592328459
1.494369643882231 13.067582241152765 366.60867414265437 57.43676041490651 0.404673569762178
1.5205809649693858 13.060441724478816 328.91430434540376 60.10150197182306 0.4116482621011208
1.5465638741232806 13.05195830558033 295.35283256333173 62.89821941060758 0.41883620456094667
1.5722799187181127 13.042082622324427 265.52924630811657 65.83453608663633 0.42624876377491566
1.5977037628166595 13.030758700060431 238.97584799290252 68.91864322331772 0.43389820632831716
1.6227905691533655 13.017942354390325 215.28405721117343 72.15935184934175 0.44179777324805497
1.6475437653153102 13.003606225884464 194.14798973985305 75.56614980815861 0.4499617611498405
1.671892667821586 12.987675577765136 175.273809407597 79.14900929173896 0.4584045455446433
1.6958282945975156 12.970135636273042 158.3995526382426 82.91804288964477 0.467139075261778
1.7192943545074773 12.950895892724917 143.31881012089903 86.88601997699053 0.47618704878678425
1.7422949926848124 12.929995681553754 129.80571764310662 91.06456392653934 0.48556300061152324
1.7647760072132268 12.90735241960022 117.70781612331041 95.46765994840489 0.49528844764891056
1.7867036811678803 12.882923186845746 106.84760683565673 100.10907456904322 0.5053813124399519
1.8080423366277938 12.856674528453814 97.10602427228807 105.00527589551672 0.5158670843418658
1.8287554077570378 12.8285470899011 88.34981402030816 110.17279822152872 0.5267682909405395
1.8488348358308455 12.798588510183286 80.48188670336383 115.62921037968718 0.5381080943682405
1.868222195422848 12.766688177469467 73.3993098581812 121.39482233872496 0.5499162191763883
1.8868942055912084 12.732846889490398 67.02502438241329 127.49099392516119 0.5622222503718661
1.9048181568716096 12.697039918646153 61.27070466553111 133.94021490482393 0.5750556797614715
1.921962037058386 12.659232168479853 56.08855864266593 140.76803261237808 0.5884523459088229
1.9382777216785594 12.61935243431893 51.40307556158986 148.0021796137696 0.6024507378137599
1.953777433817367 12.577517470423167 47.172257155596135 155.67122426262742 0.6170868843960382
1.9683964133147411 12.533600331621372 43.34893265321277 163.80871916578246 0.632408088919961
1.9821143415947553 12.487609898041434 39.88912428402078 172.44834305241267 0.6484556282321566
1.9949075468188313 12.43954332463922 36.75419985721555 181.62952529064148 0.6652831777195961
2.006745739476031 12.38939456975091 33.90965551775742 191.39417130699053 0.6829448671980514
2.0175967922543747 12.337131355274266 31.33509906785959 201.7882926059792 0.7014999004797617
2.027436629670968 12.282757004939429 28.99828230745137 212.86189969131803 0.7210112029072746
2.0362508612330523 12.226302076239456 26.876016492929423 224.67027955465855 0.7415485052753165
2.043999965490207 12.167720111388533 24.948581591468425 237.27473980889513 0.7631894742571054
2.050662887646486 12.107027286749377 23.192856580160317 250.74202033438024 0.7860163626859781
2.0562395146585346 12.04429338380752 21.596947698817743 265.14512389991495 0.8101170919476259
2.0606918418433455 11.9794558976194 20.146285761336006 280.5659704795874 0.8355920271094193
2.064002639512019 11.912571279139392 18.82408307062552 297.0940012288748 0.8625472945847943
2.066169166001578 11.843683471331918 17.622670211371837 314.8296373204578 0.8911036339033046
2.0671661551197698 11.77280431287142 16.527032784159854 333.88231249907335 0.9213871253995783
