M[M_sun], R[km], Lambda[1], P_c[MeV/fm^3], rho_c[fm^-3]
0.24162668629717493 15.618656898711224 2160425.4255784233 3.5677272577965504 0.1711233750220791
0.2536447526483733 15.277272758360251 1723183.6363649021 3.7848337492702635 0.17388834934212843
0.2660407362781267 14.981259307006997 1383001.7719723603 4.011431218368204 0.17666702043858182
0.27881676085736756 14.72352647823241 1116453.6499666437 4.247775317768341 0.17945806054422914
0.291972439416693 14.498374545291211 905905.8841884629 4.494491407377904 0.1822680390927366
0.3055091160732725 14.301171306585635 738585.8971957726 4.751735520904061 0.1850926707378295
0.3194262879093971 14.128092202669704 605052.4247295308 5.020189285333179 0.18793855975674315
0.3337262604867422 13.975872578905129 497634.0148808804 5.300077623454861 0.1908023460883215
0.3484075196913973 13.841972641614047 410972.6811209948 5.5921282113961235 0.19369030723713623
0.36347161965023134 13.723923521330176 340628.95274359453 5.896509532932275 0.19659752835930597
0.3789258908872294 13.619940551606952 283266.08879335556 6.2140852073359785 0.19953168035918248
0.3947592766623184 13.528399820621074 236393.42142847908 6.545111273180644 0.20248891694711632
0.4109852680096883 13.447819484085116 197835.67693278077 6.890292935713252 0.20547299655761436
0.4275936898264753 13.377018373568045 166063.42878642716 7.250334143074029 0.208486970980538
0.4445911330334047 13.314899757989826 139787.7402130534 7.625492000008097 0.211526356722575
0.46197355919609684 13.260526341523548 117963.32180496004 8.01671929095246 0.21459737373131677
0.4797395083987753 13.213115917757127 99808.57958969835 8.424719428572935 0.21770164199997968
0.4978976783371438 13.17198514172396 84631.53697397652 8.849930870354456 0.2208365941476401
0.5164376103626198 13.136376573808953 71927.894663238 9.293231791235097 0.22400570628782454
0.5353577314559335 13.105812607017256 61265.62520930763 9.755504933539454 0.22721186547724365
0.5546651146406257 13.079798782805291 52295.20631849375 10.237560069785452 0.23045642294794602
0.574349963439733 13.05781567870749 44721.78056191559 10.73986466320512 0.23373602740497854
0.5944091665289454 13.039496999168296 38321.47058519461 11.263670931877915 0.23705696059166284
0.614846612812615 13.024482497331748 32895.16337287669 11.809913193134529 0.24042079298316232
0.6356522746670634 13.012423914680003 28286.222695359116 12.37957069524438 0.2438291579660166
0.6568246844654865 13.003025067286707 24366.68631994775 12.973327549987445 0.2472799499534732
0.6783576732581139 12.995968976264002 21023.562833570275 13.592520496642122 0.25077806466936053
0.700247230770214 12.991051915710987 18168.54379015583 14.238342838313072 0.254326086268671
0.7224831028849579 12.987993590226546 15725.4358408185 14.911984580018881 0.25792599997826743
0.7450728138662464 12.986639187228262 13631.00646310114 15.61446786356885 0.2615776255386184
0.7679951824088145 12.986749786860353 11833.528745871572 16.347074203891296 0.265283009810917
0.7912423811627223 12.988147100963687 10286.94289064616 17.111412775598296 0.2690467704139733
0.8148193008547165 12.990663746525174 8954.35384247317 17.90893904189662 0.2728713407486107
0.8387010554441152 12.994134557582369 7805.68811897872 18.741005710675918 0.2767576873197932
0.8628833657931536 12.99840962498881 6812.302420361827 19.60898286539611 0.2807065183706859
0.8873676771477694 13.003364718853131 5953.999177751272 20.51494464871514 0.2847240843565302
0.9121246102044526 13.008854073219307 5209.768570090803 21.46068573625313 0.288813399713469
0.9371462253066963 13.014748446893892 4564.099575049424 22.447674078154286 0.29297425411985023
0.9624317087587483 13.020957012465281 4003.527159744824 23.477968063054835 0.2972107096037598
0.987953442421847 13.02734754158628 3515.55812304746 24.55397500143353 0.30152873954126946
1.013697759790446 13.033804919617777 3090.9961147541876 25.677617807782624 0.30592982931316826
1.0396623214766019 13.040259162727587 2720.688749734263 26.850897376311202 0.310415530118196
1.0658164278042437 13.046588148033326 2397.5263270436967 28.07689245027442 0.3149944364172782
1.0921507478658738 13.05271785158596 2115.080576114176 29.35763422135719 0.3196668275811536
1.118649993387045 13.058551230547984 1867.8453908938377 30.695927188372394 0.3244377201813706
1.1452827345140562 13.06400205322561 1651.57812616447 32.09512212501244 0.3293148380935671
1.1720471457371293 13.069017438432706 1461.6146700712927 33.557212279632765 0.33429621566448214
1.1989050827980725 13.073479317888886 1294.9919160817722 35.08671642028151 0.33939525764575845
1.2258518874666724 13.077343956709377 1148.7389711845426 36.68562791952508 0.34460854058151746
1.252849160229462 13.080502165908968 1019.8312182836859 38.35902918399092 0.3499506861343284
1.2798926194299456 13.082939444366156 906.4267807971888 40.10919338209206 0.35541846109751135
1.3069370628596788 13.084522542918435 806.5466761826541 41.941530786666014 0.36102606618649546
1.333975952324511 13.085237060318327 718.3602243260219 43.85958890565841 0.3667757864200034
1.360985962657273 13.085029063006342 640.4171849056904 45.86799561540568 0.3726750349164544
1.387918675827055 13.083771714320347 571.6010185009475 47.972116198190975 0.37873394239747765
1.4147683121768395 13.081463471144604 510.64238948258446 50.17674434201211 0.3849583437329201
1.4414993720722786 13.078023339096998 456.7315641267302 52.48703248054565 0.39135485562340916
1.4680953861449084 13.073419077489545 408.8857236136488 54.9094326287682 0.39793534970731176
1.4945056815370021 13.067548742464865 366.4070403372894 57.45013661048608 0.40470889028814383
1.5207174624435016 13.060401828489523 328.73654863180593 60.11577453374136 0.4116852520262183
1.5467018420518819 13.05190900426737 295.1866773246504 62.91345424751536 0.4188749784321002
1.5724181041105676 13.042025456740744 265.3745997776614 65.85080457644116 0.42628944513635947
1.5978313901603263 13.030685753877814 238.83600242893456 68.9360227170952 0.43394092849467025
1.6229296011967789 13.017864745282898 215.1596103743654 72.17792622713199 0.44184268015579714
1.647682536943306 13.003519737178587 194.02735040880876 75.58601009259044 0.4500090082958485
1.6720309187265754 12.987584084279225 175.1710505960198 79.17015061683912 0.4584538680142295
1.6959677906455712 12.970024641934048 158.3099101047361 82.9406715329986 0.46719107581829983
1.7194480643625043 12.950808864347682 143.22932265776788 86.91025243089219 0.4762419233722774
1.7424244988613558 12.92983085193903 129.7299916930965 91.09041027733906 0.4856204992283529
1.7649121919063064 12.907208466420434 117.63751265923895 95.49536919683554 0.49534924792714197
1.7868389022940738 12.882766678924712 106.78921153331902 100.13867084275503 0.5054451799146239
1.8081756678558922 12.856502673021687 97.05128389129152 105.03691267385778 0.5159342651069863
1.8288841427012965 12.828360822463322 88.29763697182727 110.20664291377643 0.5268390511890786
1.848962816835434 12.798386556406737 80.43428116078493 115.6655840249245 0.5381832297677207
1.8683380929220808 12.766441609625344 73.35935559577781 121.43379111899883 0.5499955453325611
1.8870139949291167 12.732616730522254 66.98272210206214 127.53270414308798 0.5623058489617282
1.9049368244344786 12.696791401306063 61.234497116442 133.9848973690118 0.5751438968195605
1.9220755088988528 12.658966942008364 56.05355141117029 140.81602501355468 0.5885458533569027
1.9383880622653031 12.619070516644179 51.37347858222096 148.05376936912276 0.602549973274932
1.9538824003433397 12.57722020535231 47.147665158067404 155.72655711891366 0.6171917456975976
1.9684964853308538 12.533277921174967 43.32664534798097 163.8681304557267 0.6325190697033191
1.9822086841158713 12.487272059387115 39.86460471829627 172.51237983982747 0.6485738651584806
1.994995801786295 12.439185309299653 36.73307111949255 181.6984197248401 0.6654086698867644
2.0068297379476587 12.38901695917911 33.891078360428686 191.46837080366655 0.683078256523115
2.017673987138982 12.336733418920788 31.317174509238786 201.86829071838508 0.7016418892381191
2.0275075751696114 12.282342072928802 28.980622217447632 212.94803970903908 0.721161899714684
2.036313573366395 12.22586414753695 26.859443157452763 224.76335882869458 0.741709395016391
2.0440546761468044 12.167261515064524 24.933969417668617 237.37521182127713 0.763360788267733
2.050711504142946 12.106544658438668 23.18001861234776 250.8506156971283 0.786199094692583
2.056280944221498 12.043787715905108 21.587118014169707 265.26286216139164 0.810313015255172
2.0607236403909392 11.978929378313532 20.1361850810266 280.69330386836435 0.8358008835036002
2.0640254559316062 11.912024812302336 18.815605445337084 297.232148889357 0.8627711185482273
2.066181662460709 11.843112925160096 17.613010977065745 314.9797086515751 0.8913438685876643
2.0671717433346015 11.772210989242831 16.519498342187354 334.04529735503337 0.9216445469604289
