M[M_sun], R[km], Lambda[1], P_c[MeV/fm^3], rho_c[fm^-3]
0.24162668629717493 15.618656898711224 2160425.4255784233 3.5677272577965504 0.1711233750220791
0.25364026128449957 15.27738688256109 1723274.7471252894 3.7847673450135364 0.1738875216451028
0.2660336753721634 14.981407174648874 1383199.2429727803 4.011291624210349 0.17666533352556696
0.2788054330000945 14.723731889476687 1116631.3374827183 4.2475578118891955 0.1794555378038054
0.2919569604455725 14.498607396471343 906048.5533180211 4.494190283155457 0.18226468600463236
0.3054885715855478 14.30145597552419 738851.8774575049 4.751340554822281 0.18508840435034218
0.3194005654684366 14.128385123411162 605219.8360966146 5.019697568925629 0.18793345800922973
0.3336959381529967 13.976160318211551 497833.620561687 5.2994762124285995 0.1907962908772084
0.3483717216750173 13.842277936179583 411156.3017620128 5.591415605158961 0.19368341257576047
0.36342905243485 13.724245390160744 340782.2981896583 5.895669723306105 0.1965896406895743
0.37887769884302996 13.620301159452332 283429.7391724554 6.213108032907284 0.1995227697049874
0.39470615273956566 13.528693058529798 236514.5287529749 6.5439977494838875 0.2024791528485926
0.41092633725114136 13.448108550868536 197968.4932725109 6.8890215682769265 0.20546216905901796
0.4275286208833644 13.377268795946181 166165.1689311549 7.248893003351265 0.20847504880094403
0.4445188090976536 13.315121837181033 138263.12177889733 7.623885072058254 0.21151356454284295
0.4618937666236247 13.260756228646752 118053.31198554652 8.014918548843204 0.2145834435352642
0.4796534845181494 13.213325422212632 99872.25366346084 8.42271083258675 0.21768654016612926
0.49780351700889613 13.17215316380532 84704.1708464968 8.847721827231966 0.22082059973158177
0.5163360942589746 13.136562235133066 71988.4329765698 9.2907865553987 0.22398849167509363
0.5352492256599845 13.105976426640053 61320.987950840994 9.752806928310575 0.22719339350530934
0.5545488526673256 13.079942613920279 52342.12860120521 10.234591711335051 0.23043665483862674
0.5742232961956675 13.05795100117277 44766.354540737324 10.736638849409456 0.23371531668117831
0.5942742287726895 13.039604818875139 38358.730323635 11.26013915642046 0.23703489399469257
0.6147035279618158 13.024579828859604 32930.853987767034 11.806054595407785 0.24039732627105556
0.6354992290781709 13.012486325795328 28087.15869974508 12.375363113346822 0.24380424456138608
0.6566637208554992 13.00308247352708 24199.01470484329 12.968790305574206 0.24725401692499174
0.6781877889368723 12.996018971208851 21047.524292355065 13.587589167348055 0.25075060834903334
0.7000683376997646 12.991089525397905 18190.12641873798 14.232990987607714 0.2542970522173973
0.7222947929542112 12.988007740592119 15745.701200411824 14.90618407296065 0.2578953305109329
0.7448749047045743 12.986652566389091 13648.276940197766 15.608245346774257 0.26154582016032296
0.7677875252694125 12.986751930514826 11847.791870974555 16.34034542215122 0.26524946852157943
0.7910233763851721 12.988129074911852 10300.452040691245 17.104143964373964 0.26901142464641536
0.8145891077174419 12.990646688406946 8966.76671990814 17.90109419834438 0.2728341175268885
0.8384626749196761 12.994111176717382 7815.647400527529 18.732619627459545 0.27671915760648996
0.8626361880713596 12.99836599484344 6822.097437868059 19.599946518083865 0.2806659779792219
0.8871032565488945 13.003309448506128 5962.186352090943 20.505214553331918 0.2846814455698858
0.9118550247903717 13.008806054194105 5217.189419331741 21.450215431470706 0.28876856890045466
0.936866626251144 13.014678604883365 4570.709926038931 22.43650717554926 0.2929278731638991
0.9621357440925179 13.020880723919 4009.12657914435 23.465964446973178 0.29716195935223033
0.9876533319774575 13.027272508212556 3520.90284393992 24.541078182465704 0.3014775066019177
1.0133929247624465 13.033734801501893 3095.9527745628325 25.66387770255728 0.3058768036009088
1.0393424701107308 13.040185024107446 2725.001157280972 26.836146036131087 0.3103598022112627
1.0654885388763569 13.046517369737424 2401.443746848096 28.061060837923947 0.3149358683990811
1.0918087240635266 13.052636575600317 2118.611705355702 29.340778440176646 0.319606157118406
1.1182985960332574 13.058478099596021 1871.1196141521448 30.677846031769533 0.3243739377298243
1.144923237585091 13.06394782071023 1654.2167938049274 32.075863561245995 0.32924863409138944
1.171676194989018 13.068952282904823 1464.1425878380533 33.53657265227103 0.33422665799223844
1.1985249429622937 13.073414524262702 1297.235403354307 35.06458729772661 0.33932208263668806
1.2254637343345494 13.077292929776615 1150.6097978320913 36.66207350956007 0.34453255770111463
1.252451848801063 13.080458317042671 1021.6116803124952 38.33381946968885 0.3498709377437921
1.279486028360867 13.082908048270653 908.013035142124 40.08231230170818 0.35533530001519237
1.3065236623589256 13.084510317483 807.9813879047329 41.91290818366303 0.3609395357213121
1.3335522532915656 13.08523185519088 719.5932139629571 43.82890393782288 0.3666845748264994
1.360556297331626 13.085044019659511 641.579262425993 45.83531256714606 0.3725799970517719
1.387482189961968 13.083800735058555 572.6558456108407 47.9372954986868 0.37863483144632243
1.414331790169594 13.081524088117998 511.59966100837244 50.13940425252974 0.38485371268722757
1.441058727018067 13.078105050379937 457.56702114802493 52.447232266610655 0.3912455791477952
1.4676413096343262 13.07350946653205 409.643133033675 54.86699609658791 0.3978211181947263
1.4940469480735725 13.067660617240477 367.12775060342915 57.40487329616553 0.40458937020044416
1.5202548299413572 13.060538190645302 329.34821033095034 60.06747842582358 0.4115600839292357
1.5462360075034522 13.052074892620608 295.75908380130943 62.86190238207349 0.41874377483599556
1.571950476314074 13.042218018970111 265.88275003846763 65.79575549053064 0.4261517881203768
1.5973665677375748 13.030908208917204 239.28343264433968 68.87721474464999 0.4337963670929482
1.622463774736772 13.018116842719888 215.50052929263563 72.11507561943023 0.4416907274781098
1.6472109013849148 13.003812311659251 194.4125224764007 75.51880894319963 0.4498491383540018
1.6715594727089278 12.987910695513493 175.51736970042876 79.09861537427108 0.4582869771117346
1.6954984187338882 12.970393102919665 158.63191868991652 82.86410443286813 0.4670151248451996
1.7189716752439446 12.951206489323905 143.52054582488537 86.82825942552358 0.47605624955644366
1.7419771205972872 12.93033140697308 129.99800319678462 91.0029572340164 0.48542594839726805
1.764456279284614 12.907706019416658 117.87500006489603 95.40161387116929 0.49514352780808324
1.7863839206179017 12.883300249211217 106.99888191665995 100.03853160617162 0.5052290837864948
1.8077258262413307 12.857080984644078 97.24412548410514 104.92987038130205 0.5157069605743748
1.828452826951427 12.829015760441122 88.48266647070064 110.09186112229743 0.5265986321697889
1.8485294559173315 12.799064691290262 80.5964205532963 115.54251726528304 0.5379290163093754
1.867351221600893 12.767454907971974 73.66643849735043 121.36401018216283 0.6555204268918347
1.882213269326128 12.73323670338008 68.13540870468563 127.8511546897679 0.8464491672215052
1.893035187857593 12.694303676463477 63.67369629797119 135.07400491262902 1.036359818177189
1.900160455898162 12.649666714861883 60.00224183534328 143.07789913856232 1.22567178616304
1.9040668809974144 12.599281981688804 56.90163183898157 151.90934728081146 1.4151242301603373
1.9050983569465778 12.543029057312426 54.250085937459076 161.62054503587964 1.6054065133243587
