M[M_sun], R[km], Lambda[1], P_c[MeV/fm^3], rho_c[fm^-3]
0.24162668629717493 15.618656898711224 2160425.4255784233 3.5677272577965504 0.1711233750220791
0.2536417795616456 15.27737359016198 1723227.2895960114 3.7847992797811907 0.17388791969657577
0.26603799255850824 14.981278375402084 1383021.0196973071 4.011358756626458 0.1766661447811968
0.27881212175672504 14.723546818880067 1116467.3359236405 4.247662412284247 0.17945675101075856
0.29196451029046383 14.498504718730512 905957.526851881 4.494335095429862 0.18226629852291704
0.30549930246682183 14.301273951633688 738702.2643376376 4.751530494985192 0.18509045606660787
0.3194131729161896 14.128241163392646 605177.7476816154 5.019934035179881 0.18793591143788518
0.3337106692187568 13.97604109556441 497746.85736167314 5.299765429049003 0.1907992028086787
0.3483890692732135 13.842126763793905 411068.4258883752 5.591758293276099 0.19368672817756402
0.3634497480809281 13.724089030562782 340706.3151628479 5.896073580406584 0.19659343380092728
0.37890203777677944 13.620091310950817 283348.42158558295 6.2135779447989155 0.19952705473562832
0.3947316774268685 13.528542022506565 236458.78087684364 6.544533227311 0.20248384826574126
0.41095451431720453 13.447959362461466 197912.02714472398 6.889632947434879 0.20546737582048238
0.4275608072142091 13.377137414745354 166122.9592766215 7.249586019200075 0.20848078194345648
0.4445535855586032 13.315009374596727 139833.48964994354 7.624657808284332 0.2115197160200703
0.46193225562848034 13.260646589556316 118011.56516163636 8.015784481185756 0.21459014222201006
0.479694632698404 13.213229564081479 99846.11956286283 8.423676711343768 0.2176938022241083
0.49784917938705575 13.172055738273633 84665.96177044825 8.848784090329264 0.22082829097027631
0.5163848741417468 13.136463167254924 71956.58960173932 9.291962390087622 0.22399676962460838
0.5353011265572936 13.105894759485214 61296.88772777363 9.75410430451022 0.22720227602951334
0.5546053394210948 13.079855035621692 52316.16169485296 10.236019083137071 0.23044616057800865
0.5742856027443278 13.057882609122132 44745.37901217273 10.738190014523425 0.2337252756417008
0.5943390973965105 13.039556469157493 38341.58412849266 11.261837437100594 0.23704550488311465
0.6147724267990263 13.024534652740348 32912.88968989539 11.807910020999483 0.24040861035436234
0.6355718122352487 13.012450507949604 28303.92495805523 12.377386338760962 0.24381622422919252
0.6567402372341867 13.003041212493816 24185.531896424272 12.970972040056425 0.2472664868246298
0.6782698758888223 12.99599050433523 21036.330295376363 13.589960384845282 0.25076381065277076
0.7001548344267842 12.99107673936461 18179.937430652586 14.235564397943106 0.2543110130940621
0.7223853686612622 12.98800990439873 15735.34504487252 14.908973202409785 0.25791007768970076
0.7449699879847835 12.986649468007068 13639.721921735907 15.611237383041937 0.2615611134650272
0.7678872254087198 12.986751347055392 11840.804802625928 16.343580873529483 0.26526559643522085
0.7911290030976853 12.988132618981604 10293.46599339668 17.10763906335535 0.269028420129222
0.8147004405309021 12.990645825968363 8960.267114229662 17.904866253384064 0.27285201565833694
0.8385774466227699 12.994125764278435 7810.254381362773 18.736651910199257 0.27673768385931985
0.8627564665452915 12.998387601249158 6817.9423778478695 19.604291443805707 0.28068547092073454
0.8872276007587536 13.00333388666388 5958.706305716862 20.509893026675226 0.2847019473654849
0.9119850058784567 13.008821197601899 5213.6683286165535 21.45524978826398 0.28879012455835923
0.9370022166100287 13.01471584619971 4567.624630996732 22.441876448153273 0.29295017406549595
0.9622770172391565 13.020912396817705 4006.711032522296 23.471735996194848 0.2971853993285139
0.9877978617680153 13.027310880771974 3499.0525101915464 24.547279164507025 0.30150214015982346
1.013537313988936 13.033760149196064 3093.766907426824 25.67048411913757 0.30590229903481614
1.0394959896950875 13.040222514104768 2722.9089601553897 26.843238626912385 0.3103865967420748
1.0656474739330422 13.046556115998838 2399.4718664851707 28.068672790550877 0.31496402832177883
1.0919736658114354 13.052678140626565 2117.0416776108045 29.348882782787413 0.3196353277757131
1.11846799509088 13.058512881642486 1869.6144253806037 30.686539490060657 0.32440460446726826
1.145094868570882 13.063976034417864 1652.890714016472 32.08512880591824 0.32928050203346176
1.1718554566352026 13.06898166266865 1462.9567680846158 33.546496122285305 0.3342601011093391
1.198706660026574 13.073445497211159 1296.1628033216834 35.075226848170765 0.3393572647456182
1.22565051738606 13.0773167570225 1149.6964647376467 36.67339827382357 0.34456908963759286
1.25264324923775 13.080480849935823 1020.7940700872107 38.34595969774579 0.34990939532487386
1.2796824766514803 13.08292070561645 907.2620742979835 40.095236355695164 0.3553752827205806
1.3067235105761903 13.084518652665851 807.2362382028525 41.92666946672997 0.36098113816484867
1.3337578145015234 13.085232143323166 718.9760394803099 43.84365667734316 0.36672842759790875
1.3607628486505963 13.08503861309942 641.0267585947756 45.85102586118399 0.37262568917634453
1.387692149981803 13.083783817730755 572.177388989548 47.95403643756452 0.37868248156246104
1.4145459577761506 13.081501678573323 511.1394075975293 50.157356331319605 0.38490401639035676
1.4412677085202354 13.07805404625207 457.1576928156358 52.46636699684444 0.3912981159478533
1.4678603733905442 13.073465336194582 409.2870687066233 54.88739817067343 0.39787603690893153
1.4942668547366722 13.067608003556606 366.77147279665206 57.42663426503228 0.404646831147492
1.5204774489660688 13.06047310247908 329.05511155296773 60.09069731281769 0.4116202598735179
1.5464600111130369 13.051995251626737 295.48642333319754 62.886686358091644 0.41880685202537526
1.572174884199449 13.042126088459973 265.63723417307324 65.8222206172101 0.426217967427554
1.5975979629582158 13.03080915291745 239.08082982221057 68.90548679326284 0.43386586527163196
1.62267884191601 13.01797602605336 215.37872306076005 72.14529097406691 0.4417637785465434
1.6474365873173358 13.003672933955045 194.22792968602496 75.55111559789559 0.4499259951199102
1.6717857729314392 12.987752662472838 175.35090739279417 79.13300542731032 0.4583672087120274
1.6957249407386699 12.970217120733793 158.4739275132932 82.90091325480945 0.467099711410816
1.7191870153900237 12.950978966498855 143.38909228839856 86.86767640812809 0.4761455096285184
1.7421925764010844 12.930098414929748 129.8710486578108 91.04499878770636 0.4855194753792886
1.764673499975837 12.907463810482845 117.7596220454957 95.44668479553081 0.4952424234799808
1.7866019656778058 12.883044651246806 106.89490071558583 100.08667113951438 0.5053329668109738
1.8079423344718224 12.85680440755996 97.15016763583856 104.98132803571801 0.5158162310113865
1.8286559565382066 12.828687823879305 88.39151828391482 110.14712665053753 0.5267145327383117
1.8487388251373513 12.79873762988738 80.52240492784745 115.60167731894595 0.5380512205656779
1.8681281410574258 12.766853027043833 73.43181436647058 121.36532511362721 0.5498561736356163
1.8868010974756864 12.733022826323364 67.05162512235921 127.45936695711757 0.5621587752993585
1.9047289874800528 12.697226723964986 61.29922152927409 133.90639324314202 0.5749889052997788
1.921875881789841 12.659434585750832 56.11308121775664 140.73170585389914 0.5883815675689379
1.938194038320835 12.6195639852967 51.42710225466751 147.96313025921657 0.6023756244374505
1.9536980421151684 12.577754099645926 47.19787220442924 155.62934201326905 0.6170075133410319
1.9683198372043211 12.533845083051455 43.36882924617678 163.76370854279074 0.6323239454216265
1.982044618687176 12.48786904655425 39.90537036966616 172.39987353878897 0.6483661345747974
1.994838878024643 12.43981552298986 36.77134814369194 181.57737948747848 0.6651881934160923
2.006678082502893 12.389665158661575 33.92728427600211 191.33801065635305 0.6828439065228546
2.017537790403875 12.337433385279008 31.348942858598576 201.72774364343204 0.7013924320439031
2.0273840455085033 12.28307627039579 29.01074125507716 212.79670264462115 0.7208971445746938
2.036202568744489 12.226634915149553 26.888242550134706 224.59983110744213 0.7414267334571633
2.043957136583501 12.168068323742192 24.95820321060352 237.1986968183029 0.7630598139727175
2.050627001835012 12.107390998313884 23.203090518550166 250.65966847297761 0.7858775360623775
2.0562042048992786 12.044651840318018 21.607411900148506 265.05601478634475 0.8099688092055147
2.0606706508898913 11.979851236174968 20.155638916580656 280.4696004025179 0.8354339577530864
2.0639909997934107 11.912999035704521 18.833542880398134 296.989447788136 0.8623778992767953
2.0661587801756323 11.84411379062124 17.629373476053395 314.71606115163564 0.8909218207957335
2.0671647077613797 11.773252688053365 16.53337412210594 333.7589646741704 0.9211923073630989
