M[M_sun], R[km], Lambda[1], P_c[MeV/fm^3], rho_c[fm^-3]
0.24162668629717493 15.618656898711224 2160425.4255784233 3.5677272577965504 0.1711233750220791
0.25364357917216873 15.277281857456073 1723251.3161068873 3.784811024609518 0.17388806609019497
0.2660383217086428 14.981304574530084 1383016.9550923721 4.011383446493197 0.17666644314366536
0.27881329360126944 14.723569779496385 1116477.499673479 4.247700882376465 0.1794571972058551
0.29196665425938123 14.498475496426098 905951.3857018462 4.494388355118641 0.18226689158191253
0.3055029044145998 14.301227794716652 738670.4450411081 4.7516003525512245 0.1850912106616462
0.31941790713699647 14.128179435776012 605130.2725824795 5.02002100509074 0.18793681378427762
0.3337149719525739 13.975979746620467 497704.78697287926 5.299871800824588 0.19080027379595615
0.34839529683528275 13.842074808287583 411034.76860189374 5.591884332375718 0.193687947640525
0.3634573421440105 13.724065046770209 335733.9022597935 5.896222118280273 0.19659482890007093
0.37890985895827833 13.620045616336128 283324.52886164683 6.213750778776337 0.19952863077339675
0.3947416153507043 13.528494306510408 236421.28764033003 6.544730177822183 0.20248557525565725
0.4109648792910781 13.447938405782402 197884.55138375846 6.889857816334897 0.20546929089839752
0.42757170863688365 13.37710286480336 166094.22691764668 7.249840916397275 0.2084828906426444
0.44456574684363415 13.314969589011238 139814.61767574857 7.62494202915527 0.2115219786009564
0.46194704899343325 13.260613039104246 117996.70878076293 8.016102982867594 0.21459260609001662
0.4797100460496953 13.213187432704194 99835.87361360258 8.424031977179462 0.21769647332654019
0.4978663455132249 13.172042365968974 84654.91897889871 8.849174810305323 0.22083111994984478
0.5164036138014141 13.136420595192927 71946.48377824717 9.292394886800059 0.22399981442842695
0.5353206889974335 13.105863416874753 61286.90608568157 9.754581510053992 0.22720554323126563
0.5546265492053819 13.079818385433063 52308.019089843605 10.23654410775816 0.23044965703717235
0.5743066934940245 13.057863268730744 44737.68311297863 10.738760576944745 0.2337289388291838
0.594361868319334 13.039543601823427 38333.92399053466 11.262462117071157 0.23704940789487514
0.6147977764762196 13.024517273727756 32906.83669310626 11.808592508383034 0.2404127610163594
0.6355989800776747 13.012457516429057 28299.64125502103 12.378130553603452 0.24382063078049784
0.6567685759067504 13.00303027333342 24374.932495836347 12.971774564835052 0.24727107372717363
0.6782980175104281 12.995995272850672 21031.46594921115 13.590832614610258 0.2507686669944178
0.700186749501947 12.991067034785601 18039.69709739237 14.236511008868405 0.2543161485045312
0.7224199517802249 12.988001464969475 15733.41319603625 14.909999171098239 0.25791550237289845
0.7450047814657536 12.986655509639018 13636.683557473118 15.612337996303085 0.2615667390699526
0.7679242112751828 12.98674644693552 11838.28282524108 16.34477103457026 0.26527152908950646
0.7911675449836456 12.988130006010785 10291.28439308562 17.108924744589306 0.26903467196169456
0.8147403740492212 12.990653387748555 8958.167834726857 17.906253823156742 0.2728585995776923
0.8386207878350049 12.994119274084248 7809.145576953731 18.738135214393925 0.2767444988746121
0.8627992609862108 12.998397620014478 6816.00700957259 19.60588976700712 0.2806926415889296
0.88727330264657 13.003334769015506 5956.713357719844 20.51161406056334 0.2847094892028331
0.9120322949535254 13.008835583975381 5212.358717559155 21.457101751184116 0.2887980541272789
0.9370499385083687 13.014738178460224 4566.254651731973 22.443851626017146 0.29295837782984674
0.9623282342368057 13.020922195617636 4005.6557910418037 23.47385917330543 0.2971940221816174
0.9878508727677676 13.027317595129517 3517.3624279663322 24.54956033308583 0.3015112021596655
1.013592443779588 13.033776051344047 3092.520786216632 25.67291444977841 0.30591167814881437
1.0395535534842248 13.04023524705712 2722.172229484764 26.845847827343935 0.3103964538314677
1.0657033128942472 13.046560339469846 2398.9594078370974 28.07147307259991 0.3149743877827342
1.09203317203095 13.052686741117755 2116.2089282404804 29.351864222645943 0.3196460591285904
1.11852994001573 13.058525695988713 1869.077442481588 30.68973767853665 0.3244158862843548
1.145158584831251 13.063979940717978 1652.5381668398581 32.088533305803935 0.32929219955973926
1.1719191099584816 13.069000845025837 1462.5237319315245 33.550146862594055 0.3342724044805867
1.1987750851499963 13.073457573644305 1295.7818981993946 35.07914105692039 0.33937020797280887
1.2257191230395539 13.077323426299033 1149.3472404907789 36.67756459351026 0.3445825295399697
1.2527128904978804 13.080485518167224 1020.4425451561312 38.35042605720768 0.34992354377252577
1.2797533113301072 13.08292821365456 906.9857960107463 40.09999111335731 0.3553899923523254
1.306796865447586 13.084520566747992 807.003763758741 41.93173227396991 0.36099644379814694
1.3338311802278662 13.085240795572378 718.7321199213968 43.84908428797641 0.3667445612636643
1.3608383676477303 13.085034914521282 640.7751526574594 45.856806904004145 0.3726424996635702
1.3877683958498392 13.083779108389242 571.9799936964438 47.96019560134101 0.3787000125307903
1.4146242227315082 13.081492299580615 510.968794976969 50.16396114234803 0.38492252379872366
1.4413470443222418 13.078045310879222 457.017885631978 52.473406971619816 0.39131744508093586
1.4679401291791099 13.073449600667123 409.1416673200756 54.89490447644267 0.3978962425340827
1.4943486160376744 13.067590071866059 366.6505751142827 57.434640593385765 0.40466797226544426
1.5205599439805073 13.060448464612476 328.9390909773193 60.09924010567549 0.41164240006598946
1.5465421205254553 13.051967365719554 295.3824050926212 62.895805056237904 0.4188300598371261
1.572258266353527 13.042091368163453 265.5498012303141 65.83195793388411 0.4262423167865825
1.5976815882550206 13.030768100205494 238.99657412691155 68.91588901562383 0.4338914359516436
1.6227686080158985 13.01795384846132 215.30288350487925 72.15640829569438 0.4417906566763146
1.6475203452659541 13.003621700018243 194.15261105188114 75.56300248587978 0.44995427374472535
1.6718698330587913 12.987692720136428 175.29232611819378 79.14565897158026 0.4583967292860432
1.695806959644806 12.970153079701076 158.41291805097495 82.91445688706078 0.46713083463828414
1.7192720351840671 12.95091423941004 143.33133414724574 86.88217983396272 0.4761783527522126
1.7422745300820213 12.930016145904773 129.82020612985335 91.06046804457036 0.4855538887817822
1.7647542567356727 12.90737581409536 117.71856913478298 95.46326887434567 0.49527881265194545
1.786682806839174 12.882949168858588 106.85528391808379 100.10438447958272 0.5053711914303699
1.8080217690449112 12.85670201579482 97.11672167785788 105.00026247244473 0.5158564383274639
1.8287336756502928 12.828576189594987 88.35907671911444 110.16743493969385 0.5267570777448973
1.8488144064469558 12.79862038613024 80.4912193881006 115.62344637329005 0.5380961879200297
1.8682025090079821 12.76672171909245 73.40496284714409 121.38864712129926 0.5499036486966743
1.8868748366663715 12.732882566151687 67.03102143385573 127.48437283018498 0.5622089618870795
1.904799325164664 12.697079175813077 61.27667600423265 133.9331343342663 0.5750417005166931
1.9219442432382834 12.659275102051193 56.09152366614686 140.76042757756397 0.5884375284089565
1.9382600250932176 12.619396681332645 51.40876659797925 147.99400457716152 0.6024350127241108
1.9537604655860927 12.577567726393236 47.177770875470344 155.6624561316063 0.6170702679100509
1.9683798025319155 12.533650850493776 43.35316841614435 163.7993048115547 0.6323905028280248
1.9820995126895944 12.487664150207419 39.89268443229889 172.4381958027481 0.6484368924451284
1.9948925737524141 12.439601534025819 36.75776817458396 181.61860836443702 0.665263292387143
2.0067255086626647 12.389436464817953 33.91532443537167 191.3824138195213 0.6829237306218181
2.017584779468458 12.337194511660794 31.338575266761225 201.7756163636579 0.7014774014000495
2.0274249029385287 12.282823884053673 29.001009933159384 212.84825030541913 0.7209873241232613
2.036240840172961 12.226371805330022 26.87900228293434 224.65553070472083 0.7415230115370789
2.0439911056918687 12.167792282136142 24.95043176527872 237.25881964984865 0.7631623289234805
2.050655842659457 12.107103559257508 23.195248452595116 250.7247793010241 0.785987298200884
2.0562283328801896 12.04435039988007 21.59999435806229 265.1264681117513 0.8100860476322431
2.0606870966947177 11.97953850868905 20.1483774534124 280.5457944711848 0.8355589337597142
2.0639989671098635 11.91265705887469 18.82716231840088 297.07211186627393 0.8625118298952205
2.0661666816872435 11.843773407394053 17.62373102541405 314.80585885569485 0.8910655692580832
2.0671669720548485 11.772895992071366 16.52779179073975 333.85648812070184 0.9213463378567773
