M[M_sun], R[km], Lambda[1], P_c[MeV/fm^3], rho_c[fm^-3]
0.24162668629717493 15.618656898711224 2160425.4255784233 3.5677272577965504 0.1711233750220791
0.25364001118995394 15.27741422258567 1723269.6126951866 3.784763805102558 0.17388747752182016
0.2660331740915914 14.981401125251912 1383157.1122364607 4.011284182753463 0.17666524359995214
0.27880460576734617 14.723745593966653 1116575.8860893068 4.247546217277007 0.1794554033237767
0.2919564175829163 14.498602921962064 906082.1056538167 4.4941742312882385 0.18226450726336543
0.3054872520801853 14.301478825345017 738886.5170262622 4.751319500840937 0.18508817692716154
0.3194000596025018 14.128366723530641 605224.1030006858 5.019671357901319 0.18793318605973597
0.3336928021894262 13.976204097337007 497862.0322509889 5.299444154505632 0.19079596810711782
0.34837118114890664 13.842203215868077 411150.0387621057 5.591377620461316 0.1936830450633615
0.3634281683519806 13.724240422368968 340796.3777139674 5.89562495870432 0.19658922025096115
0.37887506859819803 13.620282323532045 283435.95130836766 6.213055946928246 0.19952229474357416
0.39470347236554487 13.528703943542995 236520.11226034412 6.543938396370038 0.20247863240196629
0.4109231496192064 13.448103899281032 197990.89385995606 6.888953802551725 0.20546159193766536
0.4275242015066813 13.37730126082855 166189.61440178705 7.2488161894031595 0.2084744133388371
0.4445151974938766 13.31513050703611 139888.9544559903 7.6237994223438 0.21151288271604332
0.4618900250511913 13.260761759448496 118056.08044177992 8.014822569867754 0.21458270106029342
0.479648284375573 13.213342101290591 99875.78790427367 8.422603776275107 0.21768573525232768
0.4977980611820019 13.172166512358332 84704.31462206054 8.847604088441042 0.22081974725242956
0.51633184968031 13.136552709548837 71993.0608884324 9.29065622933086 0.22398757417145115
0.5352440742090462 13.105964920636026 61323.9197413323 9.752663131748015 0.22719240899792612
0.5545429618569725 13.079946427935559 52346.456201842484 10.234433507411014 0.23043560126220822
0.5742179308692381 13.057948966959797 44769.09013932387 10.736466925581176 0.23371421287694544
0.5942669972760507 13.039612248467137 38361.38093215081 11.259950928044097 0.23703371794039083
0.614696749627566 13.024581741643374 32932.99458614577 11.805848951070471 0.24039607561037468
0.6354902624644648 13.012498676377584 28321.401368455845 12.375138872320994 0.24380291681363278
0.6566555607642983 13.00308265628077 24394.883770259963 12.968548497573728 0.24725263484961907
0.6781783699813022 12.996023425996844 21048.709101301145 13.587326359845317 0.2507491451072685
0.7000592353089508 12.991083610061855 18191.07198073314 14.232705772185192 0.2542955049098101
0.7222853966294925 12.988020774165065 15745.713563047357 14.905874950737 0.25789369606521195
0.7448641669016709 12.9866558692529 13649.172625701143 15.607913737689943 0.2615441251946489
0.7677759509174736 12.986756292747206 11848.62979454906 16.339986837219328 0.2652476810656302
0.7910125849611775 12.98811459752534 10232.595633296898 17.103756604863634 0.26900954104828756
0.8145769201991717 12.990646762385571 8967.191953668558 17.900676146309948 0.2728321338998773
0.838451259250864 12.994094255314653 7816.299704434125 18.73217273676012 0.27671710437495356
0.8623091575387416 12.998126557541566 6833.500190139062 19.604965442531018 0.3161810242932302
0.8837458857503258 12.999339948637516 6059.7891035475095 20.556077929387754 0.38111340323065623
0.903122351601246 12.996041388114936 5428.307901051758 21.586317116262965 0.4440112008243458
0.9208437130202758 12.987856572250383 4898.139462305856 22.69965669411407 0.5043203209369251
0.9372850076671679 12.975005039018274 4442.814033049271 23.897295190826934 0.5623554369371861
0.9526807668201244 12.957445004773152 4043.1591990959764 25.181506803430363 0.6184546678858951
0.9672899436785881 12.935604112198623 3688.7323060700733 26.554396409950805 0.6726707909168113
0.9813197970889597 12.909798858972772 3368.4089500084397 28.017110601558706 0.7249354378652992
0.9948848554070712 12.880180048245608 3061.942528693317 29.572818813940298 0.7756901031610527
1.0081698922097344 12.847212265796223 2813.0832788914267 31.224453090279212 0.8251331529693922
1.0212340396668547 12.81107273031919 2569.254251772829 32.975097881883976 0.8734308314893156
1.0342282734200872 12.772110103164076 2344.9584066501056 34.82823747889064 0.9207462263280579
1.0471927390913904 12.730604235155607 2137.9482647441146 36.78753444325322 0.9671865426828764
1.060189991485643 12.686729131093783 1946.858716347264 38.855480074697546 1.0124793638053549
1.0732954117164644 12.640852957633578 1770.7593229484596 41.0382309922041 1.057296414127626
1.0865318107183168 12.593151266595795 1608.206885065132 43.341582103145036 1.1023007847623925
1.0999139602144061 12.543812056962013 1458.8274796398948 45.76830339587044 1.1474793795879672
1.1134738901886154 12.493110768835635 1321.5950746284439 48.327215965548824 1.1931106041779251
1.1272186146656045 12.441237002878092 1195.8782639451779 51.02256579280266 1.2392300850629876
1.1411494603865469 12.38826125731381 1080.889375286846 53.86395806244046 1.2860824594912779
1.1552415825455524 12.334271868323443 975.9415581423972 56.856315579291625 1.3337080773629584
1.1695158002768289 12.279596089658757 880.439878182892 60.00884583024628 1.382299068811243
1.1839249821183084 12.224124768925929 793.7073112096654 63.33089301008266 1.4320300376872246
1.1984777636431585 12.16813006404541 715.1072269407929 66.83175568492472 1.483064781393005
1.2131375265344952 12.11157612125739 643.9867982015656 70.5217486533709 1.535596653810583
1.2278753211365625 12.05448112092513 579.6317183737717 74.41227719612023 1.5898577064891897
1.2426832417190212 11.997047402569931 521.671016710529 78.51390641951568 1.6460956900913495
1.2574980835365204 11.93929513361732 469.5470006795057 82.8407312176931 1.7047129086816204
1.2722912957137595 11.88092014926222 422.5724418348769 87.4078387389476 1.7662765875492772
1.2870282459618028 11.822257168901658 380.4034361494969 92.22880922708404 1.831683505994058
1.3016583387796132 11.763234809892635 342.5566312576001 97.32207633798292 1.9027262911199847
1.3161287085232154 11.703841098779446 308.6797982071173 102.70765933355096 1.983388030180227
1.3303565019697028 11.644088968951628 278.38695594011364 108.40956692850337 2.0849583155517197
1.3442075864875003 11.583883981273178 251.38301862128318 114.4565942212465 2.180218979535184
1.3578888958329056 11.522881017547448 227.07637015309845 120.84502715296608 2.2275585146196835
1.3714215388190651 11.460978269511989 205.07195591247753 127.59098230136304 2.277140281932099
1.384790480174946 11.398604848017323 185.26376334118123 134.71739279315807 2.329102541683502
1.3979404598160412 11.335854124635771 167.46185510068653 142.25455364070743 2.3836412391310606
1.4108341027278748 11.272306097735232 151.41402427343988 150.22959612352577 2.440898072528351
1.4234291013413654 11.208454285455925 137.03411197815853 158.67620151218878 2.501058522001128
1.4356567413527914 11.144212386323868 124.13862626300336 167.6298296260953 2.5643108734985813
1.4474699081061377 11.079419486472847 112.5728589793507 177.1275305176195 2.6308423470595903
1.4588396030530377 11.01415695177893 102.18832857138818 187.21260117170638 2.700882894907775
1.4696887815896855 10.948290573818289 92.89709169306808 197.93008060168856 2.7746587300162737
1.479978805226433 10.881879967001984 84.56295353442991 209.33051049402795 2.852427019995384
1.4896720520899085 10.814932091650803 77.10928427455498 221.4682488857643 2.9344561518604633
1.4987414853208305 10.74702478274686 70.39482381764871 234.40373910403125 3.0210453058982134
1.507112092259959 10.678506985612104 64.37846445363039 248.20266767756354 3.112512111955244
1.5147551267581865 10.609298436903337 58.98673112934052 262.9379940154896 3.209209228346026
1.5216421792402124 10.539223918334228 54.139916766838724 278.68856003145 3.3115045879886758
1.5277382007814444 10.46823845898061 49.781749131583105 295.5423261722925 3.4198094523397318
1.5330145701432385 10.396473981046839 45.86457461625358 313.5972865661654 3.5345819945543417
1.5374357231834561 10.323700234548536 42.33759866467686 332.9594422998937 3.6562971737982077
1.5409805492474729 10.250076096589677 39.16475602324941 353.74798900168076 3.7854940784816273
1.5436324442155263 10.17551343507241 36.2318276984475 376.0937090761848 3.922747627655884
1.5453556943864704 10.10001129458157 33.72768609953428 400.14240457374757 4.068694423734087
1.54615471695991 10.023598429462083 31.40118625140686 426.0554529470235 4.2240243612807165
