M[M_sun], R[km], Lambda[1], P_c[MeV/fm^3], rho_c[fm^-3]
0.24162668629717493 15.618656898711224 2160425.4255784233 3.5677272577965504 0.1711233750220791
0.25364389446036484 15.277281374545073 1723160.5633374387 3.784817675701687 0.17388814899285027
0.26603967390789535 14.981279241148055 1383079.8129098725 4.011397428404298 0.17666661210680948
0.2788144490178893 14.723531688634418 1116344.7520496165 4.247722668123889 0.1794574498876948
0.2919688656619164 14.498422031143964 905918.6846217219 4.494418516364079 0.18226722743438054
0.30550463965084323 14.30121511812759 738644.2021475113 4.7516399133931815 0.18509163799424233
0.319420392395612 14.128137570535625 605153.9734976285 5.020070256929897 0.18793732479111835
0.3337179103623604 13.975958502821547 497696.3645264593 5.299932040306722 0.19080088030758585
0.34839887347362686 13.842044604746063 411016.30669762194 5.591955709888829 0.19368863823759963
0.36346088565819396 13.724015940589263 340663.0294688163 5.896306237393312 0.19659561896458208
0.3789145423177484 13.62001848030228 283316.99924469227 6.213848657423501 0.1995295233088053
0.394745889442294 13.528485732087196 236405.9708958521 6.544841714365383 0.2024865532804626
0.4109711814062947 13.447906975111724 197874.17778962446 6.889985163941941 0.20547037544405847
0.4275786849658563 13.377069514575236 166087.5456454287 7.249985270047532 0.20848408484339828
0.444573138466035 13.314963215292034 139809.60026697486 7.625102989856516 0.2115232599516357
0.46195519757159 13.260565403326185 116660.88688162847 8.016283358104667 0.2145940014383025
0.4797188007106615 13.213184553822522 99815.85571997253 8.424233173447051 0.21769798604120524
0.49787491364452685 13.171997875003763 84645.58363156597 8.849396085750548 0.22083272207861193
0.5164135605389379 13.136411798905574 71943.44210847492 9.292639822275225 0.22400153878944207
0.5353303789903225 13.105859433112814 61279.96528474984 9.754851766230791 0.22720739354810693
0.5546367430422444 13.07981883559599 52301.583880147155 10.236841446215287 0.2304516371953047
0.5743196593075652 13.05784726236861 44733.64628942672 10.73908370574191 0.23373101341615438
0.5943750077592951 13.03953094772415 38330.34398335438 11.262815895488012 0.23705161830882573
0.6148123367896813 13.02450719265174 32627.080092675445 11.808979026301952 0.2404151116901973
0.6356163630547443 13.012434071138207 28294.230994664256 12.378552031286167 0.2438231263811321
0.6567847963389537 13.003036069313442 24372.47395538248 12.972229066794037 0.2472736714739939
0.6783162454330381 12.99599012523481 21029.26056771378 13.591326594714493 0.250771417343293
0.7002043978563417 12.991067095992813 18173.65456124422 14.237047115665703 0.25431905691007123
0.7224381419370106 12.988005686055402 15731.165391855591 14.910580223306697 0.2579185746149538
0.7450244213361701 12.986643921040605 13635.27416428586 15.612961324572456 0.2615699251105956
0.7679440998730226 12.986750740883629 11837.237162458661 16.34544507983281 0.26527488903608387
0.791188649568008 12.988141952765506 10289.698285132949 17.109652889616875 0.269038212684393
0.8147612377289822 12.990668246488898 8957.033192041525 17.907039674989708 0.27286232838844865
0.8386445050388359 12.99412637350448 7808.24226442312 18.738975287520518 0.2767483585759633
0.8628244279129536 12.9984054296485 6815.267005425487 19.60679498407565 0.2806967027270255
0.887300453691416 13.003343746723823 5956.027149795101 20.512588778195838 0.2847137605666311
0.9120593021691542 13.008841804685803 5211.659028709594 21.458150624326787 0.2888025450983358
0.9370786604717707 13.014729443163908 4565.586269597659 22.444970285539824 0.2929630241046358
0.9623561798403113 13.02093853887407 4005.1108710244844 23.475061657089217 0.2971989058255561
0.9878808537842155 13.027329193098465 3516.897270077104 24.550852300875427 0.30151633453436766
1.0136226273279727 13.033785389063818 3092.136756801163 25.674290900667263 0.3059169901378839
1.0395866689389588 13.040234136747461 2721.7415585298204 26.84732558806529 0.31040203654537324
1.065736436628391 13.046565265667299 2398.577854480273 28.073059060191348 0.31498025504047517
1.092067893132721 13.052699810563585 2115.8629448381894 29.353552816252883 0.3196521370287736
1.1185649065032481 13.058533873784489 1868.7842663095882 30.69154903738623 0.32442227597006984
1.145195549249307 13.063986961833805 1652.2369468119189 32.09046151819075 0.32929882470757904
1.1719579291169218 13.069001154091447 1462.23246513811 33.55221454517638 0.3342793727840761
1.1988118712207727 13.073458955467482 1295.538056246144 35.081357968198695 0.3393775386974002
1.2257581325641733 13.077324674688846 1149.1946489758611 36.67992430041755 0.34459014158917783
1.2527528474412184 13.08049602442672 1020.2824383681688 38.35295570805001 0.3499315571518397
1.2797945389568015 13.082937010913716 906.8032037153254 40.10268411409762 0.35539832359694246
1.3068374329998549 13.084518452586744 806.8375722103025 41.93459975580168 0.361005112630146
1.3338736857397016 13.085240417968935 718.6702036776904 43.85215839837997 0.3667536991095965
1.3608812695355794 13.085034616966492 640.682083836039 45.86008120198354 0.3726520208773146
1.3878122167335465 13.08378049910473 571.8669299084653 47.963684071618104 0.3787099418433016
1.4146683707198877 13.081486309182122 510.87909950934306 50.16770203489201 0.38493300619188675
1.4413915639933181 13.078036786776757 456.9369041775658 52.47739434815993 0.3913283929229741
1.4679864196706898 13.073439822914594 409.07101984347315 54.89915599162068 0.39790768684832356
1.4943942944460091 13.067577685212331 366.57131242434207 57.439175331841746 0.4046799464733893
1.5206057437953584 13.060435099855974 328.8774927012484 60.10407871007604 0.41165494018425114
1.5465886968216158 13.051949478622854 295.3220620740285 62.90096986807611 0.41884320469387515
1.5723051191401178 13.042071301712841 265.4941672991991 65.83747314847783 0.4262561082596091
1.597728948496725 13.030746666579699 238.94905990355412 68.92178085290499 0.433905919230367
1.62281588428726 13.017929567104622 215.2646716711241 72.16270518858364 0.4418058805503649
1.6475680293603296 13.003590768476265 194.1208255449792 75.56973528825773 0.44997029092202645
1.6719174201831777 12.987658476341018 175.2549946884041 79.15282603451735 0.4584134499618789
1.695854149724894 12.970116605039296 158.38576311441452 82.9221281315013 0.46714846313566616
1.7193346014116504 12.95090807682665 143.298944333392 86.8903947465584 0.4761969554874279
1.7423205169759883 12.929969970243416 129.79421371586815 91.06923004482506 0.48557338100717257
1.7648002475354077 12.907326388393491 117.69330733418971 95.47266236333238 0.49529942406424643
1.786728386348823 12.882892302748232 106.83603389778976 100.1144176362812 0.505392842547249
1.808067422131612 12.856644605467471 97.09678521038154 105.01098732014394 0.5158792125640332
1.8287781078405205 12.8285133165039 88.3398888951914 110.17890822300012 0.5267810653283083
1.8488579603414392 12.798552538756526 80.47308997460196 115.63577690856648 0.5381216585509702
1.8682450992954902 12.766649398688177 73.3900637054454 121.40185734190034 0.5499305398648123
1.886916797562888 12.732804221906457 67.01690895561765 127.49853689763509 0.5622373890574348
1.904839510654139 12.696995186705502 61.26455416751057 133.94828133833076 0.5750716054058195
1.9219828970962523 12.659183024931446 56.08095416308276 140.77669654798024 0.5884692265501041
1.9382976143433832 12.619301068495187 51.398668063413744 148.01149293202022 0.6024686524447814
1.9537969184061637 12.577463855138085 47.168278515928016 155.68121327245356 0.6171058145695727
1.9684146419790407 12.53354227083569 43.34447416055708 163.81944439650826 0.6324281237400897
1.9821314887458512 12.487548702445606 39.88471610186003 172.4599032500055 0.648476972873046
1.9949211268204212 12.439481123689582 36.74910503372128 181.64196235950283 0.6653058320129768
2.006761526093895 12.389326009528554 33.90836056393035 191.4075660063575 0.6829689470097486
2.017610518472992 12.337060419613234 31.332388120695363 201.80273402236543 0.701525532569319
2.027448880099525 12.282682040205549 28.995584175470395 212.87744978972057 0.721038406874097
2.036262346499473 12.22622389671288 26.873250356723915 224.6870822541371 0.7415775491413807
2.0440100400038643 12.167636742898269 24.945621596587973 237.29287696306346 0.7632203997710698
2.0506723210591784 12.106939462822497 23.190790120200163 250.76162765566343 0.786049361713496
2.056249088102368 12.044201477541373 21.596874914800342 265.16637772945313 0.8101524595547989
2.0606979474846074 11.979360661446018 20.144694003965924 280.58895628512636 0.8356297291804026
2.064006353207337 11.912470475422062 18.82336857664968 297.1189390542986 0.8625876983303682
2.0661708902246843 11.843580350690685 17.62060559301658 314.85672740133805 0.8911469997945851
2.0671683038771755 11.772697892396152 16.526061810425766 333.911733495493 0.9214335935132907
