M[M_sun], R[km], Lambda[1], P_c[MeV/fm^3], rho_c[fm^-3]
0.24162668629717493 15.618656898711224 2160425.4255784233 3.5677272577965504 0.1711233750220791
0.2536480071572605 15.277180901335052 1723003.2076599156 3.784894907514128 0.1738891116501345
0.2660478305066002 14.981100437052548 1382773.987181724 4.011559787500673 0.17666857412067138
0.27882923400847226 14.723224456483113 1116166.7883292753 4.2479756498487 0.17946038409446727
0.2919877097841338 14.498130076932679 905652.3212377697 4.494768761718779 0.18227112749769284
0.30552863950837683 14.300878423553499 738414.4148239988 4.752099317800402 0.1850966004386268
0.31944925556504855 14.12782916193089 604860.3684964876 5.020642207170441 0.1879432589956165
0.3337521690289453 13.975588988413186 497479.5656657432 5.3006315977450145 0.19080792369021377
0.34844042319079377 13.841694895461968 410800.4499063234 5.592784623911183 0.1936966582087923
0.36350928355682693 13.723652971903697 340450.17872247886 5.897283134826029 0.19660479419200372
0.3789680872310897 13.619690722178737 283123.3083048823 6.214985364084906 0.1995398887048734
0.3948079814105041 13.528140575231717 236261.76480898578 6.54613705281431 0.20249791164874317
0.41103986650486185 13.447564446198289 197727.51933815403 6.89146414600674 0.205482971075953
0.4276559988366835 13.376746710297027 165953.0888610246 7.25166177907225 0.2084979541729073
0.4446572061818623 13.314676853970342 139694.7373670035 7.6269723946793055 0.21153814161604845
0.46204363427593037 13.260329096985947 117871.87331579569 8.018378272716488 0.21461020729649066
0.4798191184295656 13.212946885612114 99724.25250069897 8.426569939374785 0.21771555525424294
0.497984389306928 13.171791558143775 84566.66828353453 8.851966089060067 0.22085133000065077
0.5165315436173016 13.13620256145922 71871.42294089742 9.295484662975714 0.22402156664532866
0.5354571369994201 13.105678028270962 61213.094047980594 9.757990739919572 0.2272288846235359
0.5547730184124088 13.079654477769182 52244.4750532925 10.240269760249225 0.23047431186851647
0.574465843367239 13.057696012070595 44683.30037439244 10.742836877440546 0.2337551099410467
0.5945304185726605 13.039403118806455 38287.7212378061 11.266925119528809 0.23707729281499437
0.6149777778856024 13.024406686595512 32864.11260609569 11.81346858681028 0.24044241570875424
0.6357916701732345 13.012364154905589 28259.107698587857 12.383447727787024 0.2438521141633889
0.6569709516213551 13.002953811469954 24339.912169202158 12.977508416895873 0.2473038460742766
0.6785135408586227 12.995921821258847 21002.924155026994 13.597064585440574 0.2508033649383561
0.6990096019489174 12.990643481930276 18309.241953822788 14.206985707649137 0.3962729595515668
