M[M_sun], R[km], Lambda[1], P_c[MeV/fm^3], rho_c[fm^-3]
0.24162668629717493 15.618656898711224 2160425.4255784233 3.5677272577965504 0.1711233750220791
0.25364509323233064 15.277252345002854 1723158.0971308684 3.784841033814456 0.17388844014045762
0.26604191209808775 14.981224573524482 1383056.173849512 4.011446532053026 0.17666720549542536
0.2788189335290073 14.72343158811394 1116438.196337756 4.247799178802129 0.17945833729626326
0.29197446112932357 14.498325660165976 888625.7932804542 4.494524442019065 0.18226840694113286
0.3055109314536905 14.301150592124696 738561.318082681 4.75177885097795 0.1850931387853242
0.3194289417169818 14.128062365768466 605034.2227430355 5.020243230152386 0.1879391194550632
0.33372829320826647 13.97587402607766 497639.88719751616 5.300143603409104 0.1908030103969802
0.34841138524778537 13.841895478645817 410949.66438022867 5.592206391356798 0.19369106364976232
0.3634762213947329 13.723876003319168 340625.5447381631 5.896601669521472 0.19659839372564988
0.378929920871171 13.619951738604058 283254.32817893825 6.214192415729996 0.1995326579706486
0.394764337261357 13.528401514479631 236363.47038783226 6.545233442204833 0.20248998820441622
0.4109917822328469 13.447789236276966 197824.6608319359 6.8904324240939445 0.20547418449919835
0.4276017156109488 13.37697457503213 166050.11040086902 7.250492259982304 0.20848827904119827
0.44459842294289664 13.314878893141582 139774.48438950797 7.625668308549784 0.21152776025193284
0.4619802497499028 13.260498432686045 117947.18638377002 8.01691686671097 0.21459890213954197
0.4797492217290638 13.21309183194402 99786.54459932965 8.424939812487672 0.21770329897892743
0.4979079645391042 13.171936812846782 84623.1146645072 8.850173249938235 0.22083834907938749
0.5164493964381063 13.13633949214913 71923.52741239923 9.293500089392621 0.22400759512357996
0.53536959541326 13.105813260454308 61259.4113930566 9.755800969729252 0.2272138922977001
0.5546790385776267 13.07977727160395 52291.86629915812 10.237883946416757 0.23045856851153734
0.5743635421948576 13.057815249572407 44717.208859160244 10.740218620388795 0.23373829991973993
0.5944222850711048 13.03949577968019 38318.435479815016 11.264058465637541 0.2370593819096059
0.6148619350546096 13.024489816158107 32891.44698298684 11.810336593254558 0.24042336796231958
0.6356692004971897 13.012425536948951 28283.862797502887 12.380032394381038 0.24383189172086417
0.6568418802928911 13.003018645816836 24362.708985434034 12.97382542791748 0.24728279561955682
0.6783763619412347 12.995970810860916 21021.25859295358 13.593061624252206 0.25078107752291673
0.7002674279456046 12.991042765246446 18165.275570200207 14.238930117585289 0.25432927228738494
0.7225041531105681 12.988003666762292 15725.078654942192 14.912621099415958 0.25792936549625756
0.7450942675498324 12.986646220985882 13629.043766408948 15.615150698764008 0.26158111573919357
0.7680181082654122 12.986748160363243 11832.151372166074 16.3478126031682 0.2652866905461154
0.7912662796556357 12.988147520239353 10286.354332944378 17.112210445541123 0.26905064921279154
0.8148426409069086 12.990680867783466 8894.62981168841 17.909799934861162 0.27287542562417066
0.8387281295677097 12.994134346259878 7804.331053545367 18.741926007988237 0.2767619156097687
0.8629108258681509 12.998422728613221 6811.325965301299 19.60997453490649 0.28071096736636575
0.8873959867913153 13.003374367171626 5953.096868778824 20.51601246423981 0.2847287636897267
0.9121545668008874 13.008864994425645 5209.068365285439 21.461834798547127 0.2888183196654584
0.937177188507861 13.014760144127775 4563.378808379719 22.448899600201244 0.2929793442407268
0.9624645684551576 13.020960602545467 4002.8518649353905 23.479285426676203 0.297216059808853
0.9879866998308081 13.027355503919587 3515.0180173927083 24.55539040857475 0.3015343622819162
1.0137317203907543 13.033812831254439 3073.892012924432 25.679125779007535 0.30593564886454405
1.0396989100537473 13.040270007871552 2720.207772507824 26.852516349875465 0.310421646308794
1.065852581104209 13.046596533580745 2397.118076625054 28.078630006070398 0.3150008643917147
1.09218806906641 13.052725340273385 2114.657137005207 29.359484200438597 0.31967348636995374
1.118688427210469 13.058561484763388 1858.4234106703454 30.697911681369206 0.3244447206090088
1.1453217774343087 13.064021641269889 1651.2752956941756 32.09723465411723 0.3293220965354954
1.1720887063901673 13.069019377433648 1461.3433335270972 33.55947762889385 0.33430385012505925
1.1989455477233377 13.073481668624984 1294.75288083987 35.08914528385973 0.3394032892391452
1.2258950795400005 13.077346730324285 1148.4991910862093 36.68821324805358 0.34461688045115013
1.2528930655763484 13.080503974195665 1019.6501106732092 38.361781471270334 0.34995935282311896
1.2799372016465758 13.082946841482409 906.2578037148302 40.11214391656933 0.3554275890654741
1.3069889425724805 13.084552118542181 806.3584931736692 41.94467250968305 0.3610355640911449
1.334022391581963 13.08523929030571 718.1486300110671 43.86295704788176 0.36678579828056607
1.3610322750526307 13.085030553616754 640.2835866050547 45.871583118318554 0.37268546688759957
1.3879726739013065 13.083783061699076 571.4859893595606 47.97593838797842 0.3787448215834424
1.4148170860532434 13.081457211819451 510.59167156521465 50.180843138623906 0.3849698290127231
1.4415489653564812 13.078012389281591 456.6379162610234 52.49140137612699 0.39136685097379176
1.4681442220292726 13.07340982718939 408.7850039320379 54.91409097213198 0.3979478891298623
1.4945547546426283 13.067537504170081 366.3230834098785 57.455105317913116 0.40472201041326833
1.5207682183348452 13.060385677282454 328.6758891908114 60.12107622933853 0.4116989923290561
1.5467524069858265 13.051890383637721 295.12801916181195 62.91911341758162 0.4188893814698428
1.5724697899189022 13.042004310329311 265.31775105055914 65.85684773939994 0.4263045568092645
1.5978837863219708 13.030660617052188 238.77856985557693 68.94247861074447 0.4339567983333418
1.6229927000338584 13.017848021447072 215.10428475751 72.1848260151763 0.44185936163760214
1.647734355752674 13.00348782164305 193.9764908590963 75.59338759266285 0.45002655919368645
1.6720816699933443 12.987548566485897 175.1399666365421 79.17800402033863 0.4584721899147451
1.696019574790042 12.96998559038954 158.27032430451573 82.94907747950842 0.46721039265889724
1.7194991971679312 12.950765220256205 143.1965171649664 86.91925420181005 0.4762623079544508
1.7424810876338745 12.929815694423826 129.70367959380718 91.10001161921727 0.485641858679905
1.7649618891998233 12.907155852884271 117.6064744458153 95.50566262481155 0.49537183400653206
1.786873848852581 12.882678226008593 106.76280346252788 100.14966532028937 0.5054689055201611
1.8082245919800275 12.856440626847226 97.0307104004875 105.048665225439 0.5159592216749033
1.828937420063705 12.828302922489364 88.27980293609644 110.21921574004998 0.5268653376243472
1.8490102762041698 12.79831175886411 80.41485654282243 115.6790964108157 0.538211141694206
1.8683836510744027 12.766362205163551 73.34183674353868 121.44826765363014 0.5500250142520123
1.8870585326912268 12.73253128200251 66.96882902781839 127.54817106930318 0.5623368047899734
1.9049803637869076 12.696700266053927 61.220216640246754 134.0014966780059 0.5751766690095544
1.9221196889831074 12.658868195399156 56.04111641300523 140.83385406456108 0.5885805911283086
1.9384289646616253 12.618964263600638 51.36129758742446 148.07293495780294 0.6025868392383058
1.953922024072386 12.57710559058097 47.137330489724484 155.74711339783832 0.6172307019038724
1.9685345424379446 12.533163754088273 43.31736727557861 163.89020202549065 0.6325602995790657
1.9822447123346052 12.487147747996541 39.85658265814781 172.53616998124758 0.6486177910534525
1.9950284210371005 12.43905118918469 36.72512599607953 181.72401469755854 0.6654552914844654
2.006860441177997 12.388876598388105 33.88294461209958 191.495936860981 0.6831278123549543
2.017701994890575 12.336586160799333 31.310307961704975 201.8980112598106 0.7016946402674598
2.027533721070852 12.28219100685103 28.97458774761789 212.98004229373257 0.7212178863219515
2.0363377179363797 12.225701613254657 26.85487575311958 224.79793975488252 0.741769168970562
2.0440758270838595 12.167091510491934 24.928753531640947 237.41253959851647 0.7634244355569141
2.050728402465284 12.106365863958095 23.174961053490247 250.89096008313115 0.7862669789274329
2.056295070301329 12.043600877842213 21.58247740250702 265.30653851193694 0.8103855884184118
2.0607364394126275 11.978732745022873 20.13228750944156 280.74061250055206 0.8358784806713756
2.0640331911136616 11.911819928903393 18.811825565584282 297.2834758585384 0.8628542774351247
2.066186978316762 11.842900819920361 17.609846297496265 315.0354662382741 0.8914331255172963
2.0671711506382997 11.771993483011453 16.514859069985555 334.105853409977 0.9217401904120287
