M[M_sun], R[km], Lambda[1], P_c[MeV/fm^3], rho_c[fm^-3]
0.24162668629717493 15.618656898711224 2160425.4255784233 3.5677272577965504 0.1711233750220791
0.25364159137925446 15.277362611605755 1723210.8150567107 3.7847939408918636 0.17388785314989588
0.26603724465602 14.981317044490234 1383130.000025698 4.011347533299877 0.1766660091539186
0.27881068491459815 14.723599933586696 1116527.976768722 4.247644924904611 0.1794565481835077
0.29196308035366497 14.498525649707824 906024.418680939 4.494310885204819 0.18226602893644228
0.3054961303575095 14.3013463598737 738742.7211899803 4.751498739970021 0.18509011305183867
0.31941138585431955 14.128253426055908 605195.2941869318 5.019894501554343 0.18793550126126163
0.33370670390908935 13.976074038912813 497759.51535685605 5.299717076125893 0.190798715974975
0.34838595535376304 13.842097954708695 411069.38600702834 5.591701000428181 0.1936861738534997
0.3634465532097578 13.724112002559114 340722.4365696477 5.896006060620622 0.1965927996408088
0.3788983698516585 13.620108158821234 283365.17150186014 6.213499381136038 0.19952633832961966
0.39472728945280494 13.528559829610966 236447.4251772866 6.544443701437938 0.20248306324477805
0.4109498321840838 13.44800526841438 197921.0506538017 6.889530731261687 0.20546650530465815
0.4275554747692121 13.37715720220095 166130.8553073616 7.2494701537217265 0.20847982341804788
0.44454793165714135 13.31501852262811 139843.44962877303 7.624528613830687 0.21151868754914752
0.46192643527558214 13.260657311162555 118015.32240694408 8.015639704566615 0.21458902225781415
0.4796879995144961 13.213248043271674 99844.5541084513 8.423515223829888 0.21769258806375932
0.4978415336943724 13.172116058462782 84674.33484797757 8.84860648742367 0.22082700504935593
0.5163768460189522 13.136476335970377 71965.09283744589 9.291765797979448 0.22399538560391075
0.5352919361025152 13.105928555959743 61296.79773734197 9.753887390515889 0.2272007909214889
0.5545952782105417 13.079888577934465 52319.14263562218 10.235780433605218 0.230444571265224
0.5742732337455954 13.057915636801795 44748.89311786283 10.73793066642226 0.23372361054655535
0.5943281522380593 13.039569520537661 38344.020179425286 11.261553490727955 0.23704373078104005
0.6147620965885472 13.02454587657343 32916.46572472919 11.807599799274396 0.24040672368868027
0.6355597946962503 13.012454440199242 28307.073176814938 12.377048059988121 0.24381422125547725
0.6567282439382707 13.003040645113883 24382.131775597492 12.970607257643156 0.2472644018779416
0.6782569827657967 12.995999003158971 21038.31942617945 13.589563919540195 0.25076160324017144
0.7001405367369287 12.99106910811097 18181.297632981208 14.235134124402869 0.2543086788391068
0.7223695949887446 12.988015368928563 15737.184034137252 14.908506858752 0.25790761195499246
0.7449539065628922 12.986644355978786 13640.612395020371 15.610737111555894 0.26155855640903375
0.7678708107933846 12.98674952131764 11841.919786604394 16.343039900542916 0.26526289982056356
0.7911118648645581 12.988128814563396 10225.757928930021 17.10705467441094 0.26902557844367603
0.814681996621898 12.990655749951546 8961.436636321481 17.904235554083066 0.2728490230352509
0.8385594058390408 12.994122057439169 7811.443466298741 18.73597769771464 0.2767345862017999
0.8627364131421408 12.998388064710694 6818.640936926405 19.60356495321147 0.28068221161561185
0.8872066900928526 13.003329013128019 5958.987362866336 20.509110762152314 0.28469851936105345
0.9119622134754252 13.008823476327954 5214.3643332825495 21.4544080146401 0.2887865203274685
0.9369785394806665 13.014709070001446 4568.060814522441 22.44097867156915 0.292946445212682
0.962253476485516 13.02091075848683 4006.970412842096 23.470770952252078 0.2971814799983198
0.9877734382019147 13.02730193687366 3518.841528878138 24.5462423118646 0.30149802123649216
1.0135127095476868 13.033754318591157 3094.1594015370433 25.66937947080191 0.30589803598414556
1.039470778987064 13.04021022509279 2723.317039133513 26.842052680960748 0.3103821164518223
1.0656209758368893 13.046549715683732 2399.7749810276728 28.06739999691494 0.3149593197046664
1.0919449917543076 13.052670437054283 2117.2207502811652 29.347527651819146 0.31963045013628194
1.1184385138228177 13.058515034998429 1869.8144065052506 30.685085846221256 0.32439947664443103
1.1450660916972568 13.063962205105485 1653.0470605664357 32.08358139285375 0.3292751852745862
1.1718259549099 13.068983773784197 1463.1569536805223 33.54483679295008 0.33425450899839537
1.1986768182377323 13.073436453881481 1296.3391012718737 35.07344777286113 0.3393513818258777
1.2256192069744645 13.077306186657031 1149.8474524442513 36.6715046143803 0.34456298098536103
1.2526113279536923 13.080479745237405 1020.930727238542 38.34392967161961 0.3499029646471321
1.2796505841219972 13.082923236601722 907.4949172397663 40.09307525378294 0.3553685969932417
1.3066901246305802 13.084518668922602 807.3395731385469 41.924368357989955 0.36097418156451117
1.3337230560982045 13.085236388568816 719.148695751282 43.84118976881128 0.36672109466996083
1.3607278780253096 13.085036309995212 641.1150999422969 45.84839832080327 0.3726180486458418
1.3876561924873771 13.083786717481694 572.2467521698246 47.9512370450653 0.3786745135877447
1.4145101936877869 13.081504966108726 511.2235736844268 50.15435439836993 0.38489560464341194
1.4412308169392423 13.078063597101695 457.19764233412485 52.46316728787742 0.3912893307458572
1.467824166782366 13.073470625359077 409.33095315403335 54.883986521338386 0.39786685336249333
1.4942303819916778 13.067614015864642 366.82303559888385 57.4229953638249 0.40463722244344624
1.520439946295253 13.060484662905838 329.10240419108817 60.08681459839004 0.41161019711697316
1.5464234490217823 13.052009300351761 295.5371742831449 62.88254190631679 0.41879630406610974
1.5721376100124342 13.042141436347041 265.680091762552 65.81779501686218 0.42620690066908296
1.597560261408675 13.03082633820877 239.11501050520084 68.90075900903093 0.4338542434610647
1.6226485785976221 13.018025270257441 215.41309526797738 72.14023819546924 0.44175156254313863
1.6473988144514118 13.003697092633935 194.26127202859055 75.545713072475 0.44991314263996535
1.6717484773650564 12.987780476764442 175.37407351195645 79.12725447719498 0.45835379181120345
1.6956873332578952 12.970246837149128 158.4924578175542 82.89475778731524 0.46708556616444197
1.719158457069661 12.951046552661031 143.4085678650866 86.86108474616216 0.476130582757325
1.7421551712366996 12.930133943617832 129.8945419059983 91.03796818717719 0.4855038348809822
1.764641008194833 12.907509879481843 117.77589676396671 95.43914754963704 0.49522588507950466
1.7865659616235303 12.883086796605127 106.9129246577471 100.07862068602572 0.5053155942816043
1.8079065564294317 12.856849781184554 97.16827327343903 104.97272264129846 0.515797957438299
1.8286203413973514 12.828738090231978 88.40631364078139 110.137884396963 0.5266951502683014
1.8487030353598588 12.798793394123736 80.53296521485947 115.5917837134323 0.5380307837907075
1.8680941846343369 12.766911100084739 73.44791889215992 121.35472576158854 0.5498345972390949
1.886768620341674 12.73308643975386 67.06396520081064 127.44800236880403 0.5621359666612928
1.9046962221557422 12.69729738665751 61.30997441152161 133.89424008152332 0.5749649111852202
1.9218436349205408 12.659505913146598 56.120063349347674 140.71865259847402 0.5883561348634676
1.9381650188681614 12.619641633979537 51.436383927866316 147.94909876770072 0.6023486341654096
1.9536698650897737 12.577835105892737 47.20497956061145 155.61429265654849 0.6169789933035845
1.9682921201377666 12.533929085470723 43.375552742201656 163.7475028691304 0.6322936013667898
1.98201754962313 12.48796208613585 39.91366573053922 172.3824573934228 0.6483339775666208
1.9948150708020316 12.4399110284121 36.774848040864676 181.5586424703262 0.6651540636795459
2.0066554153351115 12.389766278862384 33.93400698145568 191.31783113547445 0.6828076295561543
2.0175178765166883 12.337540913611404 31.35401429869233 201.7059874473957 0.7013538169420105
2.0273647953709726 12.283189913451555 29.015232704615983 212.77327644511004 0.7208561618401942
2.0361857166702646 12.226754243348939 26.891700629417944 224.5745181618028 0.7413829794280099
2.0439419905876184 12.168193475875645 24.962858602286733 237.1713738485402 0.7630132257993414
2.050613742253829 12.107522771583367 23.20594399247949 250.630078860195 0.7858276546636297
2.05619336780112 12.044788902873183 21.610595398817644 265.02399744812936 0.8099155304945561
2.0606600064749117 11.979995718118218 20.157184022685357 280.4349651308909 0.8353771328202618
2.0639855413880452 11.913147105726724 18.83607055893068 296.9518817199576 0.8623170355152164
2.0661546700653366 11.844268935908422 17.631860868380667 314.6752535083143 0.8908564957850218
2.067162694947895 11.773412844302541 16.53579729763162 333.71464641146906 0.92112231020728
