M[M_sun], R[km], Lambda[1], P_c[MeV/fm^3], rho_c[fm^-3]
0.24162668629717493 15.618656898711224 2160425.4255784233 3.5677272577965504 0.1711233750220791
0.2536448309920822 15.2772499642901 1723146.2278057227 3.7848358477641812 0.17388837549884278
0.26604095841875963 14.981238890368953 1382988.5149736404 4.011435629851244 0.17666707374875085
0.2788171397165942 14.723485019336733 1116414.013906939 4.247782191518726 0.17945814026937507
0.2919729555074596 14.49834963508909 905803.604681759 4.494500923800024 0.18226814506030556
0.3055093816340515 14.301161901892106 738593.8968135576 4.751748003161372 0.18509280557003122
0.319428094997884 14.128050518834238 605049.376688295 5.0202048254064575 0.18793872099100134
0.3337241388190454 13.975940104345643 497648.71599899646 5.30009663051448 0.19080253745787346
0.34840857238570655 13.841922630124584 410955.8823316167 5.592150732932235 0.19369052513919358
0.36347253095398 13.723923183343604 340634.391706601 5.896536074972816 0.19659777764776762
0.37892706806560955 13.619942168755495 283279.33829795034 6.214116091125668 0.19953196198215792
0.39476040713927735 13.528406930396304 236388.88013314412 6.545146466688214 0.20248922554663362
0.4109871537698423 13.44782808914707 197837.16971442493 6.890333118412538 0.2054733387703435
0.42759593730769474 13.377015119444229 166062.05308025607 7.250379692091887 0.2084873477958895
0.44459335542460565 13.31487406151929 139788.45895901392 7.6255427894831165 0.21152676103945367
0.4619760733858544 13.260517845059038 117960.44016912559 8.016776206859754 0.21459781402187422
0.47974205756256216 13.213135898488414 99790.14010224707 8.424782914802503 0.21770211932767392
0.4979002143229628 13.171949399322513 84625.02798132421 8.85000069284852 0.22083709969232998
0.5164406818372279 13.136371829165086 71927.09481736514 9.293309080051039 0.22400625040590716
0.5353610239200535 13.105813949274623 61264.49931692257 9.755590212797244 0.22721244934418341
0.554668869600134 13.079777469924156 52293.65933569233 10.237653895456535 0.23045704779031392
0.574353846251893 13.057811448929908 44720.6549465586 10.739966627630036 0.2337366820481711
0.594412320017482 13.039518719392529 38321.046076044135 11.263782568614221 0.2370576581000115
0.614851301208941 13.024478049259336 32894.23030355783 11.810035161783587 0.2404215347560488
0.6356573775344158 13.0124169949844 28285.440230165746 12.379703696562931 0.24382994547669282
0.6568294292941341 13.003001045170276 24364.854465520402 12.973470973205425 0.2472807697017737
0.6783631294943585 12.995968486445408 21023.196785281933 13.59267637862792 0.2507789325784942
0.700253446745672 12.99105924342974 18032.300969104534 14.238512015016255 0.2543270040605424
0.7224895423040202 12.98800435701982 15725.378207003656 14.912167941106112 0.2579269694774541
0.7450791058833722 12.986644536992317 13630.625782528588 15.614664566639302 0.2615786309542362
0.768001270860908 12.986759662471616 11832.938715275879 16.347286913031493 0.26528407011263155
0.7912491897399906 12.98814457474734 10287.446893976738 17.11164255852883 0.26904788777055344
0.8148256022261935 12.9906733253464 8953.861804641632 17.909187037134007 0.2728725174682796
0.8387097213021487 12.994143197090056 7805.509871622438 18.741270818195282 0.2767589053516744
0.8628921498846944 12.998420028028137 6812.152107579178 19.60926853267425 0.280707799979602
0.8873744016754505 13.003369298222172 5953.667264662497 20.515252250894854 0.28472543231697617
0.9121300359356884 13.00886615932346 5209.407511791052 21.46101674265356 0.2888148169870205
0.9371552493579868 13.014753364462289 4563.797809732379 22.44802710981376 0.2929757204123779
0.9624408282103486 13.02096030524797 4003.326498369101 23.47834755086319 0.2972122508165063
0.987964268790735 13.027347678104292 3515.44677532724 24.55438273191258 0.301530359260904
1.0137077749707615 13.033805513711405 3090.8611043354813 25.67805220251735 0.3059315057261093
1.0396740229249766 13.04026638215082 2720.5332898339166 26.851363746609373 0.31041729198120344
1.0658263250986793 13.046589734592814 2397.405443654332 28.077392979580114 0.31499628809282676
1.092161492159434 13.052720585302659 2114.9161406993076 29.358167135522493 0.3196687457449377
1.1186608232040027 13.058552381153156 1867.7546150992387 30.696498850781275 0.3244397367575607
1.145293977352985 13.064006079671339 1651.519573046917 32.095730669671084 0.32931692899307496
1.1720593050028294 13.069018440943955 1461.506367190033 33.55786484576833 0.33429841487964135
1.1989164052048145 13.073481728114908 1294.961541478823 35.08741608840977 0.3393975712585781
1.2258637109983357 13.077342699277342 1148.6450252493146 36.686372659017884 0.34461094299583805
1.2528614762781463 13.080504169459992 1019.7759900441662 38.35982201765439 0.3499531826915284
1.2799059888273259 13.082943116796937 906.3744936135712 40.110043322746876 0.3554210905299505
1.306950554023252 13.084522440425268 806.5052920164943 41.942435801016494 0.361028802181986
1.3339900459001695 13.085236246035002 718.3424676553682 43.86055914207774 0.3667786704644109
1.3609991033529185 13.08503058215082 640.366622031415 45.86902904064491 0.3726780399766698
1.3879324105146222 13.083766823098244 571.5822725929282 47.97321722702865 0.37873707628096953
1.4147827490687337 13.081462087025038 510.6341411588443 50.17792504965419 0.3849616522058499
1.4415144798748076 13.078017201834676 456.7290323316027 52.488290992373294 0.3913583110253642
1.4681097394299396 13.07341669920616 408.84942626683784 54.91077451827441 0.3979389618325289
1.4945208539449688 13.06754423311881 366.39865374242504 57.45156790267074 0.404712669688084
1.5207323817008098 13.060397371051153 328.71769177980804 60.117301745540146 0.4116892100717583
1.5467166046801475 13.05190543258679 295.17493480707003 62.91508443226385 0.41887912738189054
1.572432867817666 13.04201782107313 265.3573226046401 65.85254537282218 0.426293798212006
1.5978468104327255 13.030679975523377 238.8173165641886 68.93788240307506 0.43394549996348364
1.6229444211277924 13.017857414282526 215.1494332421263 72.17991377944972 0.4418474854219317
1.6476970381970701 13.00351151591572 194.01755421847517 75.58813525243727 0.45001406400076144
1.672045607591301 12.987574178011938 175.15828082596485 79.17241286328793 0.4584591458093128
1.6959825360525287 12.970012763874907 158.30154720166854 82.94309294206047 0.4671966402092717
1.7194627327703669 12.950796215837938 143.2204038254489 86.9128454697452 0.4762477953294801
1.7424443728533032 12.92985253940586 129.72296151439255 91.09317602522603 0.48562665199936617
1.7649265769823954 12.907192589673171 117.63176224840329 95.49833430258565 0.4953557540312336
1.78685225900138 12.882754192130475 106.7766777373658 100.14183788833704 0.5054520142615915
1.8081895688667897 12.856485830632806 97.04417766679764 105.04029808508449 0.5159414540348223
1.8289035403690088 12.828353575770539 88.2962796325623 110.21026460741304 0.5268466231870741
1.8489771064250076 12.798364548209165 80.42990070179353 115.66947636055602 0.5381912699899937
1.8683514782566288 12.766418320108082 73.35686635127063 121.43796117950977 0.5500040340476047
1.887025965070777 12.732592744285842 66.97671563102797 127.53715948777094 0.5623147659813648
1.904948786570357 12.696765649670706 61.23011453637036 133.98967889775517 0.5751533370419514
1.9220879206906334 12.658939221990826 56.04813849076863 140.82116077021954 0.5885558597639154
1.9384002413638253 12.61904080696903 51.37009862622886 148.05929011562716 0.6025605927055075
1.953894177904093 12.577187109178432 47.14451159631072 155.73247845375846 0.6172029672198625
1.9685071248563104 12.533246102075662 43.32180396282672 163.87448826939266 0.6325309461520842
1.9822196385852717 12.487236523779355 39.863538611546694 172.51923268580853 0.6485865181893099
1.9950049654649449 12.43914392001629 36.73005004045918 181.70579244977023 0.6654220994074532
2.0068383939535135 12.388977193580413 33.88859338407134 191.47631129553048 0.6830925312405707
2.0176814516130746 12.336691785157504 31.315004494900272 201.87685180388362 0.7016570843203975
2.0275152443273696 12.282298318238485 28.97984581225345 212.95725813073838 0.7211780267919263
2.0363207294529113 12.225816912523937 26.858316448352074 224.7733199322462 0.7417266130210203
2.044061405295548 12.167212582975214 24.932587696575883 237.38596414444777 0.7633791219664642
2.050716539696026 12.106492907820142 23.177989492530717 250.8622369407875 0.7862186488192403
2.0562851636307022 12.043733905537637 21.58595579686581 265.2754546151401 0.8103339573219324
2.060726488990509 11.978873252521577 20.134038943767976 280.706931125073 0.8358232353763185
2.064027120042175 11.911967146910365 18.814355946538264 297.24693360227786 0.8627950724323005
2.06618371265585 11.843051297576885 17.61216570193507 314.995769572518 0.8913695789631538
2.067171138744032 11.772147636897877 16.51797306794651 334.06274043862794 0.9216720969176228
