M[M_sun], R[km], Lambda[1], P_c[MeV/fm^3], rho_c[fm^-3]
0.24162668629717493 15.618656898711224 2160425.4255784233 3.5677272577965504 0.1711233750220791
0.2536374400601144 15.277422948732244 1723416.087305555 3.7846944973820715 0.17388661363451946
0.2660253097628755 14.981600095372091 1383299.7774470958 4.01113848887172 0.17666348297537393
0.27879224577911366 14.723963784161416 1116853.3704432875 4.247319213102343 0.17945277041743862
0.291938283761904 14.498944677934732 906350.1354710266 4.493859965146883 0.18226100783694407
0.3054651886728992 14.301781921443983 739088.835255285 4.750907307844969 0.18508372445612292
0.31937354254316525 14.128678623638116 605457.7520692634 5.019158207095251 0.187927861922065
0.33366207558464084 13.976511087327163 498136.34801811876 5.2988165430165575 0.19078964910081864
0.3483328471113548 13.842597076740006 411355.2518454432 5.590633986812119 0.19367585020323896
0.36338508605693953 13.724546022278874 340969.9646206797 5.894748604462256 0.19658098934646334
0.3788279747400395 13.620543550717713 283597.6291837589 6.212036275036453 0.19951299656368587
0.394648241600994 13.528991693512232 233557.44233858612 6.542776470994133 0.20246844388610388
0.41086190081951857 13.448384308690711 198101.34230735904 6.887627203837688 0.20545029406633109
0.4274568366594968 13.37754778186416 166302.46364462416 7.247312478480269 0.2084619735237401
0.4444395281614753 13.315410928850445 139995.60207255546 7.622122760361728 0.2114995354085759
0.461807344697659 13.261009000653852 118148.35231224222 8.012943726491045 0.21456816668779496
0.4795585620181047 13.21356493828258 99962.57951395916 8.420508112339029 0.21766997878921282
0.4977015059302328 13.172364329697325 84778.89986106285 8.845299335125352 0.22080305985367865
0.5162254179340642 13.136744293568043 72063.60244393088 9.288105107899423 0.22396961411752994
0.5351277254053598 13.106156730790802 61384.217231097646 9.749848359103128 0.22717313757445323
0.554420120734734 13.08011037422152 52397.70382027071 10.231336750891128 0.2304149780718344
0.5740842299329152 13.058078548954398 44813.0769061242 10.733101642649755 0.23369260671809153
0.5941305468470425 13.039742648372087 38401.22353193815 11.25626653763773 0.237010697802458
0.6145482380283003 13.024677271382604 32967.399338599 11.801823705833092 0.24037159540335803
0.6353331756250493 13.012576116923293 28350.882939358864 12.37074966891152 0.24377692801455336
0.656483341972794 13.003124597503483 24423.545037277447 12.963815490700183 0.2472255829231907
0.6780021225574099 12.996074256751646 21075.044909713568 13.58218237952995 0.25072050480302727
0.6998732877731161 12.991127822047847 18214.091432874735 14.227123260907508 0.25426521951367415
0.7220884356749692 12.988046040681358 15765.532636137545 14.899824581340347 0.25786170548150783
0.7446578915718821 12.986666091881322 13666.607687672738 15.601423299885045 0.26151095038186783
0.7675586955217094 12.986741829285622 11864.405574191343 16.332968492963726 0.2652126963797775
0.79078470908094 12.988107713157643 10314.589496502747 17.096175161474125 0.2689726750563765
0.8143402657776263 12.99060542283571 8979.642862226545 17.89249407915868 0.27279331057629036
0.8382026134541476 12.994058981799286 7827.319475488415 18.72342632440494 0.2766769191356968
0.8623645699526421 12.998313243209909 6832.57458948624 19.590040576491056 0.2806215362666454
0.8868199509534596 13.003238584215298 5971.567535576118 20.49454833831451 0.2846347045618567
0.9115599480497949 13.00872901828402 5225.432030713021 21.438738047993528 0.2887194260681063
0.9365609263729515 13.014611628486454 4578.388094809716 22.424266413517696 0.292877032007253
0.9618194658016178 13.020796716632375 4015.936671347755 23.452806805267308 0.2971085222597465
0.9873242357151785 13.027186415843687 3526.776091926933 24.52694178587112 0.30142134940911
1.0130474865611647 13.033648803755389 3101.0054356388005 25.648817243559364 0.30581868238915516
1.0389908975583269 13.040100516189447 2729.669230305554 26.819977539313218 0.3102987205417386
1.065124746077864 13.046428090259381 2405.4581757007636 28.04370869014221 0.31487167525914433
1.0914341186465333 13.05255988504293 2122.3425996744504 29.32230410530538 0.3195396608561689
1.117913332897439 13.058398728494543 1874.4412308807857 30.65802912459781 0.32430403230567245
1.144525275474759 13.063852971385364 1657.241318743136 32.05461119529517 0.32917513514255764
1.171270753437732 13.06887941624693 1466.8129674577688 33.513952646444224 0.3341504262403819
1.198113122830512 13.073358381353406 1299.7206815759678 35.04033547125946 0.3392418884212462
1.225036893679326 13.077232214460357 1152.8376719855105 36.63626019142992 0.3444492879326425
1.2520155936773876 13.08041483511111 1023.595140608118 38.30614792924573 0.3497832803698731
1.2790412498284367 13.082874806132526 909.8076028474819 40.052854620975005 0.3552441677921792
1.3060689079614671 13.084485353975602 809.4822934907905 41.88154270617598 0.36084471313101973
1.3330909667364108 13.085229686105277 721.0890903805281 43.795279336344336 0.36658462512154183
1.3600851927068052 13.08505303604679 642.9130098105104 45.7994992406729 0.3724758567632606
1.3870038699164167 13.083832566180197 573.8163830623439 47.89914062166765 0.3785262303496636
1.4138388061076916 13.081556258093173 512.675016069575 50.0984898608668 0.3847390660529289
1.4405668180248512 13.078181174396992 458.5104993008413 52.403623255130825 0.39112584514115617
1.4671385897873646 13.073596475345168 410.5159751014246 54.820499559154065 0.3976959578781743
1.4935446667115722 13.067783403749186 367.8691089260716 57.35528071031786 0.4044584184506939
1.519747578235265 13.060693978914449 330.0314825169316 60.01456425553775 0.41142294728854895
1.5457243917350265 13.052254995275593 296.38509564049036 62.80542254119395 0.41860002915061073
1.5714361443192728 13.042431705860114 266.4826474487742 65.73544565137303 0.42600097594328956
1.596849918991439 13.031151269814918 239.80474205369478 68.81278847438196 0.4336379948255427
1.6219431502802744 13.018394204899831 216.0425049754744 72.0462223247027 0.4415242622220999
1.6466830900566378 13.004123045823533 194.82995580566208 75.445191601083 0.44967400444171335
1.671047249922762 12.988268742374274 175.90435933648516 79.01987602210852 0.45810258568072293
1.6949790605836619 12.97079024752275 158.97734857847894 82.78023124571867 0.46682238450540847
1.7184673214879367 12.95165565513252 143.82868552983228 86.7384452182339 0.4758528645663633
1.741467528087997 12.930818488050772 130.2865209917796 90.90716460317559 0.48521284505364715
1.7639515953199951 12.908241826705936 118.13828569859956 95.29892112901075 0.4949181970016123
1.7858837189417052 12.883882588378468 107.24269102573723 99.92884936954107 0.5049923942782751
1.8072218741564547 12.857688645342705 97.46562096040162 104.81263053252685 0.5154580015097563
1.8279692907061118 12.82970343338919 88.67644129257646 109.96594865918227 0.5263345737861296
1.8480445674622887 12.799781751712164 80.77706475763947 115.40773486031655 0.537650602370547
1.867460200950834 12.768002583475807 73.67176945935068 121.15755261346833 0.5494332249654199
1.886150075661329 12.734262582276733 67.26867940136268 127.23659906998309 0.5617116819273757
1.904085417044595 12.698514941760875 61.49731695969265 133.66797805496265 0.5745178967542873
1.9212531523804492 12.66081608559138 56.294698114506964 140.47584830258398 0.5878830597612665
1.937612571271232 12.621104268496612 51.59445818954105 147.68810514143146 0.6018465999400381
1.9531255844693776 12.579325461940622 47.347684487770685 155.33437298174292 0.6164485174994735
1.9677798078263153 12.535541152611339 43.508604377805334 163.44608406181257 0.6317292145347604
1.9815357556143791 12.489674290303483 40.03362701050517 172.0585328219809 0.6477358862626332
1.9943724965453746 12.441760807776822 36.883573743735525 181.21016038568283 0.6645192987303903
2.0062317593135948 12.391676894982055 34.03601871970771 190.94253114937268 0.6821329482700927
2.017119457111689 12.339534471938418 31.448165309128125 201.30137625389014 0.7006356719851412
2.027003351951284 12.285295461346289 29.102124867062596 212.3370558649914 0.7200921585565552
2.0358643500912823 12.22897745344719 26.971233164765895 224.1037883336457 0.7405693117135526
2.0436588368891533 12.170525245855227 25.034235156921365 236.66291280039127 0.7621456817555564
2.050370578543551 12.109966902636902 23.273856579287767 250.07985385379965 0.7849000996751031
2.0559878601555113 12.047329509274453 21.671806923914595 264.42864800702023 0.8089248344354771
2.0604954436243625 11.98264162969879 20.21563225606154 279.78996965742044 0.8343173044561889
2.06386639146875 11.915911612963729 18.887695273500412 296.25336793380404 0.8611852594393122
2.0660879583481875 11.84715731168234 17.67883830829848 313.9165316018636 0.8896419312419078
2.0671439491800645 11.776418869084626 16.579943418692604 332.89068298539564 0.919820925793531
