M[M_sun], R[km], Lambda[1], P_c[MeV/fm^3], rho_c[fm^-3]
0.24162668629717493 15.618656898711224 2160425.4255784233 3.5677272577965504 0.1711233750220791
0.253644619122499 15.27728217244334 1723273.993464624 3.7848422508526975 0.17388845531025218
0.2660421308454091 14.981211789999215 1382945.495598846 4.011449090534258 0.17666723641316112
0.2788184411802705 14.723464965864919 1116353.49102435 4.2478031653084365 0.1794583835337289
0.2919742853866091 14.498343581255408 905776.1736914375 4.494529961184932 0.18226846839832572
0.305511596219781 14.301132490177624 738575.9223220104 4.751786090234067 0.1850932169831066
0.3194292704899634 14.128061326277503 605031.3587547072 5.020252242851649 0.18793921296529664
0.3337285440730088 13.975863731299762 497614.98004621663 5.300154626865561 0.1908031213848955
0.34841197496355497 13.841882289230837 410932.6346940154 5.592219453120704 0.19369119002592128
0.3634768218936702 13.723879717300909 340614.69008354726 5.8966170630840695 0.19659853830524743
0.37893120100522787 13.619920792564626 283250.75729813444 6.214210327414284 0.19953282130364222
0.394765959273762 13.528373537175591 236364.76962751077 6.545253853441163 0.20249016718338458
0.41099285147121667 13.447807368592596 197830.2864602191 6.890455728972879 0.20547438297332687
0.42760324340350797 13.376976886812798 166042.88347813 7.25051867724051 0.20848849758440524
0.44460080975229344 13.314837329212017 139774.42426321105 7.625697765197816 0.21152799474579173
0.46198145848596217 13.260512811786448 117949.31178571055 8.01694987661252 0.21459915749781783
0.4797516303059321 13.213085895971313 99793.15607541987 8.424976633104581 0.2177035758184923
0.4979100786305931 13.171920680713079 84621.6919587109 8.850213745527808 0.22083864228475844
0.516451003522828 13.136337743292465 71918.83680339811 9.293544915390775 0.22400791070140152
0.5353716554816911 13.10581321900948 61255.504944705324 9.755850430134574 0.22721423092981582
0.5546808947097066 13.079777437660603 52290.47725782753 10.237937834476618 0.2304589241046485
0.5743655002836218 13.057832564917184 44315.69977641778 10.740277758123199 0.2337386796023134
0.5944255150656762 13.03950399269793 38317.11898118229 11.264123213296813 0.23705978645415274
0.6148646787347019 13.02447787555121 32891.2599365063 11.810407333422498 0.24042379818056803
0.6356718605556422 13.012408527320973 28282.766932322458 12.3801095335135 0.24383234846739144
0.6568447102500581 13.002995206139909 24361.749652192022 12.973908611773773 0.24728327106436823
0.6783789720482357 12.995975456257277 21020.549523405614 13.593152034246902 0.2507815809015449
0.700269981729282 12.991055929993676 18166.41738500091 14.239028238592873 0.2543298045986399
0.7225069195955245 12.987991205075913 15723.069941782156 14.912727447469617 0.2579299277985055
0.7450980388610267 12.986651312984279 13628.745797812322 15.615264785269686 0.261581698873734
0.7680214380475943 12.986763642878318 11831.872960740397 16.347935973354467 0.26528730551555163
0.7912701821224184 12.98814843597246 10286.166423091197 17.11234371872227 0.2690512972751414
0.8148460864194379 12.990684608590822 8952.472113280166 17.90994377141727 0.2728761081183446
0.8387323511247973 12.994141507135886 7804.270957147514 18.742079769891458 0.2767626220661555
0.8629145978304865 12.998426093000774 6811.106888209057 19.61014022179301 0.2807117106989323
0.8874006922035947 13.003382609014839 5952.914933014569 20.516190873747092 0.28472954550785046
0.9121589080911002 13.008873694316115 5208.894729092253 21.462026782941205 0.28881914168703765
0.9371819525042369 13.014757935574673 4563.125099227016 22.449104359654463 0.29298019469492315
0.9624696922909171 13.020965723224103 4002.7388401121916 23.479505531264266 0.2972169537189846
0.9879921360726677 13.027351436863121 3514.8896744946587 24.555626894562344 0.30153530172847975
1.0137376035749066 13.033808584144078 3090.765162585244 25.679377730868985 0.3059366211953006
1.039704447888421 13.0402742385774 2720.1265025750236 26.852786848389666 0.3104226682034721
1.0658588907340554 13.046594408125923 2397.0205185445025 28.0789203177454 0.31500193838083773
1.092194646760366 13.052724475370844 2114.608394341043 29.359793296206167 0.3196745989249312
1.1186948211969248 13.058556386242666 1867.495559649888 30.69824325229197 0.3244458902469241
1.145328667611072 13.064018801864098 1651.2233478486078 32.09758761784489 0.3293233092840981
1.172094332090638 13.069027369465758 1461.3301283352403 33.559856126541845 0.3343051257011577
1.1989529599226305 13.073482057499442 1294.7582039205759 35.0895511023083 0.339404631170737
1.2259016677795542 13.0773459022667 1148.4474480544332 36.68864520944445 0.34461827389173094
1.252900334401176 13.080504612421409 1019.6299974213845 38.36224132900063 0.3499608008710267
1.279945658414964 13.0829470950083 906.2237241467628 40.11263689860503 0.3554291141871979
1.3069972078586123 13.08455287517164 806.3178149767598 41.94519743660491 0.36103715102475575
1.3340294638116936 13.085240528217238 718.1430950021353 43.86351980638419 0.36678747108987253
1.3610405976623832 13.085029517860313 640.2534900525025 45.87218252900044 0.3726872098924387
1.387980379173889 13.083784290239016 571.4511099356665 47.976577011699966 0.3787466393127062
1.4148252910981116 13.081457200282731 510.56796881328114 50.18152797983901 0.3849717480132789
1.4415577443935688 13.078011861345939 456.61311734890444 52.49213134743619 0.39136885520151027
1.4681533424511433 13.073406850013052 408.7747877457835 54.914869306559204 0.39794998426615996
1.4945640497116195 13.06753441086137 366.3207945339399 57.45593551040054 0.40472420257883096
1.520776690132887 13.060382261641324 328.65988748871047 60.121962060200616 0.4117012881199187
1.5467609311239225 13.051887436940723 295.1160290664648 62.92005897830029 0.41889178799704724
1.572478673149637 13.041999358576486 265.2983513957366 65.85785746102023 0.426307081742475
1.5978923425257774 13.030658563200193 238.7689733359881 68.94355729516501 0.4339594499488518
1.6226219564043047 13.017902180472337 215.40466723281622 72.21756514376378 0.5843115277090545
1.6331849845202377 12.997944958779453 203.97500904389045 76.51723084838797 1.2049883998663555
