M[M_sun], R[km], Lambda[1], P_c[MeV/fm^3], rho_c[fm^-3]
0.24162668629717493 15.618656898711224 2160425.4255784233 3.5677272577965504 0.1711233750220791
0.25364374922452493 15.277268829034272 1723288.0406722964 3.7848148566422624 0.1738881138546345
0.26603934994294026 14.981260008080817 1383021.6641115309 4.011391502179625 0.1766665404918817
0.2788140270718703 14.723549053369478 1116491.1177786754 4.247713434241458 0.17945734278857375
0.291967458943752 14.498476103493875 905913.436367623 4.4944057325207085 0.18226708508331763
0.3055040431770848 14.301206661493937 738642.841358177 4.751623145519484 0.18509145686920442
0.3194194685436369 14.12815612444908 605112.7949651605 5.020049381510838 0.18793710820058845
0.33371696479726487 13.975955391584996 497690.40845205134 5.29990650775211 0.1908006232371271
0.34839735746312783 13.84205741137468 411024.12361648923 5.59192545645166 0.1936883455272726
0.3634590256585008 13.72402920401034 340659.54079189565 5.896270583391759 0.19659528409465432
0.3789125890734511 13.62002859482076 283316.0634669138 6.213807171397614 0.19952914500620164
0.3947443535783801 13.528475950805905 236414.3835596085 6.544794439389775 0.2024861387427919
0.4109683220737357 13.447917505562442 197881.22502758217 6.889931187382601 0.20546991575702872
0.42757544784854856 13.377092233134475 166095.6256419454 7.249924085401231 0.2084835786784997
0.4445701896457409 13.314951002815175 139814.7862063275 7.62503476623262 0.21152271684772184
0.46195055134843316 13.26062271807883 117986.52911885723 8.016206905530327 0.21459341001583074
0.47971512464096816 13.213199188551858 99818.74717196723 8.424147895764989 0.21769734487225215
0.4978721183471066 13.171993071297608 84652.44895714032 8.84930229739378 0.22083204301083625
0.5164101103528854 13.136409628222616 71943.57280348492 9.292536005470236 0.22400080791266272
0.5353267383287104 13.105863532093933 61282.520304712685 9.75473721708327 0.2272066092840086
0.5546328409129498 13.079814078375719 52304.33198590884 10.236715418059864 0.23045079789695333
0.574313906813003 13.057853804828612 44735.31833938082 10.738946746171045 0.23373013409328466
0.5943685024060811 13.03955244478394 38331.704618749136 11.262665944850058 0.23705068141452623
0.6148061662293782 13.024512271510742 32905.32013537544 11.808815198774374 0.24041411534548943
0.6356092742206159 13.012442197686374 28295.58984543227 12.378373385782956 0.24382206860785158
0.656777824805455 13.003040540186566 24373.259716906286 12.972036423682672 0.24727257040496636
0.6783085583803046 12.995984878702632 21029.851864777036 13.591117218452853 0.25077025159236344
0.7001960260986454 12.991073312217967 18175.251742142635 14.236819883631021 0.25431782416519305
0.7224298957439734 12.98799565379547 15731.853411752165 14.910333940746387 0.25791727242622053
0.7450166621390439 12.986646867224724 13635.865370650912 15.61269712291224 0.2615685746869605
0.7679360711615776 12.986761712021954 11837.873252394415 16.345159381280634 0.26527346490045695
0.7911793417654833 12.98813849080429 10290.266006088925 17.109344260335337 0.2690367119247075
0.8147525498158997 12.99066661666705 8957.7152526487 17.906706586080723 0.2728607479053925
0.8386344091268013 12.99412974211763 7808.607447623162 18.738619216353744 0.27674672261318817
0.8628147363416392 12.998396702795647 6815.551437326003 19.606411300937967 0.28069498138276305
0.887288669319454 13.003344605704584 5956.029263854655 20.51217563646401 0.2847119501155036
0.9120477514602264 13.008845475994963 5211.967550929033 21.457706050926507 0.2888006415637785
0.9370665239080882 13.014727371396928 4565.872946496086 22.444496132379953 0.29296105474235157
0.9623443306554558 13.020939134517471 4005.206392422152 23.474551974002246 0.2971968358510983
0.9878683799723862 13.027326372373155 3517.1025038394637 24.55030468888193 0.3015141591318811
1.0136095746329927 13.033778956943811 3092.312586508761 25.67370747946907 0.3059147386031195
1.0395722779047658 13.040233262376614 2721.871808035908 26.84669922537904 0.3103996702599335
1.0657217735342288 13.046565131727835 2398.6830287367366 28.072386824105884 0.3149777681468844
1.0920539662322657 13.0526896062503 2116.1995823402826 29.352837089251175 0.3196495608510261
1.118550239106558 13.058530057596183 1868.9170698828498 30.690781274630183 0.3244195676371981
1.1451796831941725 13.063982731368712 1652.4072729898073 32.0896442254501 0.3292960165702223
1.1719421665106797 13.068996692950622 1462.3441384906166 33.551338135970774 0.33427641919469164
1.1987969765843935 13.073454125092988 1295.6601796509397 35.08041830619518 0.33937443148989754
1.2257414615480093 13.077323007202212 1149.254522262194 36.67892411238198 0.34458691513740086
1.2527357636680898 13.080494976070177 1020.3479324937665 38.35188348664792 0.34992816058949217
1.2797768287489355 13.082936719709148 906.850957901712 40.101542654330814 0.3553947923017611
1.3068196650571524 13.084524233706418 806.9127127986841 41.933384339492115 0.3610014382425074
1.333855570232198 13.085235441248786 718.7474973868984 43.85085539915692 0.36674982592204397
1.3608644338809133 13.085035571486678 640.7444323353998 45.8586933499886 0.37264798519223874
1.3877932380928524 13.083781530455427 571.8980966080902 47.96220543913211 0.3787057331779335
1.4146498981327673 13.08148926719595 510.9282504676196 50.16611640883023 0.38492856309292206
1.441372233991139 13.078039139031862 456.9742008133263 52.475704245582214 0.3913237525345224
1.4679666585616362 13.073443660315828 409.1019375596577 54.8973539292134 0.397902836020417
1.494375087990602 13.067581249786908 366.61137726069944 57.43725322014681 0.4046748710395242
1.5205860133309177 13.060440770456196 328.90325931391885 60.10202779922141 0.4116496248779082
1.5465689640438176 13.05195800652673 295.34794603729625 62.89878068809336 0.4188376330567715
1.572284655422682 13.042079723064731 265.5151137745065 65.83513544360058 0.4262502625407869
1.5977089155890885 13.030755182450639 238.9693618835242 68.91928350917378 0.43389978027513093
1.6227959157496437 13.017938604267663 215.28103793700225 72.16003615399664 0.44179942767795577
1.647547946243122 13.003604130523957 194.13944184511536 75.56688148461402 0.44996350179078837
1.6718966221813654 12.987674831512418 175.27438145812044 79.14978816079879 0.45840636263724904
1.695834055053295 12.970132012806966 158.39579186884612 82.91887654986982 0.4671409910105472
1.7193152110480567 12.950925061666702 143.31050746899314 86.88691271953765 0.4761890704094158
1.7423001801241993 12.929989999482776 129.80608748768577 91.06551612301729 0.48556511889819576
1.7647809509781522 12.907347032582486 117.703773337662 95.46868077098449 0.49529068756158884
1.7867091009214011 12.882916359067393 106.85287865851069 100.1101649065626 0.5053836653410158
1.8080476231055407 12.856668933338833 97.10411804923521 105.00644140153551 0.5158695592963397
1.8287598841652224 12.828540507672528 88.34877373841333 110.17404506268957 0.5267708977537373
1.848839040939615 12.798581717154121 80.47801228292039 115.63055038146375 0.5381108623495118
1.868227348746806 12.766680046275654 73.39614898605984 121.3962579390304 0.5499191415325214
1.886898510706996 12.732838211497361 67.02310043267559 127.49253318340088 0.5622253396508712
1.9048225176038702 12.697030339678049 61.27080397396 133.94186098228687 0.5750589296294859
1.9219662585773534 12.659222583577842 56.08712355579122 140.76980061794077 0.5884557906559976
1.938282300689067 12.619342064482412 51.40402351409417 148.00408013421674 0.6024543935593967
1.9537812235304928 12.57750635594634 47.17334282928557 155.67326266660584 0.6170907473756244
1.968399351367722 12.533589100913218 43.348262147631154 163.81090780494162 0.6324121773160992
1.9821172327324492 12.487598486492482 39.888056842829364 172.45070207684395 0.6484599839128385
1.99491020416827 12.439530925373653 36.75303884117069 181.63206325139026 0.6652878006502909
2.0067487659135743 12.389379945177781 33.90881289153898 191.39690468377486 0.6829497810222785
2.0175990490069537 12.337117509324148 31.33415220562533 201.79123957775866 0.7015051310639755
2.0274392889124746 12.282741980665108 28.997772582447777 212.86507290268594 0.7210167542507155
2.0362531219878086 12.226286214561549 26.875205945667606 224.67370837357265 0.7415544320704381
2.0440019273089005 12.167702580749317 24.947160733913204 237.2784409383708 0.763195785022853
2.0506653921679288 12.107008799803396 23.192116588999014 250.74602519715492 0.7860231087186542
2.056241107356011 12.044275252660368 21.597473779313 265.1494610209592 0.810124309169025
2.0606918605251017 11.979436200380547 20.145149595071935 280.5706610288588 0.8355997207019401
2.064002669004721 11.912551214480219 18.82496385667113 297.09909010801033 0.8625555394808249
2.066169256772968 11.843662476859944 17.62215550489564 314.8351653890459 0.8911124832538269
2.0671669363000444 11.772782081801836 16.526503525973848 333.88831621410304 0.9213966077878945
