M[M_sun], R[km], Lambda[1], P_c[MeV/fm^3], rho_c[fm^-3]
0.24162668629717493 15.618656898711224 2160425.4255784233 3.5677272577965504 0.1711233750220791
0.25364431996685394 15.27726294111802 1723186.6295829548 3.7848254326867283 0.17388824567992672
0.2660405878544273 14.981252884867066 1382921.3319355433 4.011413735164983 0.17666680916438876
0.27881670161054317 14.723458563264458 1116384.9805188547 4.24774807637416 0.17945774458510852
0.2919710514535726 14.498400133002496 905904.5363565218 4.494453692867618 0.18226761913291148
0.30550624698331896 14.301219070043834 738650.9971515096 4.7516860525914675 0.18509213638564181
0.3194228033352326 14.128115019090883 605087.9893626132 5.020127698728381 0.18793792077194812
0.33372149181362626 13.975925081052338 497670.76453224913 5.300002297031133 0.1908015876762237
0.348403048360463 13.842010372948707 410996.1729915084 5.59203895698591 0.19368944367616436
0.3634666218843243 13.72395306944419 340635.6797951 5.896404345170694 0.1965965404135891
0.378919492075957 13.619993893863086 283305.7701817909 6.213962813167506 0.19953056427173818
0.3947515563752529 13.528452129725622 236404.8981115915 6.544971799586055 0.20248769395211139
0.41097809284944514 13.447848075584933 197863.99551993934 6.890133689982633 0.20547164035414753
0.4275864163745855 13.377034290895086 166066.97105129075 7.250153630706656 0.20848547764798409
0.44458200999879893 13.314908645754828 139790.87810727305 7.625290719833184 0.21152475440295995
0.4619635641855526 13.260555366283624 117977.25061880269 8.0164937319282 0.2145956288499075
0.47972819645567516 13.213144301507768 99801.76962724149 8.424467831636363 0.21769975034274272
0.4978861567516447 13.171998375896875 84640.108124904 8.849654163109747 0.2208345906689605
0.516424895978689 13.136398485578408 71934.82042740578 9.292925495389989 0.22400354994597965
0.5353434130852801 13.105843638392058 61273.3472271465 9.755166972104407 0.2272095516143659
0.5546510570074699 13.079816351697465 52305.15457643609 10.237188239554312 0.23045394670365807
0.5743338600440703 13.05783870464689 44326.20542321794 10.739460579742925 0.23373343306398187
0.5943917128280758 13.039513932068793 38323.379583772396 11.263228517916131 0.23705419638122355
0.614828645077274 13.024508386697269 32898.910968711134 11.809429834815868 0.2404178533581193
0.6356337369253124 13.012427579060281 28059.18529910614 12.379043615627413 0.24382603708849365
0.6568044362796382 13.003010894084788 24369.34596861293 12.972759169524055 0.24727670132381982
0.6783368629214017 12.995972949295538 20864.555609529736 13.591902743584468 0.2507746251858415
0.7002247693536054 12.991056408096066 18170.745984898378 14.237672399998493 0.25432244910809365
0.722456468711782 12.988024204830543 15728.629033955842 14.911257930924418 0.25792215791059253
0.7450472131669121 12.986643652042487 13632.75309497445 15.6136883420371 0.2615736411416251
0.7679691469027361 12.986748359954069 11835.405863429312 16.34623125271378 0.2652788079107165
0.791213997899091 12.98814560245056 10288.195849560114 17.110502163692132 0.26904234241663266
0.8147895695507469 12.990669986991326 8955.570806596745 17.907956257643253 0.2728666775076009
0.8386735666686244 12.994132163577982 7806.912747078856 18.739955113296435 0.27675286036842817
0.8628522687865355 12.998409933015026 6814.082545772444 19.607850793396636 0.2807014394775847
0.8873339047932687 13.00335611832064 5954.8220945286885 20.513725652824817 0.2847187425275305
0.9120909173492564 13.00884512249648 5210.72045397241 21.45937399402127 0.28880778321309564
0.9371108888414194 13.014745702703264 4564.782196232528 22.446275054115112 0.29296844337047495
0.9623954835804547 13.020947357829124 4004.2239628053844 23.476464198857844 0.29720460196441423
0.9879167229475487 13.02733312573969 3516.3174712315827 24.55235921769479 0.301522320799524
1.0136588441988117 13.033797473863835 3091.6972702032263 25.675896359371997 0.3059231859122194
1.0396251675718524 13.040244666154605 2721.2334079649077 26.849049216185115 0.31040854810203705
1.0657747997966924 13.04657693953326 2397.969089900863 28.074908926232407 0.3149870984993444
1.092109088232636 13.052696695574856 2105.123593726022 29.355522363848824 0.3196592261908106
1.1186061835458971 13.058541110716 1868.4475289036382 30.6936617814923 0.3244297288118064
1.1452371219713837 13.063995884816283 1651.9712581482895 32.092710563126296 0.3293065522044556
1.1720001929288706 13.069009827005225 1461.90294268115 33.55462627257661 0.3342875005540744
1.1988571542115487 13.073466997786847 1295.3867694736016 35.08394376121606 0.33938608921389857
1.225803305344042 13.077338794865831 1148.9267662848658 36.682676655141286 0.34459902025946126
1.2527995646191565 13.080499083884499 1020.056330449283 38.35588733608768 0.3499407927564792
1.2798434787861372 13.082937175160568 906.6388250087499 40.10582523650366 0.35540804118028557
1.3068860987976805 13.084524826686803 806.6841088930835 41.93794440058198 0.3610152239980283
1.333924156335703 13.085234595323923 718.5267580769062 43.85574406539272 0.3667643575663288
1.3609316503003104 13.08503580586096 640.5536833598012 45.863900377915385 0.3726631265221285
1.38786334539492 13.083771121493344 571.7494742616893 47.96775306964402 0.37872152352518446
1.4147210559692687 13.08148262034722 510.78664610813024 50.17206547389538 0.3849452330288351
1.441443354200204 13.078029139636744 456.82133440018066 52.482045301161065 0.39134116269735375
1.4680386562281815 13.073429717657353 408.9818373588875 54.90411505298005 0.3979210357496352
1.4944476832899012 13.067564204781913 366.4931201210437 57.444464764112986 0.4046939134888063
1.5206601197272296 13.060418200486001 328.8009766175747 60.10972259336508 0.41166956732836973
1.5466435799410339 13.051929329517577 295.2595007038965 62.90699426430614 0.4188585372612413
1.5723601217995522 13.04204743195027 265.4364120498112 65.84390628221574 0.4262721951024536
1.5977838791052044 13.030719040187924 238.89287628406652 68.9286533106137 0.43392281306428676
1.6228709268418904 13.017896848181763 215.20862516873828 72.17005013838975 0.441823638291003
1.647622640040425 13.003558186486467 194.07613575242252 75.57758872258385 0.4499889740561751
1.6719714043499536 12.987623300699218 175.20421916462868 79.16118602938815 0.45843295373426796
1.6959091877121244 12.97007055729527 158.3499362145538 82.93107625353534 0.4671690258940392
1.7193892311646408 12.950860157362536 143.2608126514674 86.89997705927202 0.4762186547111367
1.7423700485977731 12.929912575160115 129.7693789387874 91.0794505367478 0.4855961178396728
1.7648544179365435 12.907270169291646 117.66482904381913 95.48361949429345 0.4953234664561835
1.7867810772207189 12.882833690986581 106.81249096188972 100.12612094703283 0.5054180977841173
1.8081193713528518 12.856576268933958 97.0769468487108 105.02349749948355 0.5159057779560833
1.828829008775464 12.828440947344149 88.31939098627511 110.1922914677897 0.5268090461331163
1.8489091509340185 12.798472708700512 80.45666188454557 115.65016016322451 0.5381513693918141
1.8682840797525937 12.766534020416936 73.3760048137299 121.41726677622098 0.5499619078261615
1.886963915052222 12.732713009382632 67.00319113656032 127.51504936570606 0.5622705143225932
1.904887526859156 12.696896200625881 61.2525902102428 133.96595009929453 0.5751064890260635
1.9220283616242575 12.659078891619192 56.06892464545696 140.79567413326288 0.5885062021030456
1.9383414877385075 12.619191102945724 51.38658744100177 148.03189299074555 0.6025078929727058
1.9538376954060623 12.577346046552643 47.15689918900503 155.7030934355915 0.6171472796689543
1.9684542261400688 12.533414516403766 43.33321333924133 163.84293725953552 0.6324720086034639
1.9821691130618002 12.487414653946088 39.87488217413385 172.48522512871517 0.6485237269534464
1.9949593393506715 12.439338240995788 36.74159840807509 181.6692050492851 0.6653554549501565
2.006794438052202 12.38917776246068 33.90020676711612 191.43690642086182 0.6830216926247884
2.0176408555427643 12.336903069775987 31.324415662814538 201.8343673181884 0.7015816785490375
2.027478036438194 12.282516682750513 28.988452714097658 212.91151170821928 0.7210979961626507
2.0362869279996834 12.226051255192592 26.866966450286103 224.72388807503208 0.74164116887902
2.0440321144384765 12.167455646231192 24.939841023751313 237.332605998312 0.7632881414257399
2.0506914526720577 12.10674873116071 23.185294063945587 250.80456694288316 0.7861216121787208
2.0562636083679426 12.044001837704663 21.591395299195437 265.2129341099381 0.8102299320767946
2.0607101532899796 11.979152794618361 20.14010441574741 280.63930672285085 0.8357123156172325
2.064015943026298 11.91225619571776 18.8197068780528 297.17356560504874 0.8626762031306296
2.0661771077270537 11.843354545474652 17.618702698417373 314.91606872679193 0.8912419935850964
2.067167889853595 11.772461111029385 16.521806570717178 333.97618098952165 0.9215353831820794
