M[M_sun], R[km], Lambda[1], P_c[MeV/fm^3], rho_c[fm^-3]
0.24162668629717493 15.618656898711224 2160425.4255784233 3.5677272577965504 0.1711233750220791
0.25364498882667424 15.27725622780128 1723295.12074224 3.784837745842122 0.17388839915746865
0.2660413029111834 14.98124846649139 1382915.8510477955 4.0114396200200355 0.17666712196758586
0.2788176563508876 14.723501927552103 1116359.3283053169 4.247788408803011 0.17945821238050352
0.29197346241945055 14.498347344405891 905860.235723807 4.494509531378129 0.18226824090768545
0.3055102312188498 14.301173260823447 738638.765329894 4.751759293337465 0.18509292752548065
0.31942846916647444 14.128051795159516 605053.7007332615 5.020218881380309 0.18793886682715516
0.3337253903680373 13.975941130548689 497649.3955656158 5.300113822384497 0.19080271055147804
0.34840967946386114 13.841954242878147 410958.4670306187 5.592171103656572 0.1936907222315553
0.36347433963487674 13.723904981034782 340621.8919323389 5.896560082258872 0.19659800312927872
0.3789274322097842 13.619952310321827 279343.54926168756 6.214144025544439 0.1995322167104219
0.3947626044655122 13.528370118906052 236368.76505565993 6.545178299270786 0.20248950467537907
0.41098888175373277 13.447805854044162 197837.02157553128 6.890369463750876 0.2054736483024965
0.42759902050158 13.376984353198797 166057.97295651375 7.250420891304133 0.20848768862641398
0.4445951876965535 13.314865653292244 139774.7158888703 7.625588728730455 0.2115271267454013
0.4619783652240802 13.260514213065138 117962.42086163214 8.016827687518598 0.2145982122663907
0.47974418918091394 13.213141214908836 99790.07392925519 8.42484033838035 0.21770255107270262
0.49790473223999676 13.17192292978075 84626.16913859294 8.850063847641675 0.2208375569600164
0.516444087972086 13.136353140146484 71926.44897586363 9.293378988213954 0.22400674256373235
0.5353643024575431 13.105809063990876 61262.955913627724 9.755667348408142 0.22721297745540586
0.5546731806406916 13.079772447542299 52292.84561317643 10.23773836351552 0.2304576078483234
0.5743573420336366 13.05780680387974 44718.73015024584 10.740058855185218 0.23373727417764392
0.594415717923242 13.039500526694189 38320.70161149148 11.263883544907904 0.2370582890017217
0.6148553263518719 13.024490686987948 32615.884341452922 11.810145483441577 0.24042220569579698
0.6356617654278947 13.012413836445125 28284.28385720731 12.379823997437551 0.24383065778709812
0.6568340243763024 13.003011875781569 24364.777835291727 12.973600700849033 0.24728151117178723
0.6783676802089387 12.995967099644563 21021.941200092013 13.592817375431538 0.25077971761092144
0.7002581722809694 12.9910570849901 18167.01243620168 14.23866503711919 0.2543278342129191
0.7224952589528507 12.988004466422392 15610.080896181365 14.91233379323675 0.25792784640018723
0.7450847271354166 12.98663977268479 13630.252090233864 15.614842486833268 0.26157954036424863
0.7680031018559271 12.986778377301208 11832.44336614625 16.347479311020177 0.26528502916835006
0.7912535402454973 12.988140882307837 10217.833986624408 17.11185040009747 0.26904889843372065
0.8148320517599984 12.990665006403699 8953.367474486397 17.90941135210578 0.2728735818267814
0.8387164019353002 12.994136841168768 7805.317593155392 18.74151061157556 0.2767600070781843
0.8628994862779075 12.998416063098443 6811.957864353822 19.609526922801155 0.2807089592131433
0.8873824876251686 13.003371571557611 5953.354719878616 20.51553048162984 0.28472665156719723
0.9121406265681187 13.00886385511999 5209.289716361134 21.461316143044723 0.288816098932793
0.9371631326447852 13.014764128416072 4563.658293243756 22.4483464325568 0.2929770466972577
0.9624481574719415 13.020967307030546 4003.1019247235595 23.478690803834727 0.29721364486881413
0.9879715382767533 13.027348693831222 3515.304345995245 24.55475153108476 0.30153182432493786
1.0137167737959316 13.033817215180882 3090.667451144364 25.678445120170505 0.3059330220710045
1.0396827954310828 13.040266589403982 2720.413507392158 26.85178558699859 0.3104188856182333
1.065835963308001 13.046593887915556 2397.2296826861484 28.07784571771255 0.3149979629680443
1.0921709335414453 13.05272434573151 2114.853103586816 29.358649166627178 0.319670480760946
1.1186710288222106 13.058551482606163 1867.665071180696 30.6970159307677 0.3244415607907188
1.1453041847039804 13.064011212720649 1651.4138460337176 32.09628111068728 0.32931882025419035
1.172069314085754 13.069021793090867 1461.4394917895113 33.55845510551407 0.33430040411584283
1.1989267249859907 13.073476251721289 1294.8881109398712 35.08804895333867 0.3393996639713279
1.2258753669054947 13.077340688977005 1148.6012778787247 36.687046292354616 0.34461311603270617
1.2528734412903109 13.080504449587082 1019.7333231249982 38.360539153648105 0.34995544088402325
1.2799175380199004 13.082940167189554 906.3393528963985 40.110812113865606 0.3554234689128353
1.3069627423842494 13.084521676672514 806.4362340135812 41.94325440806583 0.3610312769551146
1.3340022907371907 13.085240859105271 718.305998279772 43.86143674469856 0.3667812791532627
1.3610114861127325 13.08503097246444 640.3413071142354 45.869963799681074 0.37268075812896956
1.3879440327834038 13.0837711388378 571.5470894758239 47.97421313584266 0.37873991095894055
1.4147957853646458 13.081455179353252 510.60595932747884 50.178993030824444 0.3849646448067829
1.4415266049069375 13.078016159699194 456.68499757163187 52.489429350224945 0.39136143652951905
1.4681226884732095 13.0734136736426 408.8382350391747 54.91198829429407 0.397942229099281
1.494532529177012 13.067544849756393 366.36488557771384 57.452862546759285 0.4047160882617639
1.5207453470668726 13.06039286109581 328.6989751124947 60.11868315258412 0.41169279023791056
1.5467317412431316 13.05189903455414 295.16218435600666 62.91655898235646 0.41888288022910813
1.5724462760480824 13.042012181239977 265.33934138929624 65.85411997554024 0.4262977356999396
1.5978605774265584 13.030671621482515 238.79895334845085 68.93956454626753 0.43394963499769224
1.6229581819311543 13.017850866642915 215.1332709948821 72.18171158305081 0.4418518319363272
1.6477103139189955 13.003503067167326 194.00570091558694 75.59005752787947 0.4500186370484837
1.6720588943004124 12.987564239467877 175.14691713505664 79.17445913933547 0.4584639197479208
1.6959958018137153 12.970003602769344 158.2895544239749 82.94528318770367 0.4672016733873807
1.719476151971606 12.950784609895445 143.21234248201142 86.91519096225802 0.47625310671601734
1.7424557687937068 12.929828833903931 129.7167155926683 91.09567774080934 0.4856322173956906
1.7649402577909277 12.907177099711884 117.61920404116226 95.50101634669187 0.495361639034874
1.7868656094236994 12.88273823272633 106.77014675034536 100.14470259646943 0.5054581961774594
1.8082021382721385 12.856468023080527 97.0396988929126 105.04336031536447 0.5159479566872405
1.8289157751329923 12.828335211953233 88.28961977463271 110.21354056663975 0.5268534723463866
1.8489886339565804 12.798345187474798 80.42450689024747 115.67299712918407 0.5381985426830553
1.8683628146554843 12.766400438642135 73.35045229846469 121.4417331644089 0.5500117124265811
1.8870374979970663 12.73257060029928 66.97240919475816 127.54118952671186 0.5623228317852318
1.9049602610790375 12.696741550002754 61.22610222027035 133.99400398742506 0.5751618761118881
1.9220996008424887 12.65891266130398 56.0478607045291 140.82580627817043 0.5885649109800012
1.938410035030031 12.61901271604882 51.365360877966665 148.064283868118 0.6025701984368783
1.9539043816713269 12.57715655669388 47.141411277504844 155.7378345606007 0.6172131175784824
1.968517429479073 12.533217131852359 43.321312554067 163.88023919601818 0.6325416889308142
1.982228521381845 12.487203893174636 39.860941992354526 172.52543139817587 0.648597963433943
1.995012715520256 12.439110992891836 36.72671661557585 181.7124614233553 0.665434247035309
2.006846171096881 12.388940138339608 33.885461614862656 191.4834938485606 0.6831054434022947
2.0176889440552648 12.336652675764087 31.31297167436375 201.884595722105 0.7016708290113659
2.0275215987195505 12.282258923983102 28.978253107189413 212.96559665043048 0.7211926145332499
2.036326869334107 12.225775125339384 26.857680160831634 224.78233025541 0.7417421875791143
2.04406650949878 12.167169084096543 24.93112315451454 237.395690177168 0.7633957057457007
2.0507211889813717 12.106446548834453 23.177161175874712 250.87274896978764 0.7862363365601156
2.056289187044694 12.043684955493145 21.5847639036268 265.2868306157694 0.8103528531312282
2.0607300335177863 11.978822123280066 20.133426392937363 280.71925773062014 0.8358434538784082
2.064029477571289 11.911912507672008 18.81330920707853 297.2603072090923 0.8628167400716376
2.066185339410061 11.842996256847739 17.6113298613883 315.0102976020954 0.8913928354810638
2.067171309841079 11.772092349308243 16.516906108776617 334.0785187361305 0.9216970174781666
