M[M_sun], R[km], Lambda[1], P_c[MeV/fm^3], rho_c[fm^-3]
0.24162668629717493 15.618656898711224 2160425.4255784233 3.5677272577965504 0.1711233750220791
0.25364042316110885 15.277382715371422 1723271.0782232003 3.7847703034362823 0.17388755852041515
0.2660340485419522 14.98139089728838 1383066.820712014 4.011297843293881 0.17666540867952119
0.2788060550279767 14.723681094007317 1116694.9828866743 4.247567501920035 0.17945565019356058
0.2919575460655167 14.498599615870491 906036.1250651791 4.49420369828864 0.18226483538525384
0.30548899210712727 14.301434075099403 738773.595615599 4.751358150425835 0.1850885944164423
0.31940330587435434 14.128306122160877 605174.9498768366 5.019719474487914 0.1879336852878932
0.33369702603332785 13.976185389630958 497834.01474979514 5.299503004499594 0.19079656062890724
0.3483725056826186 13.842272387698433 411148.1251031093 5.591447350502947 0.19368371972069637
0.36343147381210894 13.724230868376681 340775.5199089867 5.895707134930891 0.19658999206747144
0.37887972687965715 13.620255138762019 283435.2696500819 6.21315156335698 0.19952316665027453
0.394708516602839 13.528668841683496 236507.06348714058 6.5440473534344745 0.20247958780822758
0.41092878436248603 13.448101377096485 197964.74525233012 6.889078203069749 0.2054626513846795
0.42753175910687247 13.377258227400501 166167.37749195454 7.248957200210161 0.20847557988510543
0.4445219595211665 13.315106576880694 139881.9247334426 7.623956653431724 0.21151413437660244
0.46189813727857887 13.260766278343251 118048.70862568969 8.014998762935795 0.2145840640561207
0.4796574357083009 13.213317059434209 99867.46887232873 8.4228003046181 0.2176872128707254
0.49780804503403553 13.172140712005625 84697.36964816127 8.847820227208 0.22082131218945134
0.5163409608502177 13.136544978391175 71985.65069811362 9.290895475280779 0.2239892584778538
0.5352534897434058 13.105961323242784 61318.60773332569 9.752927106269219 0.2271942163072281
0.5545541988039878 13.079917055057857 52340.265530084704 10.234723930380264 0.23043753536588904
0.5742299465111199 13.057935999397397 44763.38327917635 10.736782535001552 0.2337162391871878
0.5942788048692441 13.039627130609016 38360.33073796689 11.260296468722954 0.23703587688480535
0.614710274282085 13.024574903150814 32929.3428958664 11.806226463315085 0.2403983715146872
0.6355061855860914 13.012483265614602 28317.120931705744 12.375550523686302 0.24380535423191252
0.656670476606232 13.003079046462197 24392.63011030769 12.96899239775642 0.24725517200103347
0.6781955938360854 12.996015337502396 21046.63543140617 13.587808810186173 0.2507518312615102
0.7000763087676835 12.991089292613564 18188.934293704115 14.233229358231673 0.25429834538966595
0.722303690667263 12.988014943169487 15744.003335566453 14.906442424109677 0.25789669651084396
0.744883765848032 12.98665736249608 13647.36715318931 15.608522491713702 0.2615472367414159
0.7677959633550672 12.98675199411735 11847.251906665375 16.340645112674913 0.2652509624036751
0.7910342471616058 12.988123984506643 10231.499174634597 17.104467703835393 0.26901299888178887
0.8146001007222938 12.990644417902558 8965.961862840983 17.901443589737102 0.27283577536406434
0.8384734785999528 12.994112479015369 7815.006086898217 18.732993121382375 0.27672087361781444
0.8626479611463465 12.998366750307492 6821.894975690437 19.60034896900864 0.2806677835227088
0.887115008488767 13.003304705157534 5961.99206630896 20.505647897276525 0.2846833445502421
0.9118670297496335 13.008802447961667 5216.76144421048 21.4506817369861 0.28877056548563557
0.9368788562837235 13.014687677784044 4570.3356419085885 22.437004500654183 0.292929938769251
0.9621501101822061 13.020874445100267 4009.3715006581256 23.466499030165163 0.2971641304534131
0.9876659225841993 13.027277329209255 3520.6872599311328 24.541652538675976 0.3014797882464814
1.013406484441183 13.033735953530643 3095.827346068286 25.664489609167788 0.3058791650663653
1.0393569005609966 13.040187940538207 2724.806382057232 26.836802970547957 0.31036228399119575
1.0655030540689148 13.046522534794494 2401.283612778526 28.06176587359675 0.3149384766326078
1.09182427141529 13.052640883823756 2118.427477260675 29.34152907914821 0.319608858957809
1.118315007550796 13.05848177688038 1870.987142424879 30.678651231749452 0.3243767781249291
1.1449397817753326 13.063949683038915 1654.0912518901555 32.07672709797077 0.3292516205373077
1.1716942021941024 13.06895163411945 1464.0591211247806 33.53749176933282 0.3342297555115016
1.1985417123171536 13.073415481384098 1297.1396420268381 35.06557273353108 0.3393253412057412
1.2254809941139042 13.077290376641658 1150.555902180319 36.66312240555999 0.34453594127724474
1.2524694578651037 13.080462319375023 1021.5608069995816 38.33494388782827 0.3498744996539608
1.279506040295872 13.082908246181026 907.9614177052252 40.08350931206193 0.3553390031653315
1.3065421298845528 13.084508416292786 807.9415289922218 41.91418273163754 0.3609433888729322
1.3335726314622356 13.085235209209763 719.5653974782467 43.83027030550309 0.36668863637787835
1.3605751633614902 13.085040622825575 641.5239026446121 45.83676789283087 0.37258422894117227
1.3875013045585862 13.083796422929264 572.6147359147438 47.93884599515768 0.37863924465978965
1.4143522885847588 13.081522705470148 511.55163280428974 50.14106691179288 0.38485837164171177
1.441078355445549 13.078103736046673 457.53108531959145 52.44900445053295 0.39125044490086586
1.4676603731589277 13.073505812238965 409.60041462150264 54.86888564778843 0.39782620452672973
1.4940669820506416 13.067657436344788 367.0978204541515 57.40688869230885 0.40459469195664816
1.5202768201707177 13.060533214390604 329.32337439392523 60.06962883645525 0.41156565710724324
1.546256737804842 13.052067389765327 295.7349062546365 62.86419773112472 0.4187496166818193
1.5719706468753578 13.04221007078486 265.8665634320618 65.79820652512319 0.42615791723410323
1.5973925783320377 13.03090830994239 239.2853683526208 68.87983311090844 0.4338028035450278
1.6224797547750387 13.018110202667614 215.57220481541668 72.11787394609752 0.44169749293743765
1.6472311769884884 13.003799272363327 194.397314217853 75.52180093394853 0.4498562562290883
1.6715801911972015 12.987895261358837 175.5007486817817 79.10180029776019 0.4582944075017968
1.695518925975747 12.970377998233781 158.61561992393462 82.8675133425479 0.4670229585097153
1.7189920970678865 12.951189615019743 143.502668207701 86.83190985788937 0.4760645159897053
1.7419980867048075 12.930310047759201 129.98616854027335 91.00685070897286 0.4854346099459096
1.7644766014796078 12.907682737852442 117.86431068167938 95.4057878698788 0.4951526864932605
1.7864034523265349 12.883277574531766 106.9914144114687 100.04298976224973 0.5052387042938997
1.8077460426432903 12.85705353095145 97.23265340606913 104.93463579758989 0.5157170799458507
1.8284725464292801 12.828987039236653 88.47022402331228 110.09697914463402 0.5266093654734849
1.848549494213908 12.79903548786079 80.59127717733253 115.54799591724725 0.537940333313796
1.8679428432870935 12.767171869231516 73.49547184726228 121.30781472517056 0.5497391035599248
1.886621834561913 12.733367603680323 67.11314520636873 127.39770485238665 0.5620350199471742
1.9045541009687896 12.697591547761053 61.353510213268216 133.84045281154252 0.574858718413479
1.9217069509721547 12.659825831224067 56.16282246114 140.66088211646746 0.5882435759955148
1.938039606838906 12.620009756110441 51.473367862820865 147.88699930823654 0.6022291827654894
1.9535340819151057 12.578166382179495 47.23596607205421 155.54768885896485 0.6168527724400295
1.9681713135653784 12.534312011724058 43.40723837472181 163.6757821293483 0.6321593090129828
1.9819034005070923 12.488368304609077 39.93706122016361 172.305380082207 0.6481916627389196
1.9947047083765708 12.440342006229768 36.801513694123024 181.47572010331442 0.6650030194382502
2.0065537093398422 12.390223068020077 33.95669081132002 191.228525537656 0.6826470838118965
2.0174241886132553 12.33801873448921 31.375375289393133 201.60970496881103 0.701182925040006
2.027279321684606 12.283691434464929 29.037409063306256 212.66960413522347 0.7206747933365648
2.0361088735906216 12.227283811497852 26.910751988690574 224.46249706559684 0.7411893482963738
2.0438754147412737 12.168750473364398 24.97933696388524 237.0504585150955 0.7628070540483465
2.05055715807971 12.108108803132 23.222441826363895 250.49913393616293 0.7856069111203584
2.056145675842351 12.045393872150928 21.624945345993606 264.88231023825637 0.8096797547454742
2.0606221767712927 11.980628853004312 20.17029823446665 280.2814588526444 0.8351248980148398
2.0639590828985623 11.913808509293176 18.847793276990817 296.785642685303 0.8620476984921803
2.0661385575561098 11.844957170532707 17.64288068559911 314.49467156812256 0.8905674196165088
2.067159179023867 11.774131403685718 16.54603987750187 333.5185312693696 0.9208125620059009
