M[M_sun], R[km], Lambda[1], P_c[MeV/fm^3], rho_c[fm^-3]
0.24162668629717493 15.618656898711224 2160425.4255784233 3.5677272577965504 0.1711233750220791
0.25363889023349984 15.27742401866205 1723254.7790446999 3.7847446952334773 0.17388723932652098
0.2660320318765141 14.98141010243583 1383124.2762045488 4.01124401093445 0.17666475814722715
0.27880155305713655 14.723775351335899 1116704.4222074428 4.247483625400204 0.17945467735232976
0.29195154965756037 14.498686185883118 906111.5458413343 4.494087577895821 0.18226354235772968
0.30548183291947234 14.301534536486885 738955.2851776809 4.751205844810224 0.18508694922511404
0.31939262593905415 14.128457384050767 605309.0555939899 5.019529863068548 0.18793171799623398
0.33368455389458823 13.976327872824195 497949.38586444675 5.299271097074695 0.1907942257059425
0.348359636713759 13.842370963575314 411223.811097655 5.591172569435887 0.1936810611382829
0.36341555246342766 13.724339547039127 340844.6992299473 5.8953833089707075 0.1965869506255245
0.3788616842857026 13.620366738549192 279562.81161259365 6.212774775774551 0.19951973080120455
0.3946887772507295 13.528773361053421 236558.420322877 6.543617996803611 0.2024758229306073
0.4109057514418707 13.44818294043559 198011.44524759758 6.888587991459417 0.2054584765368966
0.4275074502969775 13.377339398788466 166223.1842255489 7.2484015359884735 0.20847098301740397
0.4444933157026692 13.315241594597389 139923.73703873495 7.623337073659578 0.21150920212322769
0.4618676539720121 13.260825442003176 118086.64269657212 8.014304464345253 0.21457869309520655
0.4796245481318345 13.213391139193154 99908.0047419918 8.422025876133269 0.21768139025115063
0.4977719931264859 13.17221289589778 84719.7337053718 8.846968525302525 0.22081514550375148
0.5163017687342613 13.1366079893165 72016.14638275154 9.289952721631334 0.2239826214333879
0.5352113548237794 13.106024381018173 61339.521423773775 9.751886912325048 0.2271870945888796
0.5545080628980349 13.079994238199577 52360.224386144946 10.233579519553869 0.23042991403622137
0.5741801313450506 13.057973645173382 44779.25274638442 10.735538880271326 0.23370825453858374
0.5942316231251118 13.03965843284567 38372.300596499 11.258934874348174 0.2370273696185119
0.6146550046031507 13.024634556034865 32942.81141789703 11.804738890242223 0.24038932458844334
0.6354473819706467 13.01252033899888 28329.41678152021 12.373928431521469 0.2437957497038405
0.6566092269881453 13.00310339815976 24403.51362751196 12.967243235099831 0.24724517450456632
0.6781303599013354 12.996037159035879 21055.66106013559 13.585907748552883 0.2507412466596609
0.7000080978941529 12.991100766413549 18060.934093955573 14.231166210394523 0.25428715271195745
0.7222300657328827 12.988024899410753 15751.996853345308 14.904206348541429 0.2578848735364196
0.7448078061233087 12.986652828424509 13654.025338862906 15.606123759538955 0.2615349760136805
0.7677163847897895 12.986751916452773 11853.076294547165 16.3380512541721 0.2652380326696007
0.7909493557761658 12.988117473032352 10304.447456351065 17.101665708751586 0.2689993737285315
0.8145124544639059 12.990629519768575 8970.42441964919 17.898419585579543 0.27282142668056336
0.8383817384373009 12.994096663218507 7819.0664156625135 18.729760517744126 0.2767060214766907
0.8625522468977219 12.998348624696677 6825.441078049989 19.59686575392578 0.2806521565333808
0.8870144729768454 13.003282969236277 5965.111095588127 20.501897316428842 0.2846669089234308
0.9117638778192857 13.008776355404228 5219.726984462787 21.446645889191355 0.2887532851541075
0.9367716609093202 13.01466494901041 4573.2646206180225 22.43270019271181 0.29291206112455964
0.9620374103921518 13.020856165214852 4011.3676753289747 23.461872273462973 0.29714533981970215
0.9875509351909274 13.02724468368856 3503.394352049029 24.536681569348737 0.30146004094517426
1.0132865196446124 13.033706005886994 3097.6596810204965 25.659193662399304 0.30585872698784394
1.0392334734634041 13.040155604586054 2726.442982247172 26.83111733709272 0.3103408046918113
1.065375787671887 13.046494156745297 2402.6077561712377 28.055663956604313 0.31491590298833594
1.0916919757807642 13.052614744340845 2119.6705090598025 29.33503249625248 0.3195854752483066
1.1181791534189807 13.058452225230102 1872.110040444551 30.67168246444978 0.32435219534671467
1.1447990934735044 13.063912558284926 1655.1388121142813 32.06925347246259 0.32922577383298857
1.1715509538727331 13.06892843051114 1464.9221301505959 33.52953713946041 0.3342029475886749
1.198400414044087 13.073403784174424 1297.985413790317 35.05704417249189 0.3392971395664827
1.2253313449065628 13.077271962980094 1151.3147495144576 36.65404465079743 0.344506657845587
1.2523167220398859 13.080442904843578 1022.2414029242744 38.32521256022139 0.3498436729414213
1.2793480210509094 13.0829017387502 908.5526137255378 40.073149766425004 0.35530695419203145
1.3063827674547641 13.084505111256043 808.4492160595615 41.90315217280144 0.36091004182244835
1.3334097151063442 13.085233627644199 720.0300828895029 43.81844514427438 0.3666534858831835
1.3604088582172076 13.085050732538589 642.019198246327 45.82417289314988 0.37254760439300133
1.3873331503513737 13.083806656890077 573.0144935666674 47.9254273954631 0.3786010509934407
1.4141805780315444 13.081542540726367 511.91506003938224 50.126677675365315 0.38481805141551506
1.440905158203041 13.078127132388758 457.8644736033702 52.43366740619748 0.3912083351234146
1.467486735731006 13.073539739618745 409.9203106487229 54.85253293154455 0.39778218595557313
1.4938908687925327 13.067700927791103 367.3544622528047 57.389446945380506 0.4045486361351997
1.5200979064887528 13.0605876064756 329.5699018496024 60.05101871355829 0.41151742560851484
1.5460770565334039 13.052132452876874 295.95872493553827 62.8443333596907 0.4186990602772322
1.5717896826834756 13.042283322934097 266.0638464511916 65.7769949100217 0.42610487497934557
1.5972063419424118 13.030983445909715 239.4545482752164 68.85717347854506 0.43374710177397957
1.622298836514389 13.018212479430899 215.73091970447857 72.09365702101104 0.44163894415411153
1.6470492158840706 13.003910045227256 194.54406499213448 75.49590814018063 0.44979465788633005
1.6714039112434815 12.988020016463903 175.63593586133837 79.07412648556819 0.45822963926061455
1.6953380889890586 12.970518753303594 158.7367144766669 82.8380127660079 0.466955166270746
1.7188041673585717 12.951311692203957 143.61951934021874 86.80031930345943 0.47599297892676995
1.7418188624229278 12.93048277674749 130.09092916913855 90.97315702266675 0.4853596538960786
1.764299297730498 12.907875387429675 117.95626544927197 95.3696667439879 0.4950734286776004
1.786228525577332 12.88348439084384 107.07949624967306 100.00440975357353 0.5051554503089227
1.8075729073974323 12.85727736047291 97.30773869453472 104.89339700730218 0.5156295092882349
1.828302841671766 12.829226753792144 88.54516378950932 110.05268922427403 0.5265164824935693
1.8483826476984504 12.799296202555393 80.65454981111135 115.5005854400587 0.5378423996280224
1.8677803381577371 12.767455011236576 73.55634246215794 121.25702316761628 0.5496357105617736
1.886462770859004 12.733670407349274 67.16540603073854 127.34324729558702 0.5619257240652018
1.904399560246743 12.697915492145768 61.40066378156432 133.78221746185264 0.5747437437512756
1.9215396224021075 12.660111398521629 56.2084364464717 140.5983349048085 0.5881217102417007
1.9378947141444822 12.620380623965719 51.51485595693714 147.81976601399325 0.6020998561789476
1.9534038352361258 12.578587127148216 47.27508705245354 155.47557967334572 0.6167161183150499
1.9680398124804892 12.534727947242924 43.44061511901105 163.5981340695933 0.6320139181435532
1.9817800461355777 12.488806715921863 39.97398827439556 172.22193379072456 0.648037588285526
1.9945879628568555 12.440804729773678 36.83063189665603 181.38594692469505 0.6648394963486194
2.006445474010442 12.390714493259695 33.98489552287782 191.13184305174403 0.6824732765474405
2.0173304459482573 12.338555672252184 31.40366062079058 201.50547073356006 0.700997919554295
2.0271873816454673 12.284235334698296 29.05870876647372 212.55732138400097 0.7204782852295429
2.036013259672716 12.227819870759848 26.930662762288417 224.34122779571172 0.7409797314763655
2.0438017952978003 12.16935150702826 24.997282843210535 236.91956259480378 0.762583864479945
2.0504936583216278 12.108735296113965 23.239686398039524 250.3573828319781 0.7853679507999667
2.0560935349254734 12.046050739835952 21.640541396005197 264.728932722684 0.8094245256485159
2.060581520223452 11.981313158097638 20.185819899601775 280.11528978411576 0.8348518562660185
2.0639291721614503 11.914525648529777 18.86110193924517 296.60569337142556 0.8617561483601802
2.066122147538285 11.845699561331136 17.655541151810183 314.29919985772176 0.8902545078544836
2.0671537297531026 11.774904595349632 16.557655645791918 333.30624923200617 0.9204772794848548
