M[M_sun], R[km], Lambda[1], P_c[MeV/fm^3], rho_c[fm^-3]
0.24162668629717493 15.618656898711224 2160425.4255784233 3.5677272577965504 0.1711233750220791
0.2536411635918232 15.277354731365744 1723184.2829113514 3.784785275464337 0.1738877451395221
0.266035956643238 14.981342980846359 1383103.8291166802 4.011329317026455 0.17666578902100483
0.2788082615596398 14.723670892355715 1116612.977308689 4.247616541690492 0.17945621898099653
0.29196091986569633 14.49853837453337 906016.2391690597 4.494271590449566 0.18226559138022272
0.3054938728458667 14.301386849989305 738806.6554315881 4.751447199663386 0.18508955631816085
0.319407539265736 14.128307396085578 605209.9865628718 5.019830336245502 0.18793483552141688
0.3337011622218813 13.976219805649835 497819.5960553396 5.299638596790289 0.19079792581828622
0.3483823542893088 13.842168507936487 411096.1602547483 5.5916080113365325 0.19368527415845757
0.3634411341438653 13.724152820611547 340745.46066154196 5.895896472970396 0.19659177037040668
0.3788921508947834 13.620148783702044 283393.14997017354 6.213371869078809 0.19952517557319227
0.3947202142568854 13.528606179675386 236480.2318816253 6.544298397576988 0.20248178912621342
0.4109421029645278 13.448040608370613 197936.62362469445 6.889364830951404 0.2054650924279984
0.42754580186580554 13.377214104303157 166146.0892574644 7.2492821005611 0.20847826770244393
0.44453881726367345 13.31504964342002 139860.4855874797 7.624318927775233 0.21151701831331843
0.46191560779112834 13.260693154903857 118031.04111395989 8.015404728773124 0.21458720453008173
0.4796764524680328 13.213275292549028 99855.84539316088 8.423253126461084 0.21769061745795132
0.49782886718451624 13.172098010481157 84676.28776206434 8.848318235033911 0.2208249179788933
0.5163639991770476 13.136500566037675 71972.10567025057 9.291446726518213 0.22399313932093187
0.5352772772095225 13.105935956488528 61305.45473816485 9.753535337160846 0.22719838057786756
0.5545804819639958 13.0798975103817 52329.76698345473 10.235393104136982 0.23044199180206326
0.5742581369658183 13.05790891068309 44752.45117935516 10.73750974386648 0.23372090809336177
0.5943100502112467 13.039604266279282 38349.679399665285 11.261092646134408 0.23704085141567996
0.6147427266510408 13.02455021371105 32919.868078435546 11.807096310923082 0.24040366163945254
0.6355394795867163 13.012469963976784 28308.152563503452 12.376499036388845 0.24381097044600675
0.6567058572679488 13.00306799459789 24385.55448663514 12.970015219950985 0.24726101803326964
0.6782340115611596 12.996002423779624 21040.695559612337 13.588920462281104 0.2507580206425453
0.7001170065711005 12.991084838318011 18184.391271942866 14.234435798409738 0.2543048903865123
0.7223457958739953 12.988013940452177 15739.783295518286 14.907749993281705 0.2579036101219484
0.7449274680866567 12.986655801467583 13643.615282675915 15.609925183438634 0.2615544063710715
0.7678437478715813 12.986744640698001 11843.523806684898 16.34216191682905 0.2652585232919558
0.7910822270028791 12.988131919391817 10296.251397047414 17.106106229918776 0.26902096647928087
0.8146506978825498 12.990658322055173 8962.880594895636 17.90321195162416 0.27284416611477447
0.8385271142214773 12.994111276007494 7812.711943369568 18.73488347688165 0.2767295588232374
0.8627041418837437 12.998378176474912 6819.708410001434 19.602385889635546 0.2806769219009431
0.8871726801199916 13.003328596006646 5960.101584385845 20.507841182669967 0.2846929558669104
0.9119279574453467 13.008819030312555 5215.213541376217 21.453041857672286 0.2887806708389536
0.9369420986237724 13.014702845593675 4568.860771860999 22.43952162721233 0.292940393479939
0.9622104144698794 13.02091568926677 4007.6621357655404 23.46920474003964 0.2971751191451581
0.9877345854977632 13.027298598536072 3519.460388052579 24.544559561994447 0.30149133647009696
1.0134714742311544 13.033745444507947 3094.4156854410307 25.66758669588179 0.30589111732045987
1.0394287560653965 13.040205002049875 2723.825127944897 26.840127969561976 0.31037484523873965
1.0655774563940954 13.046537190151982 2400.167790135602 28.06533434232197 0.3149516779501116
1.0919001115439115 13.052663259192705 2117.5733803519183 29.345328373682424 0.3196225340853534
1.1183927447514996 13.058498542153147 1870.2198899836485 30.682726694528345 0.32439115458396506
1.1450194909903588 13.063959353610075 1653.5113430346737 32.081070065797384 0.3292665566021763
1.171776756482609 13.0689749563386 1463.4961700160495 33.54214384131153 0.33424543347371855
1.1986274044670937 13.07343657234832 1296.627736007671 35.07056049069024 0.3393418343664825
1.225569463871142 13.077297609470317 1150.123394617263 36.66843137843585 0.34455306720193096
1.2525591462086572 13.080470407417092 1021.1471949245114 38.340635133319225 0.3498925282720311
1.2795965276775998 13.082916141085049 907.6060473865243 40.089567999252864 0.35535774671942366
1.3066350357664545 13.084517303171468 807.5341338753485 41.920633894066306 0.3609628917143012
1.3336683678483496 13.085233677085741 719.2890366324201 43.837186239279085 0.36670919410971814
1.3606728380827287 13.08503615165945 641.2803115442738 45.84413411215787 0.3726056489063499
1.3875988108713289 13.08379287094169 572.3731077605112 47.9466939493972 0.3786615824709301
1.4144514668002375 13.08151168185382 511.34441463767297 50.1494826159254 0.38488195337212083
1.4411797764709664 13.078089076032272 457.339040862545 52.45797455024422 0.3912750734338671
1.4677639525770594 13.073484480628082 409.44076004430656 54.878449843287555 0.39785194962093035
1.494170658392862 13.067629733737292 366.91221533163895 57.41708989866916 0.4046216287618099
1.520380526188448 13.060498898224445 329.1917262267457 60.08051347135975 0.41159386660685066
1.5463614949930742 13.052029617058228 295.60706999908973 62.8758160313142 0.4187791861794974
1.572076170148254 13.042164712315827 265.7496318582002 65.81061289474206 0.42618894088858655
1.5974990259193924 13.030856563872465 239.17702342243547 68.89308650533266 0.43383538295893853
1.622586139626511 13.018056861233438 215.4677383810776 72.13203829526906 0.4417317378057534
1.647337894679086 13.003734159981905 194.31022213127977 75.53694560973976 0.44989228505389234
1.6716866801532253 12.987822780454652 175.42291218455497 79.11792159689118 0.4583320183082298
1.6956256949486974 12.970296745728835 158.53854449368248 82.88476846813559 0.46706261073806077
1.7190894506491328 12.95107034213624 143.43834800695336 86.85038758603716 0.4761063589527448
1.7420953871506932 12.930193134205645 129.92952558424219 91.02655873273109 0.4854784530445089
1.7645802467126948 12.90757540513203 117.80590482247652 95.42691593485394 0.49519904618548366
1.7865066573681871 12.8831561175444 106.94125747467855 100.06555626189115 0.505287401821106
1.8078474628160601 12.856925255536103 97.19216734615932 104.95875768818388 0.5157683028310885
1.8285733737750265 12.828840710707112 88.43369023425996 110.1228859901969 0.5266636962330921
1.8486468673116052 12.798883041270264 80.5536636185164 115.5757283354776 0.5379976189201381
1.8680386564427383 12.767006494171591 73.4663451955335 121.33752514903142 0.5497995830952499
1.8867149634025457 12.733189420343242 67.083678732083 127.42955999104583 0.5620989529562865
1.904644516286249 12.697403635432831 61.32671451558318 133.8745180694644 0.5749259738097855
1.9217939487024722 12.6596227277547 56.13701825513058 140.69746999691705 0.5883148631002983
1.9381224033017148 12.619796456355008 51.449899961181416 147.9263287816107 0.602304834964288
1.9536180743198082 12.577946034532943 47.214978015215046 155.5898709814345 0.6169327117845994
1.9682483366623453 12.534069383636588 43.38666630192054 163.7212048542866 0.6322443600688813
1.9819763583453582 12.488111309439564 39.9243282714938 172.35419516563266 0.6482817944531343
1.9947752524677176 12.440069943481925 36.78419585289084 181.52823689532158 0.6650986795030779
2.0066185356705484 12.389935328407722 33.943429197861114 191.28508485544583 0.6827487611758143
2.0174835484760276 12.337716736682312 31.36275444385746 201.67068275951252 0.7012911546035381
2.027333998594272 12.283375403858093 29.02241396737298 212.73526191504797 0.7207896576941877
2.036158217927156 12.226947673404114 26.89854489408247 224.53344211543896 0.741311978503988
2.043917471387909 12.168399856593885 24.969311549372183 237.1270362584922 0.7629376261353892
2.0505927091850373 12.107735269053514 23.21170339766145 250.58206335674868 0.7857467113781909
2.0561761461369787 12.045010318562417 21.61542984963269 264.97204266770734 0.8098290747214248
2.060646875717499 11.980228139109295 20.16259800779406 280.37867618207923 0.8352846412804167
2.0639768078372867 11.913389583623571 18.840829437748877 296.8909235263782 0.8622182723190606
2.0661496322360104 11.844520616623921 17.63641323050568 314.6090355627656 0.8907504938782658
2.0671617735275785 11.773678524887707 16.540293312859443 333.64273218919914 0.9210087274376721
