M[M_sun], R[km], Lambda[1], P_c[MeV/fm^3], rho_c[fm^-3]
0.24162668629717493 15.618656898711224 2160425.4255784233 3.5677272577965504 0.1711233750220791
0.25363785481973133 15.277448950637131 1723331.7199281538 3.7847210785383307 0.17388694495580906
0.2660280758667253 14.981540868460415 1383276.8287615734 4.011194365486815 0.17666415821129122
0.2787975317072575 14.723843971894473 1116769.5229095935 4.247406273221964 0.17945378018362942
0.29194546114884645 14.498796216300946 906226.3965117835 4.4939804908668615 0.1822623499188086
0.3054739150892087 14.301645558900923 738989.185626417 4.751065388755684 0.1850854320316606
0.31938463854381777 14.12853886556396 605374.6428933623 5.019355005103014 0.18792990377735258
0.3336756628746932 13.976370359612222 497976.0894664984 5.2990572359449715 0.19079207247922597
0.3483472350940877 13.842477812734629 411286.1567067344 5.590919172982427 0.1936786094578887
0.3634014497023261 13.724428330265637 340904.68638686696 5.895084687008352 0.19658414590485893
0.3788466955936716 13.620426743916008 283540.68331430265 6.212427317188306 0.1995165623972654
0.39466913637804124 13.52889307475854 236629.34310355794 6.543222064133983 0.2024723511359735
0.4108845112629887 13.44830784118506 198054.08061654196 6.888135944854868 0.20545462671831827
0.42748307320410917 13.377448064152787 166263.18721824102 7.247889136687566 0.20846674406930424
0.4444683286704211 13.315312810413001 139954.99531177795 7.62276573952793 0.21150465393617313
0.4618397673542471 13.260914762613137 118111.08198645535 8.01366423473418 0.21457374040156152
0.47959296123306455 13.213484510378661 99933.35616465546 8.42131176247154 0.21767602111472703
0.4977396004837926 13.172272882614918 84748.79625425712 8.846183161989252 0.22080945913780345
0.516265852866171 13.13666873058356 72037.77104853682 9.28908340535855 0.22397650139263195
0.535172501156656 13.106089220737937 61361.03249093699 9.750927753527558 0.22718052768003963
0.5544671373116359 13.080047621829184 52378.08737962613 10.23252427099739 0.23042288649248902
0.5741352568446346 13.058037671667957 44795.51104040444 10.734392127681662 0.2337008920317386
0.5941846181060411 13.039692412545794 38386.58354423947 11.257679381340838 0.23701952527548228
0.6146056449627679 13.024647798173362 32953.74253535301 11.80336724592599 0.24038098270246264
0.635393743421419 13.012542290526392 28108.582451914306 12.372432762912174 0.24378689373902182
0.6565480247256121 13.003096884061497 24413.054106305037 12.965630410149986 0.24723595625852302
0.67806997959503 12.996048559841098 21065.373091303594 13.584154877773733 0.25073148714478477
0.6999442481753192 12.991115759474637 18205.019436388928 14.229263902903655 0.25427683260097733
0.7221619734817769 12.988026920911553 15758.171243699153 14.902144610396624 0.2578739723496699
0.7447365771620503 12.986651375975303 13659.642519661404 15.603912060512062 0.261523671275333
0.7676424035283818 12.986737267462438 11858.128535491527 16.335659661535892 0.2652261111801414
0.7908703026545302 12.988112921785236 10308.756511570624 17.09908222969626 0.26898681114472484
0.8144313996860671 12.99062797889116 8975.033647282096 17.89563143260696 0.27280819709407095
0.8382981251930229 12.99407756036155 7823.047859923601 18.726780053449875 0.2766923277853923
0.8624637363412215 12.998332577874713 6828.788646242362 19.593654250579966 0.28063774854325735
0.8869232747641559 13.003272444995657 5968.252645426432 20.49843933050805 0.2846517554929567
0.9116677781510409 13.008751241695533 5222.643626876533 21.442924920199207 0.2887373530424273
0.9366725564334197 13.0146409426929 4575.683882565789 22.428731734290803 0.2928955784075764
0.9619339305300036 13.020829613888921 4013.6722422188514 23.45760655969872 0.2971280154886385
0.9874452044382561 13.02721628503408 3505.269875883994 24.53209853985593 0.30144183474466557
1.0131726440341917 13.033680849193471 3099.099037632083 25.654311048719297 0.3058398840413145
1.0391183656869583 13.040131816583981 2727.9342524880135 26.825875493213804 0.31032100194953316
1.0652578493282774 13.046460221030285 2403.8723318400107 28.050038368150208 0.31489509149045086
1.091571012893786 13.052585908153773 2120.8610519846293 29.32904309014431 0.31956391706383125
1.1180536281485463 13.058423953839828 1873.1504211713298 30.665257790188324 0.32432953189194885
1.144670600422175 13.063885086771645 1656.2729603016815 32.062363415447415 0.32920194533553193
1.1714184916407648 13.068906380768187 1465.8213165783122 33.522203687019925 0.3341782330978399
1.1982649217355887 13.073387913026405 1298.8380126031898 35.04918167504263 0.3392711404189459
1.2251928318304346 13.07725541038954 1152.0157151296735 36.64567590949999 0.34447966158161475
1.2521751266510595 13.080427072095306 1022.8402031005096 38.316241372364665 0.3498152541849711
1.2792037369492009 13.082892328439245 909.1274954778733 40.06359950157105 0.35527740886311066
1.3062364577868955 13.084496271323795 808.9449779864632 41.892983388789155 0.36087930004781515
1.3332605165604128 13.085226844690773 720.5018373736295 43.807543937357515 0.3666210818585376
1.3602569116942573 13.085047528648811 642.4239551364343 45.8125620873169 0.37251384174684776
1.3871781848441436 13.083817835340913 573.3930924829159 47.913057443106695 0.37856584211592686
1.4140162878906009 13.08154027745134 512.2643541780755 50.11341306799725 0.3847808825238798
1.440746225579394 13.078150572150022 458.1657240023944 52.41952918337698 0.3911695168606838
1.4673217475727895 13.073558889586563 410.20382562419405 54.83745855094314 0.39774160843406237
1.493727194477473 13.067738763086911 367.58655939615903 57.373368801616365 0.40450618097738406
1.5199327824752742 13.060639114678393 329.7746717802467 60.03386368518236 0.41147296525036026
1.5459115416157034 13.05218881235309 296.15606035240967 62.82602231099996 0.4186524572025213
1.5716238889784777 13.04235058499588 266.24267529734493 65.7574421426725 0.42605598087760027
1.597039220011412 13.031063561525709 239.62139404184907 68.83628612732747 0.4336957566137109
1.6221333052497675 13.018295384315023 215.87286336955643 72.07133438745322 0.441584975162145
1.6468820606134527 13.004010584631375 194.67703664947464 75.47204095686764 0.4497378784228405
1.6712358092549537 12.988136505927503 175.7605724216676 79.04859610316727 0.4581698475782366
1.6951602294515755 12.970628861681543 158.85507081135424 82.81082053676467 0.4668926786071417
1.7186548824717747 12.95149521248321 143.71644518205187 86.77120093316776 0.4759270401445701
1.7416559172477748 12.930639290302326 130.18694118092895 90.94210038502746 0.4852905643088685
1.7641355523091604 12.908047256092267 118.0392133790752 95.33637301346273 0.4950003747986994
1.786066696907409 12.883674283077257 107.15774783813652 99.9688499512569 0.5050787137982418
1.8069276299102637 12.857558094935785 97.56022295590384 104.89743023502784 0.5898433847451363
1.8251422980309089 12.828677387754373 89.49030871357796 110.25721683914912 0.7042883981783928
1.8407045679033736 12.795814830474454 82.62296705039572 116.0835181358331 0.819420573326329
1.8537917453967374 12.75854066741763 76.69751451189629 122.40697519273141 0.9356452166797298
1.8645536035629584 12.716652247080143 71.52076949599311 129.2611518829566 1.053313536853879
1.873168829634719 12.670092824447456 66.94478065698631 136.6827703109175 1.172954628276394
1.8797878948956004 12.618900492926238 62.874961979850205 144.71207894487483 1.2949655541751475
1.8845986839402669 12.563279355746968 59.20656429561783 153.39363802564384 1.4198829259254544
1.887677944458745 12.503251428911133 55.891469912902565 162.7763689157474 1.5482163394671133
1.889143010871829 12.438970757859527 52.876366523947425 172.9143504418882 1.6805193321249023
1.8891985384285352 12.370861057836 50.098152844593926 183.8664745311219 1.8173124232029678
