M[M_sun], R[km], Lambda[1], P_c[MeV/fm^3], rho_c[fm^-3]
0.24162668629717493 15.618656898711224 2160425.4255784233 3.5677272577965504 0.1711233750220791
0.2536442797391329 15.277268734887187 1723178.8974205009 3.784824099972952 0.17388822906829243
0.2660403396381768 14.9812670350383 1382939.0995492337 4.011410933526114 0.17666677530823643
0.2788157567340886 14.723480428457416 1116371.3301287044 4.247743711017611 0.17945769395355102
0.2919705611913798 14.498402343017807 905820.6708014365 4.494447649234062 0.1822675518356492
0.30550540325935793 14.301228907317784 738602.1482174123 4.751678125461148 0.1850920507575052
0.31942214391755613 14.128139704766816 605096.0813571924 5.0201178296987115 0.1879378183769562
0.33372179289945597 13.97593674765247 497678.29549692094 5.299990226265705 0.19080146614364485
0.3484023318946631 13.842016417873717 410999.9396454563 5.5920246543374486 0.193689305294106
0.36346592338442485 13.723961507916059 340640.6316160031 5.896387489296607 0.19659638209965258
0.3789182788351484 13.620005544773218 283290.2221256711 6.213943200074728 0.19953038542394774
0.39475165877614926 13.528447395359294 236404.62855311096 6.544949449628488 0.20248749797317683
0.41097731676210975 13.447850021000939 197861.97212866365 6.890108171678352 0.20547142302955992
0.42758527222942994 13.377040115928565 166073.33193019909 7.250124704579907 0.2084852383495506
0.4445802652841549 13.314914218174367 139797.91393970198 7.625258465823984 0.21152449764030745
0.46196198786267495 13.260561621788932 117979.64530189785 8.016457587427299 0.21459534924297144
0.4797273622805841 13.21313867115953 98736.24981190455 8.424427514776664 0.21769944721631973
0.49788420542845474 13.171977329396872 84640.3133524137 8.849609822538492 0.22083426962427935
0.5164235893937237 13.136387757672555 71937.67279366069 9.292876413509662 0.22400320440648225
0.5353418441627388 13.105843610081166 61275.61716202713 9.755112816105981 0.22720918083373423
0.5546488600775695 13.079818043039863 52296.647304566715 10.237128656405046 0.23045354990312744
0.5743309054946893 13.057852277952364 44728.296080844666 10.739395828327758 0.233733017339839
0.5943890078251609 13.039518768681383 38326.58575117219 11.26315762442654 0.2370537534374177
0.614825921682492 13.024499345374018 32901.135038128836 11.809352380420025 0.24041738230616277
0.6356307661351595 13.012427524662847 28290.901913905593 12.378959155362605 0.2438255369929985
0.6568009626509512 13.003027177593182 24370.068729111306 12.972668091246932 0.2472761807577362
0.6783330584456388 12.995974606791927 21026.827709621404 13.591803753905628 0.25077407403783064
0.7002202137249336 12.991056804245893 18171.41264412733 14.23756496811661 0.25432186628489123
0.7224558492110399 12.988009983068368 15728.741276800396 14.91114149193176 0.25792154225374636
0.7450441418672057 12.986646733629087 13633.41627332301 15.613563430866966 0.26157300267858025
0.7679645547743 12.986762265726158 11835.788787716756 16.346096177728835 0.2652781345957946
0.7912099433525881 12.988137905011797 10288.471160009936 17.110356246933627 0.2690416328728476
0.8147862768038956 12.990654835060386 8956.045867811456 17.907798776202537 0.2728659302694252
0.8386673161185544 12.994135299725999 7807.121564622709 18.739786765682965 0.2767520868982497
0.8628488289591042 12.998409397918989 6814.259699715009 19.607669390575413 0.2807006256375307
0.8873283204470187 13.003356925635012 5955.1075183692155 20.513530321649416 0.2847178865560333
0.9120853273964374 13.008854561646729 5211.019032747826 21.459163801551693 0.2888068832298099
0.9371054148050442 13.01473523838442 4565.159502880792 22.446050875962893 0.29296751226205836
0.9623897152574161 13.02095374857021 4004.342438276354 23.4762232216038 0.2972036232841842
0.9879106760362135 13.027331596405512 3516.401232559335 24.552100307004906 0.30152129227026375
1.0136523036928948 13.03379419932453 3091.6574596434525 25.675620517489115 0.3059221213852692
1.0396171168618948 13.040250754557995 2721.310021533518 26.84875307071035 0.31040742931776016
1.0657684326349337 13.046576489841648 2398.232628699636 28.07459109082621 0.3149859226879715
1.0921000682159332 13.052701012125377 2115.6315555473943 29.355183965019265 0.31965800816280215
1.1185987149819376 13.05854126244863 1868.506082252859 30.693298778885143 0.3244284482965876
1.1452289680607586 13.064003633993787 1651.9572145857194 32.09232414155455 0.32930522449799604
1.171994092869222 13.06900731776341 1462.002397170175 33.55421189911738 0.3342861040727931
1.1988499782758348 13.073465238841328 1295.4240966166908 35.08349947999076 0.3393846200963314
1.2257954765248114 13.077331670533729 1148.9964972388093 36.68220375547551 0.3445974947583428
1.2527912357645543 13.08049889367687 1020.1185494555417 38.355383898730764 0.34993920748050505
1.2798343473511027 13.082932619336857 906.6751796058855 40.10528553904226 0.3554063715366413
1.3068782856281906 13.084526598313365 806.697965653815 41.93736973401354 0.3610134866939303
1.3339156857186558 13.085232470028346 718.5657484620768 43.85512798638634 0.3667625262609092
1.3609233663498232 13.08503291756806 640.5950898602842 45.86324417742403 0.37266121838023775
1.3878542800945504 13.083774529360888 571.767910207797 47.967053944686626 0.3787195335898733
1.4147113779711453 13.081481008844321 510.79748073497933 50.17131575789134 0.3849431322419714
1.44143439909281 13.078030980271597 456.84080729510595 52.4812461843251 0.39133896862192535
1.468028421174405 13.073435237801025 408.9863912952135 54.90326299670691 0.39791874216738693
1.4944384725019968 13.06756571626783 366.5083721934033 57.44355594315552 0.4046915137007623
1.52065030149418 13.060420057414248 328.82120972047886 60.10875287016987 0.41166705411535576
1.546634266689761 13.05193475609675 295.27580615728186 62.90595916078718 0.4188559028404911
1.5723508347466963 13.042052498544821 265.4526369676251 65.84280094868255 0.4262694310798849
1.5977745133997445 13.030725648064049 238.90312034828045 68.92747249153358 0.4339199103819751
1.6228615405950875 13.017901262637384 215.21822161340197 72.16878813462394 0.4418205871693277
1.6476137277044303 13.00356259402416 194.0831510713583 75.57623934969519 0.44998576393005085
1.6719621863808798 12.98762956553057 175.22071441457146 79.15974961799841 0.4584296026029293
1.6958986488931702 12.97007741708167 158.34711510014415 82.9295387883156 0.46716549280344205
1.7193802061890604 12.950869033542094 143.26853708900344 86.89833062526382 0.4762149263481691
1.7423601268544535 12.929922308216875 129.76699268334175 91.07769444865406 0.485592211190057
1.7648446590438658 12.907281339453425 117.67050989515079 95.48173683397638 0.49531933547907026
1.7867718034679267 12.882844270309157 106.81286132800632 100.12411007517231 0.5054137584098815
1.808110145085418 12.85658744400333 97.07766225088417 105.02134798805987 0.5159012134640696
1.828820107725529 12.828452829624567 88.32400074914682 110.18999194232038 0.5268042384370516
1.848899421561938 12.798487584945493 80.45844496924194 115.64768881094146 0.5381462644307954
1.8682768126925653 12.766548874782245 73.38055674867606 121.41461910044815 0.549956518128553
1.8869553871977311 12.732728927956055 67.00362496305509 127.51222016266647 0.5622648512611721
1.9048790125480801 12.696913223857647 61.252314576981824 133.96291421359246 0.5751004952450535
1.9220203860404885 12.659097254590133 56.067965382422095 140.7924133573445 0.5884998488715462
1.9383344580160187 12.619209515863272 51.38907586133214 148.02838779622152 0.6025011505566445
1.9538313677184649 12.577365961600531 47.158826324646604 155.69933391981453 0.6171401550102241
1.9684464428353905 12.533438005814087 43.33503056876124 163.8389006385125 0.6324644681618462
1.98216202987199 12.487437636125543 39.875531883826014 172.48087423243052 0.6485156934991739
1.994953510012719 12.4393623645834 36.743679126734285 181.66452410449338 0.6653469285443134
2.006788104410043 12.389202867489812 33.90183396493858 191.43186502809255 0.6830126296525447
2.017635872498478 12.336929984063493 31.32590072423951 201.82893194315054 0.7015720312945007
2.0274727027093284 12.282544706075194 28.99042173521128 212.90565902627367 0.7210877572457417
2.0362827593791826 12.226080945229 26.867686358515723 224.71756391034555 0.7416302374098024
2.0440281237544045 12.16748699186941 24.940953563225648 237.32577953921628 0.7632765016858925
2.050688218806634 12.106781168447974 23.186725998878984 250.79718886645725 0.7861091976863351
2.056260700312401 12.044036181689343 21.592540817723215 265.20493450632296 0.8102166202716118
2.0607085337574884 11.97918833418836 20.140989343461737 280.6306551839246 0.8356981250797654
2.064014256297592 11.912292730035256 18.820019313862634 297.1641792960351 0.8626609956281783
2.0661755549558833 11.843393874334383 17.61759947410928 314.9058722695617 0.8912256710625596
2.0671684614243455 11.77250372460466 16.522858903261394 333.9651071284557 0.9215178929030995
