M[M_sun], R[km], Lambda[1], P_c[MeV/fm^3], rho_c[fm^-3]
0.24162668629717493 15.618656898711224 2160425.4255784233 3.5677272577965504 0.1711233750220791
0.2536414944062989 15.277358755423556 1723208.31555312 3.7847900716834473 0.17388780492207953
0.2660366710838938 14.981326519803515 1383020.10428411 4.01133939952673 0.17666591086207037
0.2788097066422824 14.723610871535385 1116522.1587912326 4.247632251465862 0.17945640119071668
0.29196156966512615 14.49857410935196 906034.835824688 4.494293339619845 0.1822658335622815
0.3054949284868026 14.301380660477362 738809.9032425144 4.751475726578034 0.1850898644632835
0.31940967496227385 14.128277829116694 605205.8683670063 5.0198658509176095 0.1879352039998474
0.33370521907359785 13.976118403928732 497752.9614185525 5.2996820340625606 0.19079836315954254
0.34838409570386036 13.842168337332634 411094.96078271704 5.5916594795341075 0.19368577212742755
0.3634443626462678 13.724122585357664 340725.97747039504 5.895957128204403 0.19659234005720047
0.378895596009438 13.62012447681142 283374.2197678552 6.213442445175584 0.1995258191422157
0.3947243050364071 13.528583298714034 233355.6241837079 6.54437882113413 0.20248249433216264
0.4109463823680843 13.448021032434838 197928.02073014216 6.889456654282421 0.2054658744340175
0.42755082963273816 13.377182454069903 166135.96605520067 7.249386185095793 0.20847912876712488
0.44454416737733854 13.315047465063657 139853.33458573095 7.624434985718509 0.21151794220917192
0.4619214633865158 13.260686100089737 118025.24787820257 8.015534784108208 0.21458821061324382
0.47968265626151607 13.21326384537958 99845.69134425044 8.42339819306277 0.21769170815599662
0.4978361197624363 13.172105728389319 84677.74502347094 8.84847777792383 0.22082607313758373
0.5163711545547256 13.136482721402597 71967.99380103862 9.29162332714133 0.2239943826003284
0.5352849307966532 13.10593476137104 61301.98983164147 9.753730192581132 0.22719971466121783
0.5545886263625096 13.079877334097334 52322.466971061105 10.235607484142179 0.23044341948926797
0.5742663017687046 13.057920485422345 44750.56920295989 10.737742716928544 0.23372240385258622
0.5943207589497657 13.039571745883093 38347.38555235847 11.261347715171304 0.2370424450916383
0.6147533770183684 13.024541865337785 32919.073417710126 11.807374982329412 0.240405356426556
0.6355509674950696 13.012458254338956 28308.121441017465 12.376802910521004 0.24381276970729163
0.6567182579833293 13.003056472861802 24383.263916231157 12.97034290139939 0.2472628909260566
0.6782461204874947 12.995998437138056 21039.16170785295 13.589276603253623 0.25076000354006445
0.7001298858597561 12.99108236448613 18183.026949002386 14.234822307917037 0.25430698721945294
0.7223597769186328 12.987998410095097 15738.67144558436 14.908168902968669 0.2579058250553726
0.7449417815663457 12.986659016261111 13642.171569671407 15.61037456895912 0.26155670333176306
0.7678584033300053 12.986756564151934 11842.634163686827 16.342647862470425 0.2652609456090987
0.791098734113842 12.98812784854273 10226.598764796987 17.106631173810367 0.2690235191036648
0.8146666945221209 12.9906509472598 8961.578677111322 17.903778493509947 0.27284685431551287
0.8385456712149698 12.994114234571267 7812.002728054564 18.73548910421324 0.27673234136746605
0.8627227385871439 12.99837580156279 6819.2408840504195 19.603038475173012 0.2806798496406856
0.8871922505148262 13.003332394095844 5959.59346313879 20.508543866321872 0.2846960351356259
0.911947893093449 13.00881106909752 5214.795306433042 21.4537979943196 0.28878390839711005
0.936962217825535 13.014703320207174 4568.337040017331 22.440328067546865 0.29294374297397113
0.9622362195445836 13.02091243412913 4007.30159462735 23.47007160171419 0.29717863972798814
0.9877562611134177 13.027300489211314 3519.10871089219 24.545490923938903 0.301495036328964
1.0134945407355653 13.033755528743976 3094.1829192742434 25.668578953563028 0.3058949466339498
1.0394518010813187 13.04020582027281 2723.5282784912483 26.84119325022177 0.31037886967724776
1.065601389612534 13.046547037792543 2399.99307758948 28.06647763085351 0.3149559074715297
1.0919253896728551 13.05266369624921 2117.2815790930395 29.34654561889189 0.31962691542071514
1.1184193044826152 13.058502673951386 1870.0427270419698 30.684032424878477 0.32439576063238434
1.1450451163437765 13.06396008085796 1653.224773232429 32.082460020592315 0.32927133234994665
1.1718036101471543 13.068974154311517 1463.3268555970978 33.54363431963248 0.3342504565393349
1.198654107388462 13.07344197127707 1296.431550330154 35.07215852479556 0.3393471186320408
1.225596178244516 13.077305116777472 1149.9390404955664 36.670132332081 0.34455855421508824
1.2525875747750623 13.080473219314104 1021.0106389282754 38.34245857061376 0.34989830452164294
1.279624845026398 13.082920193552264 907.4809492608592 40.091509168084905 0.3553637520472874
1.3066656491224071 13.084512798190834 807.4581761616885 41.922700815845225 0.36096914033197613
1.3336987023178632 13.08523632614652 719.14980707872 43.83940207977623 0.366715780733624
1.3607026879006867 13.085039311874963 641.1722784601212 45.84649422976534 0.37261251180775473
1.3876314402440801 13.083791366826528 572.3095283411311 47.94920842146563 0.3786687394701261
1.4144842434701377 13.081505871889656 509.30267096601585 50.15217900457901 0.3848895089502764
1.441212015982359 13.078085653823459 457.2620491361131 52.460848576356305 0.39128296443276633
1.467798267904224 13.073477547407503 409.39119126580187 54.88151422822682 0.3978601983940692
1.4942025625958955 13.06762160121549 366.86020852181554 57.42035839403079 0.4046302593903472
1.5204130861553558 13.060491783034308 329.13815436427143 60.08400095118217 0.4116029050414463
1.5463944647865258 13.052017938748639 295.563294899447 62.87953859349521 0.4187886603962049
1.5721105509607627 13.042151395496445 265.7151953830718 65.81458797267855 0.42619888106030757
1.5975335712794867 13.030839128274625 239.1445219211797 68.89733299093311 0.4338458216441247
1.6226201129332787 13.018038855810564 215.43792957743997 72.13657667462765 0.44174271015623845
1.6473719609384756 13.003712074409398 194.28232811688898 75.54179811292303 0.4499038290439692
1.6717211875667906 12.987798147758276 175.40133930691752 79.12308703682875 0.45834406922050763
1.6956590917721392 12.970271090662685 158.5153175997066 82.89029722084636 0.4670753157956878
1.7191312735134157 12.95106993433686 143.42456877176065 86.85630810012465 0.47611976600420464
1.7421285310718737 12.930159679724314 129.91210671124324 91.03287347301413 0.48549250101726626
1.7646134500391224 12.907540348269738 117.78997305335061 95.43368570678953 0.495213900576727
1.786539080660042 12.883116793684565 106.9240074337439 100.07278695928792 0.5053030053523933
1.807880457950018 12.856884666875052 97.18121355983938 104.96648679054756 0.5157847155961586
1.8285941411941533 12.828774568629266 88.41556916670133 110.13118706453932 0.5266811049011402
1.8486778165731734 12.798834664573075 80.54386708606422 115.58461439767751 0.5380159744582987
1.8680693180795702 12.766953089833661 73.4536515567392 121.3470450483764 0.5498189621216624
1.8867448707632788 12.73313253126569 67.07497952010102 127.43976715221349 0.5621194386473056
1.9046746019775314 12.697342012106212 61.317507390263444 133.88543345125674 0.5749475241626396
1.9218219271766543 12.659558478376626 56.12792873064969 140.7091937482317 0.5883377054261766
1.9381493029982955 12.619727298724245 51.441060813331 147.93893107662083 0.6023290761057433
1.953642688489748 12.577860952702302 47.20981397692586 155.60338740943158 0.6169583267686674
1.968272296533235 12.53399165011726 43.379512689387376 163.735759746714 0.6322716131447618
1.9819993223520285 12.488028957119587 39.91930071526426 172.36983715566237 0.6483106756774644
1.9947982504581558 12.439982137143309 36.77956948858562 181.54506512362002 0.6651293323542601
2.0066375592597123 12.38984192189983 33.936908939658956 191.30320854819618 0.6827813423556326
2.017502269610055 12.337619683424869 31.356862944547782 201.69022240249151 0.7013258355423989
2.0273508759376004 12.283273351029932 29.019391293192506 212.75630131865802 0.7208264648720559
2.0361731702971113 12.22684033947805 26.89460924948163 224.55617590973725 0.7413512744086476
2.0439316269938055 12.168284305644498 24.965508003034422 237.15157514691992 0.7629794671943391
2.05060447526372 12.10761759625609 23.209118383313655 250.60863777359327 0.7857915098381388
2.0561858475934223 12.04488767802214 21.613039171093277 265.00079726176216 0.8098769240365388
2.060653645716105 11.980099926155166 20.159952132990274 280.4098295005441 0.8353358310513563
2.063980842749925 11.913255832527648 18.83638438138371 296.92466101306724 0.8622729330926173
2.0661526567299555 11.844381016632633 17.634078647167165 314.64568402390455 0.8908091608563516
2.06716233213815 11.773528912323195 16.537851787546558 333.6825332127964 0.9210715899751607
