M[M_sun], R[km], Lambda[1], P_c[MeV/fm^3], rho_c[fm^-3]
0.24162668629717493 15.618656898711224 2160425.4255784233 3.5677272577965504 0.1711233750220791
0.2536459081397508 15.277258541164244 1723121.4834680194 3.7848645532017233 0.17388873329827378
0.26604525935545376 14.981140138406401 1353253.0022696396 4.011495975168945 0.17666780298630191
0.2788227830078174 14.723372582289299 1116231.1219566928 4.247876219073849 0.179459230847318
0.29198015049606924 14.498257164276314 905723.3373428222 4.494631101755066 0.18226959462204767
0.3055189803047314 14.301019268398784 738369.0973415484 4.75191875259487 0.1850946499897932
0.3194386721997811 14.127938129004125 604973.7671639917 5.020417404947968 0.18794092658579267
0.3337402463632563 13.975726519120503 497531.54287779547 5.300356637894339 0.19080515530075837
0.3484240903564071 13.84183271840621 410885.9029783584 5.592458818193247 0.1936935059488452
0.36349031867659026 13.723774375844457 340548.5933920317 5.896899160971308 0.19660118782830263
0.3789467169586674 13.619832171764873 283204.7367356716 6.214538572963042 0.19953581450781355
0.3947833269119351 13.528271729361238 236319.14499327223 6.545627906584781 0.20249344712413306
0.4110127940010792 13.44769034387143 197776.14207177024 6.890882812227058 0.205478020193538
0.42762503088764103 13.3768879815076 166006.3626068182 7.251002799573183 0.20849250260439353
0.4446243235179088 13.314767380551334 139737.92816690117 7.626237589223489 0.2115322920921418
0.4620087094633393 13.260407337679323 117920.2529153369 8.017554820049428 0.21460383722437806
0.4797798293808561 13.21301719927393 99753.46770287608 8.425651414732236 0.21770864923300487
0.49794074383454556 13.171865472262091 84597.67359507411 8.850955877879484 0.22084401564007333
0.5164851121851562 13.136282148973574 71899.79089497862 9.294366410976389 0.22401369408153854
0.5354085095007496 13.105735701246573 61243.81400804227 9.756756860733443 0.22722043683349735
0.5547201391673805 13.0797181950151 52272.17025921492 10.238925411177307 0.23046544086313636
0.5744080418478003 13.057755196112653 44702.144959332596 10.741361546716053 0.23374563786079522
0.594469786053224 13.039444188512133 38301.40236020239 11.265309816643043 0.23706720037333312
0.6149127789523204 13.024441475496154 32878.21517805723 11.811703763755098 0.2404316826400365
0.6357225777431461 13.012385164919497 28272.421543928962 12.381523240640872 0.24384071913219388
0.6568987893195528 13.002974865206099 24352.754123709063 12.975433103574566 0.2472919844343543
0.6784362610692566 12.995944472275955 21015.057849015928 13.594808963935511 0.25079080624213307
0.700329979251618 12.991047628203953 18158.88504636347 14.240826493396888 0.2543395602187155
0.7225706047445517 12.988001269807361 15718.184283464105 14.91467648576464 0.25794023309866676
0.7451634664593605 12.986657893928589 13623.111932252057 15.617355652352927 0.2615923859993366
0.7680910224348211 12.986766979095778 11826.831909595046 16.35019699106494 0.26529857612175556
0.791343293126301 12.988140552449549 10212.432284236265 17.114786238614567 0.26906317442227096
0.8149225628867367 12.99069160588479 8948.594978867524 17.91257989780558 0.27288861634956507
0.8388114108391946 12.994152406520977 7800.669798775571 18.744897808974123 0.27677556949764776
0.86299841501915 12.998432671039325 6808.228745499088 19.613176824804327 0.2807253340215588
0.8874873611647446 13.003387723558594 5950.060297152625 20.519460661022457 0.2847438742226796
0.9122494273908871 13.008894274176829 5206.4178961495645 21.465545376202577 0.28883420728444403
0.9372749834953743 13.014788711314171 4561.351987879239 22.452857099215283 0.2929957814385729
0.9625663287834354 13.020997714298723 4000.6959580476687 23.48353952491524 0.2972333369658175
0.9880921097513367 13.02737949299411 3513.0659138098667 24.559961136906466 0.30155251961575147
1.013841943194084 13.0338379664821 3089.021594916694 25.683995441302656 0.30595444182918496
1.0398119789272542 13.040305185404966 2718.856797410672 26.857744496472503 0.3104413973052076
1.065969723000573 13.046628213598156 2395.8490702657564 28.084241118735786 0.31502162233736275
1.09230794649536 13.052756244084696 2113.6075487625294 29.365458388010232 0.31969498977704175
1.1188126441022967 13.058583301768808 1866.427816265642 30.704320291879775 0.32446732739785245
1.145450488483721 13.064047580641931 1650.2897664356499 32.1040567662395 0.3293455366407965
1.1722186926995022 13.06904481897042 1460.4504505218374 33.566793291009 0.33432850466066366
1.1990806266268894 13.073496710418915 1294.0940100912023 35.096989037395105 0.3394292264056403
1.2260328447005147 13.077362466104882 1147.7381548451149 36.69656232513151 0.3446438132813942
1.25303337719214 13.08052381368142 1019.088995236523 38.37066976581548 0.34998734121055153
1.2800819085046475 13.082957280284768 905.6717598110889 40.12167248818082 0.35545706728275
1.3071371518512092 13.084557680100655 805.871640401047 41.95481855987881 0.36106623713800656
1.3341721772890163 13.085243072703596 717.7222635336391 43.8738343711679 0.36681813131070984
1.361184208927879 13.085028605672667 639.8781012549409 45.88316891627105 0.37271915681423373
1.3881263644073578 13.083773633750976 571.1061302930954 47.98828216441888 0.3787799559558497
1.4149743038352784 13.081436982137955 510.2275347828184 50.194080297621426 0.3850069209909992
1.4417079719951402 13.077990877846359 456.32168340756516 52.50551089728553 0.3914055904325124
1.4683049403713822 13.073376947408699 408.51123107482914 54.929135353887425 0.3979883858998749
1.4947181758572734 13.067499027095987 366.09057026313076 57.471152122290924 0.40476438281783755
1.520931878472907 13.060334508979443 328.44991089956835 60.138198535423996 0.41174336788147786
1.5469178304708417 13.05183344084313 294.9435093434217 62.937390320250614 0.41893589764021355
1.5726361813631557 13.041934123887247 265.13277157792174 65.87636489834874 0.42635336186782113
1.5980497087966963 13.03058138955088 238.6041592098374 68.9633288554767 0.4340080522786729
1.6231365747435385 13.017771044954694 214.96530387826832 72.16161097149276 0.44170085554506827
