M[M_sun], R[km], Lambda[1], P_c[MeV/fm^3], rho_c[fm^-3]
0.24162668629717493 15.618656898711224 2160425.4255784233 3.5677272577965504 0.1711233750220791
0.25364476939108893 15.27725203421939 1723233.2844174502 3.784833380953923 0.17388834475124293
0.26604064952980755 14.981269723771456 1382984.1774573356 4.01143044408883 0.17666701108187252
0.2788173489048699 14.723474654840672 1116365.845977271 4.247774111325809 0.1794580465513138
0.291972237527043 14.498363846216712 905806.1094048141 4.494489737109016 0.1822680204939049
0.3055088473415931 14.301188643808045 738620.6490360762 4.751733330089421 0.18509264707285017
0.31942592836409833 14.128095288183705 605035.1995351928 5.020186557829256 0.18793853145783723
0.33372614009351925 13.975876663726535 497673.67299138766 5.300074287446922 0.19080231250025698
0.3484073216557138 13.841974312985615 410973.72088138916 5.592124258549429 0.19369026899225708
0.3634708998289651 13.723934273942106 340632.78910806275 5.896504874432379 0.1965974846056891
0.3789257963245459 13.619945004586306 283277.0088763227 6.214079786800586 0.19953163093042645
0.3947589351391255 13.528405787536292 236383.50863574125 6.54510509623207 0.202488862783622
0.41098494055516505 13.447820981077223 197836.35205489243 6.890285883095225 0.20547293649455972
0.42759345807825866 13.37702398231811 166063.0367319337 7.250326148596317 0.20848690484427268
0.4445896398264224 13.314889914204345 139783.14886232754 7.625483085761477 0.21152628575944005
0.4619731284274369 13.260529279208876 117962.68214202857 8.01670930143729 0.21459729645434075
0.4797390956535801 13.21311620977714 99807.91368661962 8.424708285881385 0.2177015582225164
0.4978968138380725 13.17196497740934 84627.23898495438 8.849918615567104 0.2208365054177436
0.5164368234288609 13.136372123347412 71926.61401982076 9.293218226013106 0.22400561078781603
0.5353571525477815 13.105820881212246 61266.327191085955 9.755489965893778 0.2272117630008185
0.5546650543483397 13.07979928662633 52297.41825593746 10.237543602136869 0.23045631327983052
0.574349210208001 13.057814816226976 44722.35753966007 10.739846767103375 0.2337359125064618
0.5944074323887312 13.039500925601052 38322.04382002083 11.263651338165513 0.23705683816979317
0.6148459339591735 13.024481896312231 32895.4423438015 11.809891786044115 0.24042066279233568
0.6356516214987245 13.012418445394147 28286.237961162915 12.379547351785437 0.24382901974766402
0.6568236679982687 13.003016434469313 24366.26566406576 12.973302377357948 0.2472798060770455
0.6783568014207867 12.995981130354691 21023.943363583418 13.592493137348292 0.2507779123401425
0.7002462896014844 12.99106272515269 18168.859693701663 14.238313145636724 0.25432592518445263
0.7224824390513562 12.988005047995802 15725.840379277382 14.911952397814057 0.25792582981881934
0.7450717183116415 12.986639205338145 13631.092490016885 15.614433339687112 0.2615774490754355
0.7679941312301978 12.986752510728577 11833.625028653965 16.347036870755876 0.2652828237146004
0.7912403540901963 12.988149918025835 10286.483519407686 17.11137244581305 0.2690465743038844
0.8148153963638507 12.990670662885336 8954.266337697023 17.908895515640058 0.2728711342196356
0.8387010021977651 12.994130807262326 7805.909083285407 18.740959181015267 0.2767574735400776
0.8628827752274207 12.99840812077458 6812.403412510411 19.608932727262122 0.28070629343249914
0.8873662386866332 13.003364239795859 5954.017509224939 20.514890660756322 0.2847238477729237
0.9121238530995964 13.008850859577958 5209.890622502745 21.46062764058913 0.2888131509646595
0.9371468142189826 13.014737473235595 4564.083357944856 22.447612116808287 0.29297399676769437
0.9624301587747592 13.02096338114556 4003.483704685405 23.477901458359785 0.297210439102303
0.9879518108944954 13.02734314294456 3515.6523875179014 24.553903439837278 0.30152845526101946
1.013695992870791 13.033806538165887 3091.2065183802256 25.677541566314027 0.3059295350826577
1.0396622686677803 13.040260377344064 2720.725116314336 26.8508155227824 0.31041522089030354
1.0658152287332008 13.04658778951698 2397.5029690478555 28.076804601470002 0.3149941114263511
1.0921488292441712 13.052717502084608 2115.0915381633713 29.35754068865864 0.3196664909208682
1.1186478197881782 13.058550120115747 1867.869208341241 30.69582685494372 0.3244373662486995
1.1452803318210734 13.064003364851382 1651.6021194083082 32.09501531835461 0.3293144711164108
1.1720452768060816 13.069012648481907 1461.6199927273665 33.55709774674324 0.3342958296768356
1.1989025836599458 13.073476053578489 1295.041670043832 35.086593620501596 0.33939485158017735
1.2258497776397255 13.077344777228378 1148.7051045877504 36.68549720925002 0.34460811893040366
1.2528476810261513 13.080501548250025 1019.866026226545 38.35889003269019 0.34995024796022234
1.27988985712331 13.08293824104853 906.3467812546141 40.1090442079336 0.3554179996025009
1.306935783637444 13.084524990575368 806.5305642933713 41.941371946512234 0.3610255859886464
1.3339742201482314 13.085242207826633 718.3707014252151 43.85941861837978 0.3667752802381452
1.3609844089063008 13.085029258669003 640.4214612273289 45.86781423785589 0.37267450749517783
1.3879153303056846 13.083770243051628 571.624272799705 47.97192295553788 0.3787333923665068
1.4147657446630741 13.081465337722959 510.64279435581057 50.17653711495365 0.38495776305986545
1.4414975445708302 13.07802117993157 456.73064029885415 52.486811598094185 0.3913542491629549
1.4680928764665577 13.073419558514283 408.8805596832717 54.9091971127285 0.39793471574048955
1.494502065919725 13.06755260422419 366.4028034242075 57.44988540342072 0.4047082269630884
1.5207158212067537 13.060400956337814 328.7463266231194 60.11550649187458 0.4116845573472509
1.5466992870202307 13.051909286057647 295.1894697688183 62.91316813292982 0.4188742502477329
1.5724154954446565 13.042025770642864 265.3759021351981 65.85049904848705 0.426288681126099
1.597830163820935 13.030687124416373 238.8338127444867 68.93569632292437 0.4339401261544962
1.6229268301808202 13.01786633665016 215.16221472218183 72.17757739125744 0.44184183678216643
1.6476800900132373 13.003521672716374 194.02881578642058 75.58563710535887 0.4500081209680638
1.672028024112634 12.987585040539905 175.1723928260787 79.16975356967407 0.458452941707736
1.6959653539732533 12.970025905211026 158.313084580989 82.94024655139799 0.46719009921181937
1.7194454699207244 12.950811102462293 143.23081682253687 86.90979732677617 0.4762408927853701
1.7424211271221324 12.929836611824795 129.73404738065705 91.0899248612884 0.48561941935631536
1.7649102138205301 12.90720952148773 117.64019628952266 95.49484879179639 0.49534810604228524
1.78683590435303 12.882770343750439 106.78980413154818 100.1381149955691 0.5054439804205114
1.808173010994047 12.856507066837043 97.05093091861447 105.03631850168091 0.5159330033811232
1.828881699870113 12.828364307573676 88.29897492105259 110.20600727209388 0.526837722231406
1.8489607300897914 12.79839008651035 80.43699856078645 115.66490088341129 0.5381818186330884
1.8683358130794216 12.76644549174483 73.36310615091644 121.4330592345571 0.5499940554840436
1.8870138653474064 12.732619767997024 66.98567294110661 127.53192218900244 0.5623042839425363
1.904934601772045 12.696795819657792 61.235144719331316 133.98405816710516 0.5751422399744268
1.9220736730694166 12.658971601695741 56.052837978628666 140.8151236419602 0.5885440971422624
1.9383856310938576 12.619076656827177 51.3737039248731 148.05280042894367 0.6025481094702898
1.9538801459799802 12.577226029977464 47.147046430506144 155.7255178725098 0.6171897762216323
1.9684950867928706 12.533285377139428 43.3266649361334 163.86701460411268 0.6325169852832307
1.9822074908822644 12.48727841302682 39.865251189544395 172.51117710655996 0.6485716444430062
1.9949929478640698 12.439191466986298 36.73175942891259 181.69712574918884 0.6654063128921736
2.0068275853644435 12.389024259059397 33.891091286114275 191.4669771810414 0.6830757511910077
2.017671887892601 12.336741782097352 31.31674063600611 201.86678817743632 0.7016392223761485
2.0275088606470644 12.282349176785479 29.024223453226526 212.9464218012453 0.7211590692817952
2.036312388576135 12.22587237048111 26.859851052992 224.7616105755152 0.7417063731191504
2.0440536733531762 12.167270096704293 24.933571105006745 237.37332470409285 0.7633575705595803
2.0507105361833866 12.10655351313474 23.179867963494956 250.84857607909677 0.786195662792307
2.0562802589914235 12.043797315596366 21.587325512699547 265.2606507133601 0.8103093352771651
2.0607230625992474 11.97893855298651 20.135965391396475 280.69091218334813 0.8357969605835137
2.064024985803028 11.9120356212766 18.81584178198127 297.2295540643448 0.8627669144667639
2.06618170444613 11.84312364670387 17.61322307818421 314.97688984521113 0.8913393562330921
2.067169204840229 11.772221970770628 16.518277344056095 334.04223597189235 0.9216397117502991
