M[M_sun], R[km], Lambda[1], P_c[MeV/fm^3], rho_c[fm^-3]
0.24162668629717493 15.618656898711224 2160425.4255784233 3.5677272577965504 0.1711233750220791
0.25364193448908734 15.277340994731844 1723009.4633083083 3.7848037661538223 0.17388797561704633
0.2660380349519076 14.981291250210706 1383067.3593933233 4.01136818782364 0.17666625875164882
0.2788117491256742 14.723628682311992 1116475.114016198 4.247677107323004 0.1794569214510632
0.2919654550259676 14.498492753100129 906003.3448401504 4.494355439862199 0.18226652506289281
0.3054993132056568 14.30135487145919 738712.414687037 4.751557179532409 0.18509074431064604
0.3194146440923618 14.128226657437029 605150.0065713355 5.019967256346531 0.18793625612031137
0.33371181396614685 13.976015329875722 497724.07576484315 5.299806061377763 0.1907996119088081
0.3483915972698952 13.842104478483835 411052.0613932769 5.591806438153426 0.19368719399249637
0.3634532024523669 13.724041091449347 340696.29038624774 5.896130319377911 0.19659396670535323
0.3789049563444418 13.620076300102761 283343.4679483885 6.213643964392458 0.19952765675482864
0.3947354839566154 13.528522274734906 236446.92883353992 6.544608458919445 0.20248450794531442
0.4109586448009222 13.4479407282452 195405.35342261964 6.889718843270177 0.2054681073454606
0.42756423721241876 13.377132543459174 166113.18071445558 7.24968338518296 0.20848158742728015
0.4445588173395687 13.314984618079773 139835.18438233322 7.624766375248212 0.21152058028291112
0.4619377795265403 13.260629403925865 118006.52408242984 8.015906142623843 0.21459108337159272
0.47970048069181875 13.213248232226853 99831.80291050997 8.423812415813472 0.2176948225320091
0.4978554584238385 13.172044052770362 84660.48960213696 8.84893333742043 0.2208293715829847
0.5163916623104202 13.136456992796917 71955.12694356442 9.292127594852174 0.22399793267645013
0.5353088362264661 13.105879455787266 61291.86508569056 9.754286586910043 0.22720352403131025
0.5546135750302362 13.079837700232401 52313.013746930985 10.23621963118005 0.23044749614974086
0.5742927866404522 13.05787557060974 44740.89175775552 10.73840795680555 0.23372667489866214
0.5943484367087668 13.039572561138213 38337.78051974124 11.262076050823202 0.23704699574597154
0.6147822731849243 13.02454670796305 32912.21661642244 11.808170715559312 0.24041019581224535
0.6355817737280416 13.012460715791443 28302.19412017405 12.377670611474127 0.24381790742902104
0.656751931413046 13.003040379681766 24378.254750710188 12.971278585512126 0.24726823891274968
0.6782812515276645 12.995992269927017 21034.2088591946 13.590293555577606 0.25076566565814656
0.7001671923502172 12.991071332936036 18042.095358490813 14.235925980075088 0.2543129746947751
0.7223982994277562 12.9880023966744 15735.108801308948 14.909365096814415 0.25791214978314375
0.744983540079636 12.986655290069258 13638.929973455251 15.611657789413819 0.2615632623035337
0.7679012842006457 12.98674712570511 11839.85964089 16.34403548436796 0.26526786255623036
0.7911428403521761 12.98812914671065 10293.51545925451 17.108130159886638 0.2690308081653544
0.8147158771859067 12.990654316623298 8959.661649164962 17.90539626806122 0.2728545305400822
0.8385948259231035 12.994111852824833 7809.620456128599 18.73721849234573 0.2767402870111254
0.8627733223851939 12.998392782169335 6817.320013937207 19.604901959406 0.280688209919201
0.8872446290493002 13.003342858098842 5957.476733195088 20.510550413631755 0.2847048281370579
0.9120038069762277 13.008830799202615 5213.2202969043165 21.455957185638912 0.28879315342906564
0.937019893034619 13.014724238975223 4567.055213216177 22.442630909436158 0.29295330766813993
0.9622975596860137 13.020914601324714 4006.3027881400835 23.472546987993383 0.2971886930071769
0.9878177367899206 13.027316454851533 3518.0093677627506 24.548150503413872 0.30150560157565637
1.0135578198005888 13.033768437546984 3093.3897923305312 25.67141243265108 0.30590588157544785
1.0395173560840134 13.040226423211466 2722.6120817137744 26.844235262134173 0.3103903618504791
1.0656680300770174 13.04655049363325 2399.3630972511864 28.069742411846022 0.3149679853160566
1.0919957747449336 13.052681495930134 2116.657736121453 29.35002159965715 0.31963942681720703
1.1184915224605996 13.058516554141372 1869.4212720540893 30.687761096625096 0.3244089137635825
1.1451199121552555 13.06396979555678 1652.817579082485 32.08642921559671 0.32928497011303176
1.1718740617728256 13.069003561077738 1462.71080821008 33.54789058614824 0.33426480059633246
1.198732873497294 13.073443279374143 1296.0182369382633 35.07672194649169 0.3393622086304435
1.2256760199039645 13.077315841979914 1149.604438147162 36.674989668533094 0.3445742232305832
1.252670009208439 13.08048282921687 1020.6383640791784 38.34766569538486 0.3499147995514026
1.2797081804691701 13.082932807182186 907.0957702390546 40.097052509709904 0.35538090129436434
1.3067500661437057 13.084518994332937 807.1306579756593 41.92860328299399 0.3609869843843867
1.3337862442835184 13.085228058293309 718.9115596414964 43.84572983300094 0.3667345900886808
1.3607912775377191 13.085037428205792 640.9522533489842 45.853234012977055 0.37263211018180403
1.3877213790287843 13.083781898630116 572.1106349157492 47.9563890153575 0.37868917775828853
1.4145757778257049 13.08149920147855 511.0893401540228 50.159879126663164 0.38491108554092723
1.4412977431992562 13.078053366449087 457.08254889632417 52.4690560055651 0.3913054989583157
1.4678903130680503 13.073458401765382 409.22576474043507 54.89026529702202 0.3978837546974205
1.4942972972883932 13.067600380039034 366.7225838507083 57.42969237740232 0.4046549062490207
1.5205090758497037 13.060462094025368 329.0030161768742 60.09396033005626 0.41162871657273825
1.5464911118102702 13.051984218863389 295.4414366586067 62.890169344421096 0.4188157165024934
1.5722071245259623 13.042112502070083 265.60966102949385 65.82593988671967 0.42622726791881294
1.597628954410241 13.03079395503077 239.04761874198874 68.90946002504535 0.4338756322459377
1.6227115348295797 13.017952949150578 215.34699545324162 72.1495373392086 0.44177404490000144
1.6474687405023116 13.00365258731897 194.20032280926407 75.55565589967627 0.4499367963902489
1.6718180670800875 12.987729279885675 175.32263166908155 79.13783855437558 0.45837848434217604
1.6957560032530214 12.970191158578707 158.45148598737464 82.90608635071911 0.46711159917014994
1.7192208201500843 12.950957549782741 143.36270681609633 86.8732160962229 0.4761580542964748
1.742222948706408 12.930067469878585 129.84652150181873 91.05090737408003 0.4855326198090975
1.7647062973141647 12.9074288956549 117.7422201989776 95.45301918545394 0.4952563225458727
1.786632508934951 12.883007096252852 106.87806971149682 100.09343684808007 0.5053475669165367
1.8079726408849552 12.856764426126535 97.13825181561484 104.98856013835831 0.5158315883965023
1.8286857931852363 12.828645247096038 88.38054246884593 110.15489399741031 0.5267308220952968
1.8487668209843398 12.79869293310421 80.50950997688997 115.60999209056847 0.538068396014643
1.868156073813358 12.76680330839858 73.42137029591493 121.37423302725142 0.5498743068833691
1.8868299816286656 12.732969695994983 67.04788923709849 127.46891801252472 0.5621779441913515
1.904755711378614 12.697169861966454 61.292428183837075 133.91660705405133 0.5750090705338738
1.9219020030601832 12.659373902326186 56.10613624430471 140.7426761517408 0.5884029418809268
1.938222922221451 12.61949983655937 51.42198526244228 147.97492272151567 0.6023983078253945
1.9537221589417164 12.577683718407782 47.19165194917714 155.64198994717478 0.6170314824418592
1.968342628089929 12.533769588876096 43.36265141412318 163.7773283163696 0.632349447549153
1.9820658026012217 12.487794031434015 39.90067887964881 172.41451066811308 0.6483931604337038
1.994860294728334 12.439734118333723 36.76629284498099 181.5931267633384 0.6652168772974194
2.0066956307670343 12.3895852500973 33.92273648910349 191.35497031030005 0.6828743950961557
2.017556268352838 12.337342109520812 31.345696756608294 201.74602844693396 0.701424885766472
2.027399393826065 12.282977204915996 29.00734752483087 212.81639103952264 0.7209315882436548
2.03621689638573 12.22653430623075 26.884283226737224 224.62110526890942 0.7414635063517254
2.0439698204279586 12.167962547054643 24.955387533929756 237.22166036186286 0.7630989689239543
2.0506380362655947 12.107281603911696 23.199795091058068 250.68453709225062 0.7859194589331965
2.056213192733288 12.044536430695002 21.604099553140003 265.08292387310547 0.8100135874892695
2.0606771798926613 11.979732072689737 20.152397281247666 280.4987020556215 0.8354816912375266
2.0639975651130196 11.912873368226323 18.831416532938093 297.02102052605966 0.86242905276947
2.06616149767146 11.843983446951095 17.627142828669335 314.7503584199854 0.8909767239766079
2.0671645165321135 11.77311834152229 16.531367980878493 333.7962126122722 0.9212511375059864
