M[M_sun], R[km], Lambda[1], P_c[MeV/fm^3], rho_c[fm^-3]
0.24162668629717493 15.618656898711224 2160425.4255784233 3.5677272577965504 0.1711233750220791
0.2536342541248845 15.277526220664994 1723414.6129686523 3.784643241346384 0.17388597475276135
0.26601983292815895 14.981704896494307 1383412.804297279 4.0110307444243185 0.1766621809473135
0.2787848521486337 14.724062400054978 1116999.9388700696 4.24715134122481 0.17945082335663676
0.29192626757078044 14.499112280145987 906502.4337910484 4.493627567108339 0.18225842003084813
0.30544991784014697 14.30194788070731 726005.6636963659 4.750602500024871 0.1850804319499314
0.31935443779002737 14.12888517841867 605591.1517386626 5.018778750893728 0.18792392491751755
0.33363852188295984 13.976740568645651 498213.7381535178 5.298352457096604 0.1907849765256625
0.34830616090704986 13.842812622636915 411496.00508699816 5.5900841193446364 0.19367053008422774
0.36335367391677786 13.724774075671025 341101.23446651 5.8941006122859605 0.19657490326681382
0.3787911811663404 13.620778392443253 283720.4754879831 6.211282326574256 0.1995061214615237
0.39460661361760324 13.529233412238497 236780.71733658473 6.54191735588014 0.20246091060716184
0.41081578412193825 13.448619035658707 198206.9789688795 6.886646350640866 0.20544194070890787
0.42740634762538815 13.377766793523826 166390.0988325309 7.24620069513602 0.2084527760250588
0.4443837343726813 13.315575141487388 140070.78582971348 7.6208831260216305 0.21148966712214648
0.4617455943673623 13.261193893144648 118224.63254312096 8.011554637174354 0.21455742095889987
0.4794919396271089 13.213751021943281 100030.36160586184 8.418958750756003 0.21765832975607624
0.4976292285386342 13.172545143580386 84834.65137347954 8.843595419179092 0.22079072277420045
0.5161457969320621 13.136874362659896 72115.35725151343 9.286219086947806 0.22395633641245086
0.5350448959722811 13.106282105955174 61430.04098958678 9.747767463020494 0.22715889065838904
0.5543298197057729 13.0801974889737 52434.26545438583 10.229047434366555 0.23039973211684603
0.5739883328388043 13.058171231407735 44848.539509250004 10.730613855331312 0.23367663435288705
0.5940285377198661 13.039841274359745 38433.195185367826 11.253542901447952 0.23699368047425656
0.6144383051978584 13.024776517056981 32993.84561651379 11.798848153488786 0.24035349908050518
0.6352154104684522 13.0126536263259 28375.32242105603 12.367505131696424 0.24375771686894848
0.6563594943288504 13.003169073644347 24445.319204818294 12.960316866539493 0.24720558622216654
0.67787158672527 12.996103948132413 21094.18205413193 13.57838003650681 0.25069933437578307
0.6997350544597124 12.991136855622468 18093.510128143454 14.22299684083364 0.25424283348338345
0.7219420173770297 12.988063481857024 15780.213697581585 14.895352419198625 0.2578380594744703
0.7445051664176943 12.986667592889543 13679.490321017305 15.596625933626969 0.26148642942777534
0.767398051326754 12.986743722435952 11876.456811865268 16.327781025676078 0.2651868381564103
0.790616307176217 12.988091069305469 10324.471389418259 17.090571596702176 0.2689454268184167
0.8141641661553152 12.99058014008192 8988.991708571966 17.886446698510017 0.2727646161875209
0.8380191284571166 12.994021326011865 7836.29354130311 18.71693308016098 0.2766469627819387
0.8621766496360597 12.99828632429195 6839.389461761548 19.58307522313002 0.2805902871189329
0.8866194698709088 13.003210984773958 5977.737590066117 20.487048547313165 0.28460183931482785
0.9113525639986333 13.008673078191105 5231.378973909123 21.430668055981727 0.28868487269927645
0.936349047915741 13.014568626990226 4583.42606500837 22.41565981229721 0.2928412850856387
0.9615949024260971 13.020748177960979 4020.5128291526935 23.44355572222951 0.2970709508627654
0.9870933909084744 13.027131585382993 3530.8612823423114 24.517002745039527 0.30138186631817027
1.0128080872527176 13.033583813059805 3104.8720818329884 25.638224234777105 0.30577778638581854
1.0387398862763368 13.040020466517277 2733.0904173377285 26.808610184734793 0.3102557767230557
1.0648709994123249 13.046370277071572 2408.6030786966426 28.031509415141628 0.3148265448362659
1.0911714841307367 13.052490548102966 2124.8359859124002 29.309316104048197 0.31949291202631647
1.1176427019548871 13.05833873109608 1876.6453495420556 30.644097548711272 0.3242548877689891
1.144252445777807 13.063812427628049 1659.337877338631 32.03967078884897 0.3291234654051055
1.1709848753129994 13.06883452474609 1468.6710922835364 33.49805106467284 0.33409683627029063
1.1978153829291474 13.07329905201439 1301.3875041728568 35.02328711075068 0.33918551411486464
1.2247369453026276 13.077200873122484 1154.2424610101996 36.6181144677773 0.34439075263703683
1.251713703076493 13.080399721088579 1024.9597476344302 38.286696383528394 0.34972166213724337
1.2787278293402073 13.082855832009534 910.9968444185142 40.03214789700638 0.3551801081058898
1.3057494636518052 13.084471501544979 810.6258492304521 41.85949534179988 0.3607780606083497
1.332773835454175 13.085248181660468 722.049098854046 43.77164454065773 0.366514370285745
1.359755001065003 13.085062657720094 643.8256138347742 45.77432646974537 0.3724026577648658
1.386667651809421 13.083847702085137 574.6297031281717 47.87232252687938 0.3784498973948269
1.4134965024572639 13.08158833390845 513.3655920387309 50.06973287070146 0.38465848579739975
1.4402204511460006 13.078232307050618 459.1753944745485 52.37297295395738 0.3910416908978094
1.4667891932408184 13.073661147071398 411.107641574194 54.7878204574717 0.3976079916136537
1.4931899903598713 13.06787821242188 368.4210521838527 57.32042635493532 0.4043663837494227
1.5193904743256652 13.060801824632014 330.5173146762519 59.977376249074936 0.4113265678451484
1.5453644192997742 13.052380679166143 296.8240070645665 62.76572946386079 0.4184990071130582
1.571074372423175 13.042580263079627 266.8608350770952 65.69306187415187 0.425894990090812
1.5964918164606154 13.031334453541435 240.1512178620179 68.76751285142427 0.43352669856337867
1.6215864329606786 13.018609618392588 216.36957851257205 71.99783675124937 0.4414072813731229
1.6463192587401232 13.00434526087687 195.13111597500748 75.39345942152427 0.44955093481250863
1.6706833217457626 12.988517991415218 176.17237798229561 78.9645402708748 0.4579729903769802
1.694614976436952 12.97107072448638 159.21880575821515 82.7212948246873 0.4666869487815291
1.718107004797035 12.951969594109666 144.05557785815495 86.67533577760007 0.47570995273376315
1.7411083301517487 12.931157920557922 130.48193907157713 90.83985585141826 0.485063107856448
1.763595757981731 12.908615006574685 118.32158269193744 95.22676598841886 0.49475987251169373
1.785531595782446 12.884292586388481 107.40741745873187 99.85178505335315 0.5048260928272823
1.8068785595579677 12.858135919642342 97.61154147207542 104.73001823781674 0.5152821766033937
1.827631491785299 12.83018281536862 88.81837934873103 109.87748558317791 0.526149052700406
1.8477111393959913 12.80030058578315 80.90985565360428 115.31304249372636 0.5374550006169951
1.867132547460276 12.76856393134058 73.78583496254018 121.05611123560743 0.5492267274942129
1.8858216798178922 12.73483128500529 67.37383397103245 127.12784032984972 0.5614934040037293
1.9037748783399109 12.6991632812842 61.592602234995226 133.55127983153216 0.5742868768115983
1.9209474177468953 12.661477510660687 56.381723077603795 140.35094346537025 0.5876396976394652
1.93732456302223 12.621840255163539 51.67418026190511 147.5538483386921 0.6015883503002765
1.9528660073526163 12.58016787889037 47.41793763159121 155.19038554069564 0.6161756468853429
1.9675203699127157 12.536383179305677 43.57444026020538 163.29104399598032 0.631438912239521
1.9812873604000483 12.490559375212154 40.095311730783095 171.89192281433873 0.6474282591002833
1.9941368755615019 12.44269087050403 36.94181786151655 181.0309263007681 0.6641928213594968
2.0060138256153603 12.392665318469941 34.08802140956322 190.74951173317237 0.6817859549506697
2.016917607726125 12.340570954943649 31.49736821462972 201.09329067745634 0.7002663406129208
2.0268185289143017 12.286385468187037 29.14574573444974 212.11248965011387 0.719698492739926
2.0356925915765154 12.230100114302513 27.010539348753273 223.861719681188 0.7401508902849421
2.043512879297687 12.171726644999719 25.071375848680507 236.40108857089245 0.7616983868593014
2.0502508396743853 12.11124024004251 23.306356706992897 249.79693173779972 0.7844231569389316
2.0558828303550896 12.048640068619347 21.7034993203828 264.12253771486326 0.8084154491246948
2.0604123820921676 11.984015973791283 20.243586316130393 279.4583492765364 0.8337724003441113
2.0638130699263524 11.917351645798295 18.914581856275632 295.8936544109937 0.8606014439771521
2.06605313015108 11.848645672181874 17.704099706125437 313.52647917261396 0.8890175340200875
2.0671345169979145 11.777964808005974 16.602587281014106 332.4669725030769 0.9191514652941325
