M[M_sun], R[km], Lambda[1], P_c[MeV/fm^3], rho_c[fm^-3]
0.24162668629717493 15.618656898711224 2160425.4255784233 3.5677272577965504 0.1711233750220791
0.25364507081247234 15.277267674416338 1723253.8377946317 3.7848400505861854 0.17388842788499154
0.26604191440344055 14.981224220491724 1382920.9941126883 4.011444465092438 0.1766671805174265
0.2788180808064314 14.723449724146057 1116403.6486347143 4.247795958161693 0.1794582999416876
0.2919739257783453 14.498340653941248 905787.2972146932 4.494519983167006 0.18226835729078034
0.30551077165808216 14.301144976742462 738561.902116776 4.751773002492837 0.185093075610523
0.3194282967376331 14.128054297223455 605045.9894990791 5.020235948932215 0.18793904390959365
0.33372856954718716 13.975858069439692 497634.6215658097 5.300134697732716 0.19080292073159613
0.348410928357559 13.841943689702878 410954.95882252004 5.592195838967815 0.19369096155249604
0.3634741641035562 13.723926999729288 340630.92461627047 5.896589233314483 0.19659827692216206
0.3789304865247622 13.61994131538055 283261.25321139855 6.214177945179133 0.1995325260166484
0.39476436661262754 13.528371286134076 236372.02919772835 6.545216952313196 0.2024898436103433
0.410990907112871 13.447791764293402 197834.78545932067 6.89041359648441 0.20547402415537486
0.4275992369740631 13.377005922209042 166042.43038768414 7.250470917942987 0.20848810248397648
0.444597067404139 13.314872351984558 139772.14783827227 7.625644511048506 0.21152757080852091
0.46197917704172353 13.260502210105493 117948.27847490106 8.016890198608996 0.214598695840213
0.4797473573568828 13.213096753548363 99787.34129035221 8.42491006578831 0.21770307532533337
0.49790599927007234 13.17193502040951 84617.87334796456 8.85014053430621 0.2208381122042333
0.5164474909990904 13.136346029398343 71924.18398115433 9.293463875316881 0.22400734017422905
0.535367700166508 13.105801754587729 61262.00910196244 9.75576101161764 0.2272136187233169
0.5546767510821592 13.079783019495487 52292.6459586712 10.237840411301223 0.23045828123477852
0.5743615971770414 13.057802772945337 44717.377621166 10.740170844179785 0.23373799318167887
0.594420935848677 13.039492650148981 38319.174148825274 11.264006157298956 0.23705905508615985
0.6148553901593786 13.02451336191647 32889.85085851134 11.810279443707824 0.24042302039772354
0.6356667587912892 13.012428068574469 28284.210405851605 12.379970075262099 0.24383152272473668
0.6568394759469366 13.00299830418379 24362.26385696631 12.973758225409984 0.24728241151758165
0.678373379226763 12.995965546957228 21020.61430679449 13.592988583922837 0.25078067085393146
0.7002648772306741 12.99104294767664 18165.951307689644 14.23885084771834 0.254328842244488
0.7225026049369739 12.988001999638783 15609.887274598026 14.912535183123635 0.2579289112244337
0.7450922273476474 12.986636692332 13629.291581809108 15.61505853076993 0.26158064463754527
0.7680158430176034 12.986759114412461 11750.798234847021 16.347712935125774 0.26528619372592155
0.7912631270858919 12.988134212483457 10217.863303696655 17.11210277712552 0.26905012565774605
0.8148399725671276 12.990676656358914 8953.172099701927 17.909683732571924 0.2728748742526171
0.8387246222009019 12.99413380679865 7804.8587926694245 18.74180178727146 0.27676134487984866
0.8629095678302999 12.998403622622765 6811.654292853189 19.609840680315713 0.2807103668452346
0.8873922928223458 13.003370973429154 5953.251205556361 20.515868331389264 0.28472813207722747
0.9121514631514849 13.008863115647038 5209.147999395512 21.46167969891909 0.288817655573766
0.9371728239109928 13.014762930822739 4563.392099911373 22.448734179953785 0.2929786571791949
0.9624603247504948 13.020959796066213 4002.853265870425 23.479107609525787 0.29721533764057056
0.9879821642520511 13.027355970782253 3515.0400695428216 24.555199357358074 0.3015336033261286
1.0137272390038976 13.033810287616296 3090.5744456914263 25.678922233350487 0.30593486334265285
1.039694104157726 13.040264204740726 2720.2998973428407 26.852297820917315 0.3104208207457405
1.0658474870530845 13.046596430914349 2397.1524730588467 28.07839547064311 0.31499999674318535
1.092182413321552 13.05272952872318 2114.7392098507275 29.35923448989425 0.31967258756531713
1.1186834386191093 13.058558168487124 1867.5887408430972 30.69764381382337 0.3244437756888835
1.1453162450443781 13.064013050190145 1651.3311911503838 32.09694950396589 0.3293211167876615
1.1720827183892628 13.069018895128899 1461.3825716531726 33.559171850673586 0.3343028196209299
1.1989411751276056 13.073476355848825 1294.8362195262318 35.08881743401525 0.3394022051285898
1.2258887761185437 13.077345740364706 1143.4003481940777 36.68786427813685 0.34461575472821815
1.2528866369193854 13.08050878390792 1019.6821175275494 38.361409964774666 0.34995818298477915
1.2799316169874497 13.082940230078977 906.2855562012954 40.111745650011734 0.3554263569617972
1.3069837326594533 13.084548769433546 806.3895807529437 41.944248435874805 0.3610342820517757
1.3340168842050795 13.085239298883124 718.2651164194347 43.862502411182504 0.3667844468651751
1.361025795512475 13.085029982563446 640.2985622336246 45.87109887152385 0.3726840587637005
1.3879594190201245 13.08376460272852 571.5270010043475 47.975422462266785 0.37874335309232265
1.4148108956906973 13.081459442778648 510.60456580000977 50.180289875368224 0.3849682787081098
1.4415424528404026 13.078016356048636 456.65113223039884 52.49081165379655 0.39136523181722227
1.4681371397388696 13.073412382087305 408.80667240618743 54.91346217889383 0.39794619653155117
1.4945492105110791 13.067539601231978 366.3440166509523 57.45443463034216 0.4047202394285646
1.5207612787101508 13.060386138696103 328.684002174444 60.120360593470764 0.41169713762929744
1.5467454218722474 13.051895302961713 295.13255962519895 62.91834952807536 0.41888743731031747
1.572462795277384 13.042006270047926 265.3271664101795 65.85603201659627 0.4263025169939767
1.5978764832603893 13.030665518051688 238.7872340541228 68.94160717538952 0.4339546561762297
1.6229748083116238 13.017843349989823 215.121571437835 72.18389466054076 0.4418571099198237
1.647727455864108 13.003494435592167 193.97819835444608 75.59239175376035 0.4500241901165371
1.6720754458152647 12.987551843049618 175.14751841991117 79.17694394133277 0.4584697167625525
1.6960124114412292 12.969989401979475 158.27606969695216 82.94794281490792 0.46720778520295
1.7194911829108543 12.950771380861003 143.19984799025033 86.91803910909854 0.4762595563672962
1.7424734771865675 12.92982002726794 129.71371676512422 91.0987155926798 0.48563897549790935
1.7649553082235518 12.907162271955245 117.60907690609675 95.50427317585887 0.49536878524528105
1.7868811687967472 12.88271981677058 106.76111672877414 100.14818123898088 0.5054657029370825
1.8082183085256396 12.856448616594124 97.03423492476331 105.04707881405963 0.515955852927014
1.8289309902204371 12.828313412232903 88.2833832336644 110.21751860214007 0.5268617893604294
1.849004157844811 12.798321733385244 80.41942342162615 115.67727244400646 0.5382073740081808
1.8683783044297544 12.766371634414405 73.34515122595516 121.44631353866025 0.550021036390037
1.8870525077439795 12.732542835674687 66.96894441550427 127.5460832637085 0.562332626212375
1.9049743943720605 12.696712359413707 61.224360017036204 133.9992560141921 0.5751722452434661
1.9221137485674107 12.658881216129195 56.04454074771037 140.83144739986446 0.5885759020302712
1.9384236609255947 12.618978871453164 51.36259633867582 148.0703478756879 0.6025818628571422
1.9539164774389775 12.577120756669373 47.138481813673046 155.7443385882348 0.6172254433619113
1.96853011133675 12.533179374840964 43.317709516224205 163.8872226683133 0.6325547341150982
1.98223976843891 12.487164680443597 39.85860935559672 172.53295863499923 0.6486118616537263
1.995023886706458 12.439070141065875 36.725973819379334 181.72055971790095 0.6654489981911131
2.0068568855675095 12.388895721493126 33.88463312051482 191.4922158048664 0.6831211229677497
2.017698066082165 12.336605920256517 31.310740727131467 201.89399936950275 0.7016875195579036
2.0275306528497805 12.282211480747863 28.976211076555643 212.97572234969996 0.7212103288383205
2.036333890613726 12.225723609543818 26.85483083324963 224.79327175846885 0.7417611002276318
2.0440726277113175 12.167114795450352 24.929152927242242 237.40750080202872 0.7634158439460308
2.0507266192149007 12.106389291151133 23.1758314441653 250.88551407070415 0.7862578153628527
2.0562937299838233 12.04362581461604 21.58335268193526 265.30064488404565 0.8103757989614381
2.0607334412730802 11.978760195484893 20.131883909490465 280.7342263717682 0.8358680059338117
2.064032272123782 11.911850181720737 18.81295998631635 297.27654728491694 0.8628430519043884
2.0661862064893053 11.842929542305926 17.610295479832487 315.02793956340935 0.8914210767912207
2.0671710804519203 11.772022887165983 16.515525138432444 334.0976789754521 0.9217272795456658
