M[M_sun], R[km], Lambda[1], P_c[MeV/fm^3], rho_c[fm^-3]
0.24162668629717493 15.618656898711224 2160425.4255784233 3.5677272577965504 0.1711233750220791
0.2536445479934983 15.277291997422873 1723139.0266681775 3.784830117042857 0.17388830406816605
0.26604038485125314 14.981276692843432 1383042.702705542 4.011423582657529 0.1766669281655246
0.278816895081026 14.723465694368372 1116376.3685395168 4.247763420201382 0.17945792255038165
0.2919716205738056 14.498377858001863 905822.2915995925 4.494474935706918 0.1822678556768573
0.3055079065643114 14.301186401107904 738628.723148951 4.751713915785866 0.18509243736131903
0.31942495427525125 14.128100879294616 605079.487786378 5.0201623875705454 0.18793828068207424
0.3337230722791878 13.975954783747971 497672.95311088307 5.30004472484114 0.19080201485387
0.3484055667811293 13.841989122637433 410982.9381213083 5.592089229741939 0.1936899300789085
0.3634695801647843 13.72394057610347 340653.577719186 5.8964635923875885 0.1965970968759882
0.3789233396077409 13.619986758381158 283287.3258747611 6.214031751885108 0.1995311929098351
0.39475633144194033 13.52840873871161 236396.74831953968 6.545050358274548 0.20248838280568188
0.4109820142190882 13.447829913643371 197844.73744443763 6.890223385299109 0.2054724042371018
0.427591029048531 13.377029379281646 166069.66691624367 7.250255304416604 0.20848631876852974
0.44458678589270584 13.314903375598028 139784.1674214777 7.625404090963634 0.21152565691005573
0.4619691945728988 13.260556017772547 117970.22816498691 8.016620778054364 0.21459661165440574
0.4797339917235896 13.213134733254051 99796.17749997714 8.424609543534237 0.21770081581810513
0.49789298027991336 13.171983686964161 84635.04177704823 8.849810018300749 0.22083571912713515
0.5164324722669044 13.136373439324283 71927.67826517926 9.29309801624275 0.2240047645035385
0.5353517907457211 13.105820780791667 61268.713434152545 9.755357328461738 0.22721085489474968
0.5546589982806286 13.079810744158383 52299.899564511186 10.237397672348429 0.2304553414443669
0.5743431892391528 13.057840793183939 44322.326468612104 10.739688179006421 0.23373489432175493
0.5944006151990471 13.039518216880875 38323.8972750942 11.263477706620684 0.237055753316759
0.614839018503222 13.024512996664251 32897.25182137543 11.809702085185627 0.24041950909460716
0.6356441065700181 13.012432812697249 28288.470306949406 12.379340491740706 0.24382779491398954
0.656815878873302 13.003028380873863 24368.065252507808 12.973079308069838 0.24727853110446854
0.6783483521630373 12.995985348569015 21024.753641614134 13.592250690894906 0.2507765624632453
0.7002374813173006 12.991049969639796 18169.439515896425 14.23805002188679 0.2543244977252675
0.722473221869821 12.98800649952114 15726.736891224335 14.911667213093207 0.257924321939699
0.7450620349964071 12.986639279368998 13631.973802243578 15.614127404186515 0.2615758853360915
0.7679834906713608 12.98676383934432 11834.21598919069 16.346706041068796 0.26528117461158524
0.7912297606471516 12.988141387938217 10287.139646331043 17.111015061347803 0.2690448364642505
0.8148040209575547 12.990676776789517 8954.556148103013 17.908509805700437 0.2728693040535517
0.838689628290574 12.994135232027642 7806.458724156273 18.740546856463553 0.27675557912210497
0.862870510485745 12.998405593808856 6812.926987859227 19.608488426326875 0.28070430013440867
0.887353221646731 13.003367723504233 5954.300114158692 20.514412244731528 0.28472175127972343
0.9121081522424664 13.008862038246026 5210.210707810255 21.460112824302907 0.28881094667040597
0.9371312022993791 13.014743245055984 4564.394056788372 22.447063044935824 0.29297171623573026
0.9624159051356734 13.02095954127925 4003.764438487588 23.47731123969076 0.29720804204891704
0.9879378854628262 13.027353392942072 3515.9755627177847 24.553269295876884 0.3015259361081071
1.013681279098118 13.033795885003261 3091.528718219181 25.676865951931 0.3059269277566376
1.0396458162722582 13.040255335470157 2720.9030648722346 26.850090177517682 0.310412480666506
1.0657994057399864 13.046582616298817 2397.7006288552293 28.076026129525886 0.31499123152012426
1.0921314386065084 13.052709580775135 2115.2636269719246 29.35671184930829 0.3196635076081169
1.1186304584386444 13.058545380690916 1868.2524090831996 30.694937751519447 0.3244342298787579
1.145262686962594 13.064000749773374 1651.7781073054123 32.09406885296447 0.32931121915455336
1.1720263000668427 13.069016606527589 1461.7632194981682 33.55608281612029 0.3342924092559925
1.1988832963614986 13.073469799701062 1295.1285691960488 35.0855054337096 0.33939125324146435
1.2258306198196962 13.077335320790768 1148.8168238796231 36.68433892443005 0.34460438248287306
1.2528265413029285 13.080503658278726 1019.9448296468192 38.357656948648696 0.34994636509678717
1.2798708824577034 13.082935743957863 906.5200998913555 40.10772230758628 0.3554139100844447
1.306915190956642 13.084520930214316 806.6304419462109 41.93996439213231 0.36102133073851234
1.3339537655112323 13.085238435930606 718.4654711949231 43.857909626877806 0.3667707947350084
1.3609620702155563 13.085031442228948 640.4789879239717 45.86620697142162 0.3726698337827176
1.3878937121654957 13.0837731138946 571.6700424573311 47.97021054817317 0.37872851830236975
1.4147438240608006 13.081460654222079 510.72382141755514 50.17470078698438 0.384952617466528
1.441475612782712 13.078024953241634 456.77524414603477 52.48485426498649 0.39134887505959054
1.4680714738628957 13.073421600320415 408.9171652049979 54.907110106456294 0.39792909789494463
1.49448025769211 13.067558181821516 366.43745695353846 57.447659353778526 0.4047023489655875
1.5206923668229475 13.060407242779773 328.75807445759636 60.11313126360376 0.41167840151367807
1.5466762244833812 13.05191731796712 295.22342485742894 62.91063275657078 0.41886779751332776
1.5723924837820982 13.042035728880466 265.405317481109 65.8477916442579 0.4262819109285366
1.5978064809155954 13.030698412433088 238.8501547074704 68.93280401684352 0.4339330163052041
1.6229037340197723 13.017878390648352 215.17536410372352 72.17448622262818 0.4418343633245886
1.6476561265807335 13.003538612174223 194.05052937336086 75.58233192462909 0.45000025802143484
1.6720049019517744 12.987599459761073 175.18999798135766 79.16623518691672 0.458444733361016
1.695942733318124 12.970045355912127 158.32855464502768 82.93648063401469 0.46718144514464066
1.719422544379481 12.95083081480148 143.24483529190215 86.90576448584882 0.47623176038486514
1.7424007269595247 12.929879150066698 129.75545059143258 91.08562341828875 0.4856098502289454
1.7648861704551475 12.907235556036394 117.65175609159604 95.49023730272158 0.4953379874055596
1.786812314021739 12.882794980502377 106.79965793125487 100.13318944485859 0.5054333512957672
1.808151483565605 12.856534863316288 97.06221355270947 105.0310533440589 0.5159218228078768
1.828860037275283 12.8283952024207 88.30718487167587 110.20037464362568 0.5268259459036019
1.8489390214398793 12.798424967286476 80.44325505128832 115.6588473488324 0.5381693141195626
1.8683150649459297 12.76648195618278 73.36835743477857 121.42657377857996 0.5499808534723285
1.8869927089818201 12.732657345795186 66.99246396447202 127.52499305533162 0.5622904158300996
1.904914880597063 12.696838197730978 61.2410495514793 133.9766217494232 0.5751275581769354
1.922055270110811 12.659016517729714 56.061661259141935 140.80713632727517 0.5885285348158337
1.9383679851626299 12.61912386254919 51.37959603577176 148.04421437733356 0.602531593772835
1.9538647195335104 12.577274596295318 47.15406732172711 155.7163088254373 0.6171723241555913
1.9684776855607922 12.53333976555789 43.3272655339053 163.85712674597988 0.6324985146820649
1.9821914648097414 12.487331313599707 39.87018754572566 172.50051937773458 0.6485519661120221
1.9949794809801487 12.43925431092103 36.7362662963078 181.68565950899048 0.6653854269766639
2.0068142958466764 12.389087802902845 33.89516858889963 191.45462795635996 0.6830535508416913
2.017658930428423 12.33680765373338 31.319793598779402 201.85347381492406 0.7016155906960427
2.0274937306672864 12.282417826705133 28.984004950540925 212.9320851603763 0.7211339881863288
2.0363023571652046 12.225946773437007 26.863375786582793 224.74611893221885 0.741679595444909
2.044044962217195 12.16734565564363 24.936052264659626 237.3566025749616 0.7633290577932905
2.0507022073623804 12.106633853600977 23.181689033181573 250.83050262884225 0.7861652520595339
2.05627384143383 12.043881078010605 21.589199314702967 265.24105466820964 0.8102767263195284
2.0607172374826526 11.979026726041258 20.137073379794845 280.6697190489717 0.8357621989104775
2.064021215366925 11.91212635341982 18.81746300935987 297.20656089988177 0.862729661420393
2.0661799588703165 11.843218247816088 17.614836581041462 314.9519119779472 0.891299371580371
2.0671699601747893 11.772320049290883 16.52073967436234 334.0151086297949 0.921596866280373
