M[M_sun], R[km], Lambda[1], P_c[MeV/fm^3], rho_c[fm^-3]
0.24162668629717493 15.618656898711224 2160425.4255784233 3.5677272577965504 0.1711233750220791
0.253645003035647 15.277269271682345 1723272.17576785 3.7848386988936435 0.1738884110367961
0.2660418071332762 14.981248013284464 1382982.258135277 4.011441623540737 0.17666714617895116
0.27881787346983694 14.723483570647241 1116422.3842904898 4.24779153059179 0.17945824858854892
0.2919736798773141 14.498355129516735 905848.4382517072 4.494513853370358 0.18226828903407202
0.3055109007616854 14.301149824963929 738575.1198403403 4.751764962304695 0.1850929887611461
0.3194292495204625 14.12802785868123 605104.8641343544 5.020225939099587 0.1879389400537167
0.3337257029503087 13.97590460090475 497648.24652050517 5.300122454689459 0.19080279746446543
0.3484102012751747 13.841949829180189 410958.77036038367 5.592181332118427 0.19369082119473752
0.3634750505377093 13.723885456256832 340622.70172273985 5.896572136701555 0.1965981163471554
0.3789280355872439 13.619981406924879 283259.51150202216 6.214158051870082 0.19953234461362296
0.3947629502795754 13.528388982970753 236375.0362951048 6.545194282934867 0.20248964483052018
0.4109896518923077 13.447821457064643 197838.42845094932 6.890387713352607 0.20547380372376298
0.42760061566812224 13.376971931327969 166053.24130611634 7.250441578126769 0.20848785976319606
0.44459602558650047 13.3148709457115 139780.4721741782 7.6256117956147325 0.21152731037263212
0.46197945884198843 13.260511758718946 117955.33336714018 8.01685353685264 0.2145984122318878
0.4797456016347432 13.213101507641884 99787.92224567056 8.424869171770645 0.2177027678594893
0.4979055238699498 13.171929693351432 84622.25222779247 8.85009555878897 0.22083778656227193
0.5164458897160086 13.136351277365685 71926.02698428785 9.293414090364521 0.22400698968506072
0.5353659097209523 13.105800318279966 61261.88464251781 9.755706079608323 0.22721324262970394
0.5546739220692822 13.079791669622603 52293.480956134634 10.237780561861115 0.23045788630408953
0.57435926480814 13.057805991647852 44315.655355316936 10.740105164365358 0.2337375714969252
0.5944182879030723 13.039493617180925 38318.7409123451 11.263934247015955 0.23705860578941035
0.6148578457026723 13.024473183906265 32615.421274359087 11.810200878058671 0.2404225425874928
0.6356637099226286 13.012412881654363 28283.706035144496 12.37988440283739 0.24383101545195282
0.6568363585812705 13.003014109811458 24364.29432800073 12.97366583963666 0.2472818834783859
0.6783706170365236 12.995975757234278 21021.868973739518 13.592888172716346 0.2507801117912355
0.7002607904622452 12.99105728569329 18166.803559737207 14.238741872578915 0.25432825104903806
0.7224969691694968 12.987991078161993 15724.150443698527 14.912417070947185 0.25792828672083407
0.7450884192954097 12.986638417810752 13629.546998726886 15.61493182419541 0.2615799969975841
0.7680107372009882 12.98676189892954 11832.725006968876 16.34757591802166 0.2652855107300226
0.7912581321973614 12.988142567259057 10286.953655183333 17.111954761685926 0.2690494059087855
0.8148353544731288 12.990668989280154 8953.467979494064 17.909523985384187 0.2728741162636337
0.8387198656474071 12.99414458996557 7805.165042050375 18.741631016933496 0.27676056027850465
0.8629030668795962 12.998420432101247 6811.779494202618 19.609656666039715 0.2807095412892299
0.8873871118806715 13.003362421079622 5953.269612214096 20.51567018732765 0.28472726377922675
0.912145149948066 13.008855620455794 5209.312934610229 21.461466478555455 0.2888167426259147
0.937166765586177 13.014756176031938 4563.593940792613 22.44850677157712 0.2929777126542649
0.962453348847248 13.020968807076528 4002.9707325530476 23.47886315883212 0.2972143448536702
0.9879764107389274 13.027348180630575 3515.2451105190726 24.554936713487066 0.301532559966712
1.013720821292602 13.033807009467274 3090.670833353189 25.67864241308157 0.30593378346234473
1.0396882588180996 13.040261127063484 2720.372937303033 26.851997402774483 0.31041968582009305
1.0658400805564772 13.046597023435911 2397.283014021414 28.078073048065043 0.31499880396186897
1.0921756951028934 13.052728642040321 2114.8099714961477 29.35889120575591 0.3196713519531966
1.118676252992938 13.058554122869413 1867.6343322362627 30.69727556888806 0.3244424766810125
1.1453104278813495 13.064019917700893 1651.2644296028677 32.0965575002802 0.32931976990160833
1.1720750299252767 13.069017151113153 1461.4139076775105 33.558751489189426 0.3343014029593872
1.198932554048654 13.073480430657593 1294.8498270047826 35.08836673026441 0.33940071477347183
1.2258815391292184 13.07734492026332 1148.574788016474 36.68738454023103 0.3446142071679958
1.2528788240549407 13.080502937453327 1019.7238085857903 38.36089924542821 0.34995657477851805
1.2799232546910182 13.082942528229342 906.3065749491266 40.1111981431661 0.355424663158527
1.306968731011923 13.084528019619905 806.3827947457663 41.943665451370066 0.36103251960129606
1.3340073818015383 13.085238776786582 718.2841565800154 43.861877411406354 0.3667825890426143
1.3610180552235651 13.085028730135393 640.3407923088262 45.87043316629325 0.37268212298331915
1.387950625866363 13.083764844681454 571.5510619527022 47.9747132075598 0.3787413343244742
1.4148010288348767 13.081457976643653 510.589249431228 50.17952929224529 0.3849661474703813
1.4415332457262975 13.078016460458281 456.6677762658385 52.49000094989487 0.39136300592805273
1.4681292945366227 13.073415324051915 408.82053312112595 54.912597763717095 0.3979438696813571
1.494539707709907 13.067540227801226 366.3483583046779 57.453512622520456 0.4047178048199337
1.5207521026072117 13.060391177168182 328.691771306429 60.11937679471344 0.41169458793691893
1.5467361927440604 13.051897765395037 295.1483184146927 62.917299394525784 0.41888476463694446
1.5724531575149903 13.042010678014002 265.3354294152224 65.85491062729646 0.42629971282198703
1.5978670132599926 13.030669377461859 238.79653116435492 68.94040919753166 0.4339517113143145
1.622966041353196 13.017847090803535 215.13115200875546 72.1826143111409 0.44185401444426986
1.6477177387682187 13.003499221065509 193.98831128744933 75.59102275734296 0.45002093330650306
1.6720652630088242 12.987559298024356 175.14275130747387 79.17548663353713 0.458466316880138
1.6960028585372355 12.969998296419623 158.2898033833099 82.94638297383376 0.4672042006927046
1.7194828516774554 12.950779218217885 143.20841247549225 86.9163687030694 0.47625577371949557
1.7424635865626803 12.929825708801657 129.71843709353308 91.09693392647732 0.48563501194641656
1.7649451577987416 12.90717096120683 117.61250986103337 95.50236308151435 0.4953645940717858
1.7868720472864792 12.88273076334213 106.76738962001554 100.14614105317995 0.505461300304635
1.8082089202393452 12.856460220218507 97.03736283434344 105.04489795481062 0.5159512218678275
1.8289225875503703 12.828325818815623 88.28789936815816 110.21518552690026 0.5268569115207191
1.848995566820899 12.798334000850495 80.4233467523199 115.67476501703986 0.5382021945293143
1.8683682132707289 12.766388457844 73.3489494121397 121.4436271969948 0.5500155679828405
1.8870445708879588 12.732558627340545 66.97157455579831 127.54321313752045 0.5623268818820483
1.9049662126130162 12.696729540514626 61.22464176302807 133.99617575406037 0.5751661638535538
1.9221049446088896 12.658899916502774 56.04577135959258 140.82813893875598 0.5885694558898877
1.9384159714360245 12.618998594050048 51.36464096592346 148.06679139541345 0.6025750217903884
1.9539097449801492 12.57714119977691 47.1410635829144 155.7405240397125 0.61721821441062
1.968522271172845 12.533201806022838 43.31972141235713 163.8831269292473 0.6325470832404849
1.9822341921038493 12.487187152252716 39.86015012201078 172.52854398211835 0.6486037104798699
1.9950167811865231 12.439095937507815 36.726977458364274 181.71581014391123 0.6654403467762342
2.006850309819602 12.388921930784976 33.88552522501499 191.48710045776923 0.6831119270469238
2.0176934679284355 12.33663360579455 31.3131507489648 201.88848421537767 0.7016777307033567
2.02752490263926 12.282238855192704 28.97684681405286 212.9697837171717 0.7211999395560094
2.036330070976044 12.225753749352254 26.856270204913724 224.78685466242598 0.7417500081243522
2.0440689545631687 12.167146500159886 24.92919856170543 237.40057397171626 0.7634040330640385
2.050723800168352 12.106422338031503 23.176883273142025 250.8780274461984 0.7862452182253935
2.0562903230774463 12.043660715411555 21.58360465599985 265.29254292925486 0.8103623414206346
2.0607313963926566 11.978796538708822 20.132960244465124 280.72544738402814 0.8358536063506264
2.0640310619976927 11.911885801974995 18.812859628145084 297.26702260785487 0.8628276202209056
2.0661845623602133 11.84296912096801 17.610150422651024 315.01759268800436 0.891404513478771
2.0671724079926044 11.772063322923119 16.516356369963532 334.0864416378576 0.9217095310685676
