M[M_sun], R[km], Lambda[1], P_c[MeV/fm^3], rho_c[fm^-3]
0.24162668629717493 15.618656898711224 2160425.4255784233 3.5677272577965504 0.1711233750220791
0.2536415626566297 15.277369086939778 1723320.229646193 3.7847953571941604 0.17388787080342077
0.26603788095698216 14.981289648406547 1383051.0164559358 4.011350510625406 0.17666604513314055
0.27881073780083265 14.723613885448975 1116499.9275312219 4.247649563955649 0.17945660198950886
0.29196302540852936 14.49852773714684 905995.722680986 4.494317307687453 0.182266100452277
0.3054977061216271 14.30130867972479 738751.8797616541 4.751507163926828 0.18509020404664955
0.3194116530186873 14.128256299761198 605173.6345635667 5.019904989010617 0.18793561007266826
0.3337083798672929 13.976068124207874 497757.71634288196 5.29972990315132 0.19079884512183717
0.34838697383099304 13.842104094291962 411059.47781138855 5.591716199020134 0.19368632090405782
0.36344766646204424 13.72410327808522 340723.86226664996 5.896023972192963 0.19659296787008673
0.3788993039324949 13.620127162589746 283356.0879067417 6.2135202224017005 0.199526528376868
0.39472667066751516 13.528598842056462 236456.9167364845 6.544467450729973 0.20248327149398548
0.41095109448232636 13.44799947673013 197918.4418442539 6.889557847000256 0.20546673623366646
0.4275563078777826 13.377185191555524 166129.49074590797 7.249500890305674 0.2084800776939298
0.4445494189622994 13.31503569675932 139845.69742519417 7.6245628862811845 0.2115189603798906
0.46192780339308465 13.260656758460616 118019.10152849769 8.015678110598882 0.2145893193595237
0.47968972336410415 13.213240186058295 99839.13628756003 8.423558062865503 0.21769291015341927
0.49784341339937 13.172074032853926 84671.2539355029 8.84865360148705 0.22082734617530508
0.5163788851227669 13.136471688765154 71962.9390494028 9.291817949419347 0.2239957527532989
0.5352941291229972 13.105910514283213 61300.22907538691 9.753944932856717 0.22720118488681315
0.5545973038449539 13.079889534402433 52319.6265632012 10.235843741849646 0.23044499287343526
0.5742759180391588 13.057898957248867 44748.032374412665 10.737999465485457 0.23372405225785237
0.5943304385459521 13.039572698009087 38010.250152880464 11.261628815098291 0.23704420140906898
0.6147636257517476 13.024542134197974 32915.29155231084 11.807682093834213 0.2404072241769094
0.6355624104306692 13.012473800579045 28306.645113365652 12.377137797370597 0.24381475259717766
0.6567308295439297 13.003058366569878 24381.454348731044 12.97070402576652 0.24726495496485312
0.6782601888666446 12.995992047352969 21036.2478647635 13.589669092319072 0.25076218881402673
0.7001444324943292 12.991076786907486 18180.942746510773 14.235248265629412 0.25430929806083147
0.7223734585428248 12.988007009261034 15736.3852092375 14.908630568437808 0.25790826605473405
0.7449584676813101 12.98664811050943 13640.811556203525 15.610869821406123 0.2615592347337582
0.7678754027584175 12.986757594721677 11841.79744882511 16.343183407422707 0.26526361516636654
0.7911150557249312 12.988131585433843 10293.707821239768 17.10720969838538 0.26902633227276823
0.814685885147629 12.990652158556824 8960.78854980328 17.90440286294973 0.27284981690386007
0.8385650222401548 12.994120228281432 7811.7459388155985 18.73615654945844 0.2767354079330223
0.8627420453381786 12.998387980754064 6818.357645890957 19.60375767291338 0.2806830762273723
0.8872121604305903 13.003331736078891 5959.008525447723 20.509318277146825 0.2846994287239351
0.9119692273260306 13.008824488677561 5214.142016176261 21.45463131575405 0.2887874764381733
0.9369844745754237 13.014713275429834 4567.908572720724 22.44121682872168 0.29294743438190746
0.9622600986095031 13.020924225946848 4007.0797079118274 23.471026953551124 0.2971825196956606
0.9877801599497313 13.027306664839067 3518.6548415761836 24.546517361986265 0.3014991138800531
1.0135184960375614 13.033756542290051 3093.994889816484 25.669672505211718 0.3058991668603682
1.0394777178348926 13.040213932182395 2723.26344512074 26.84236728130527 0.31038330495527394
1.0656283066070766 13.046549265921627 2399.700508740304 28.067737635450733 0.3149605687764268
1.0919530970221547 13.052668946074574 2117.1518358108333 29.347887132084125 0.3196317440445139
1.1184472068659543 13.058508468131576 1869.7976557725906 30.685471459078656 0.3244008369187726
1.1450742244260208 13.063964881267031 1653.133017065785 32.08399187995825 0.3292765956678459
1.1718331875028334 13.068983323326824 1463.1472803339097 33.54527696813485 0.33425599243415205
1.1986846075920188 13.073445916419423 1296.3094904973907 35.07391971308897 0.3393529424042679
1.2256281693586426 13.077305489759471 1149.8216578663191 36.67200695037617 0.3445646014435238
1.2526194369372377 13.080477781578404 1020.8881720414508 38.34446818158278 0.3499046705286423
1.2796569497136798 13.08292129239527 907.3710474718735 40.093648534206906 0.35537037053135284
1.3066980472182175 13.084518554945769 807.3267546524469 41.92497877798524 0.36097602695663517
1.3337323540490627 13.08523332879545 719.1265580741675 43.841844170389045 0.36672303988988153
1.3607369969204677 13.085040559456244 641.0774911794539 45.84909533307745 0.37262007546285314
1.387665849214566 13.08378650857681 572.2198019781639 47.951979644394605 0.37867662726515217
1.4145197724173357 13.081502448966734 511.2075099687148 50.155150725317924 0.38489783603927724
1.4410579194917728 13.078012151905162 457.5200674928274 52.474947216293856 0.4398495354507091
1.4630765778893446 13.07003979063084 416.1860511559649 55.05796602477963 0.5985251687508111
1.480074116317212 13.054306865288826 384.3648626973839 57.96230711641589 0.7514578494353737
1.4930377017693481 13.03051445281794 358.7928482128115 61.195860816783494 0.8990120988752894
1.5026759064509638 12.998830928713492 337.51757070209203 64.76729837658287 1.0417499607692124
1.5096217049233684 12.959722361853293 319.2390357897305 68.68677734268827 1.1803063324204355
1.5143802942761084 12.913630124083651 302.99504448118773 72.96582698865589 1.3148398353724038
1.5172954097757292 12.860950461349393 288.34735665943055 77.61696635404658 1.446384776690934
1.5187432055053678 12.802226397032992 274.7367724588426 82.65407542479439 1.5748858721672325
1.518981763345361 12.73776533533956 261.9720973138053 88.09163765210066 1.6999711961579698
