M[M_sun], R[km], Lambda[1], P_c[MeV/fm^3], rho_c[fm^-3]
0.24162668629717493 15.618656898711224 2160425.4255784233 3.5677272577965504 0.1711233750220791
0.2536436151139915 15.277307277289804 1723255.0140286426 3.7848123525774526 0.17388808264267466
0.266039140673901 14.981284922805695 1383075.1550425198 4.0113862381416565 0.17666647687908948
0.27881371681064626 14.723546120440217 1116452.6710760836 4.247705232145914 0.17945724765662574
0.291967080199309 14.498473282870986 905943.1562513054 4.494394377144782 0.18226695863857123
0.3055034352044295 14.30122138171365 725465.6607238018 4.751608251303218 0.18509129598324273
0.3194181384314918 14.128180268793008 605125.8587293996 5.020030838746773 0.1879369158122544
0.3337151294619905 13.976000872351637 497707.73958859954 5.2998838282698015 0.1908003948923723
0.3483960109297847 13.842068779581462 411031.0790950554 5.591898583633448 0.19368808552536393
0.3634567478581029 13.724048696214297 340674.41564324877 5.896238913514788 0.19659498664446773
0.37891067382190524 13.620036845277026 283331.37285989925 6.213770321223862 0.19952880897698752
0.39474154547066875 13.528513058124854 236421.80879640294 6.544752447186473 0.20248577052789762
0.4109657150710126 13.447916478555497 197881.7578837672 6.889883242510642 0.20546950743837986
0.4275737291771185 13.377081170863386 166094.8505746861 7.24986973796796 0.20848312907611233
0.4445667717227389 13.314971391997922 139813.51744485315 7.624974166455415 0.21152223443452975
0.46194899035871323 13.260593726551921 117996.5436368289 8.016138996429191 0.21459288468403132
0.4797116729486397 13.213208163345586 99826.34862529706 8.424072147815236 0.2176967753535637
0.4978675843647367 13.172046840985992 84655.07142545635 8.849218989895279 0.22083143982895254
0.5164046968573851 13.136428864676805 71945.71705270102 9.292443790281748 0.22400015871198684
0.5353223012179147 13.105866272040798 61284.63041932422 9.754635468986708 0.22720591266268114
0.5546277303919575 13.079845299893483 52307.34531357329 10.236603473847289 0.23045005239216715
0.5743090796010569 13.057857977951487 44735.540030028955 10.73882509224248 0.2337293530373796
0.5943616252011188 13.039569414356444 38332.90430761616 11.26253275175624 0.23704984922166575
0.6148005370849616 13.024515679516226 32907.433502524385 11.808669679706682 0.24041323034676468
0.6355976667730586 13.012490116912728 28297.91339978947 12.378214704847041 0.2438211290462554
0.6567722191900297 13.003026799440223 24181.881904151076 12.971865309564386 0.24727159238683488
0.6783025901295296 12.995985899495752 21031.140325133387 13.590931241365894 0.2507692161217695
0.7001885068589792 12.9910752241133 18175.232001216747 14.236618046438803 0.25431672918857456
0.7224225312432824 12.988005487360713 15732.746876619105 14.910115182246109 0.25791611576756795
0.745008738583456 12.986642789840802 13636.05129565408 15.612462448077329 0.2615673751848704
0.7679285892461769 12.986749506335903 11837.393125625556 16.3449056122289 0.26527219992538154
0.79117179453792 12.988131644463524 10290.857100033834 17.109070123507667 0.2690353788901451
0.8147431463209395 12.990660535279499 8957.94870522606 17.90641072348491 0.2728593440585306
0.8386255933824956 12.994122407613414 7809.107852267794 18.73830294023426 0.27674526948806477
0.8628051246770776 12.998392061624777 6816.126069465737 19.606070499089707 0.28069345241980237
0.8872778337359217 13.003338615640967 5956.4229932789 20.511808668690712 0.28471034200582174
0.912037676945696 13.008835041235125 5212.434500735907 21.457311164718455 0.28879895077538953
0.9370561418054416 13.014724420359276 4566.227131267116 22.44407497264796 0.29295930548459687
0.9623329910598607 13.02093973312873 4005.2807139415677 23.47409925571242 0.29719499722760756
0.9878576770304354 13.027327052653817 3517.3204412839527 24.549818281236256 0.3015122268652134
1.0135970460819632 13.033778954731691 3092.4793438261986 25.673189265230214 0.30591273871456937
1.03956028515425 13.040229584051001 2722.0556263958883 26.846142869561984 0.31039756844783933
1.0657103183546597 13.046559953149666 2398.9044890992786 28.071789722565587 0.31497555920864717
1.0920404730651039 13.052688009727456 2116.248231148981 29.3522013581483 0.3196472726093966
1.1185372560456888 13.058523345650068 1868.9935148178038 30.690099324359227 0.324417162013428
1.1451663452569845 13.063981553258133 1652.520972825612 32.088918281670615 0.3292935222988986
1.1719284950973003 13.06899542581207 1462.5201710612707 33.550559683902364 0.33427379573095933
1.1987822926413136 13.073454550523447 1295.7088615438192 35.07958367193671 0.33937167158067466
1.2257261638591346 13.077321854710924 1149.339829591379 36.67803571787406 0.3445840493142388
1.2527214107208902 13.08048858728114 1020.4455343799725 38.35093111103448 0.3499251436723303
1.2797615842494183 13.082935147777539 906.8991719186032 40.10052878015287 0.35539165571376796
1.306804194134937 13.084523516469396 806.9430901480688 41.93230477605491 0.3609981745586836
1.3338400581218683 13.085235737022726 718.8010017063086 43.84969804351766 0.36674638566254386
1.360847263088628 13.08503673561494 640.7802412035884 45.857460627067816 0.37264440060143783
1.3877775813316473 13.083777151306014 571.9692812507668 47.960892083938454 0.37870199494509205
1.414632849392528 13.081489888805503 510.9563187290247 50.16470802096143 0.3849246166349061
1.4413555627270263 13.07804144440127 457.0052159979953 52.47420306068892 0.39131963084325083
1.4679486609424943 13.073448751929467 409.125268392198 54.89575330065403 0.39789852741620196
1.4943575544253933 13.067584974527076 366.62290937023175 57.435545962914865 0.40467036293981584
1.5205689584725979 13.06044416467256 328.9234533233455 60.10020614174626 0.41164490372315377
1.5465514157716238 13.051964341883005 295.3689556057332 62.89683621923155 0.41883268422892606
1.5722678829742005 13.04208900104072 265.5389232770668 65.83305905428313 0.4262450702736905
1.597691167897522 13.03076495403576 238.99020125442155 68.91706532810736 0.4338943275558668
1.622778277230018 13.01794967454731 215.29713515140872 72.15766547674578 0.4417936961382082
1.6475302356563428 13.003616515130537 194.15332981439624 75.5643466953043 0.4499574715870908
1.6718788598044223 12.98768630127629 175.28236497362636 79.14708988020514 0.4584000675794944
1.6958170270932618 12.970144648949724 158.40950670247796 82.91598845416738 0.46713435417503446
1.7192813308319699 12.950905933380891 143.3245633083345 86.88381994280392 0.47618206679178904
1.7422838610579574 12.930006338622619 129.815068615451 91.0622173778613 0.48555778040444814
1.7647639488524598 12.907367119303393 117.71216837249588 95.46514428214957 0.4952829277154254
1.7866914623087025 12.882937470253156 106.85258556826771 100.10638759481186 0.5053755140661317
1.8080304217817293 12.856691039307314 97.11378912879917 105.00240368117588 0.5158609851886926
1.8287427064326247 12.828563761343542 88.35538923127208 110.16972557056063 0.5267618668447142
1.848823285562064 12.798607756162596 80.48611573314761 115.62590815053827 0.5381012731023305
1.8682110606328763 12.766706427681203 73.39955824217091 121.39128452360501 0.5499090174812687
1.8868832236800417 12.732867583836185 67.02948901605833 127.48720066325342 0.5622146373254842
1.9048075601208645 12.697061455571745 61.27541243253921 133.93615840570038 0.5750476709726698
1.9219518993328644 12.659255968291713 56.08968140595239 140.76367564328706 0.588443856876162
1.938267451889799 12.619378228555084 51.406895405197076 147.99749608573603 0.6024417288145673
1.9537677814092853 12.577546848723594 47.175806458209216 155.66620094565735 0.6170773647075388
1.9683870157483432 12.53362944038791 43.351262482133336 163.80332562177222 0.6323980137349264
1.9821060245435183 12.487641473488562 39.89075780769215 172.44252962575328 0.6484448943754569
1.9948992469430116 12.439575992501608 36.75526792019297 181.62327090902076 0.6652717852767521
2.0067313400203486 12.389412596043009 33.91387366995151 191.38743535965628 0.6829327579047431
2.01759023906502 12.337168000329878 31.336921192238144 201.78103029481417 0.7014870105938117
2.027429762203714 12.282795489635422 29.00029477681206 212.85407985636522 0.7209975225738705
2.036245439433385 12.226341831728867 26.877729483547785 224.66182982516557 0.7415338997167283
2.0439948248983897 12.167761134165131 24.948938523759946 237.2656190238909 0.7631739224808236
2.0506589511611444 12.107070604777377 23.19403236185293 250.7321428057746 0.7859997114054548
2.0562364904954387 12.044338540894067 21.599139357047545 265.1344358422736 0.8100993063987476
2.0606896447889165 11.979502476038736 20.147159864345916 280.5544114702978 0.8355730676438484
2.064000131523846 11.912621103239557 18.826178479504765 297.08146061849385 0.8625269765489366
2.0661674983963727 11.843734980418578 17.62364377920163 314.816014420236 0.8910818263194678
2.0671671967962104 11.77285622087883 16.528532156734094 333.8675174693354 0.9213637578319259
