M[M_sun], R[km], Lambda[1], P_c[MeV/fm^3], rho_c[fm^-3]
0.24162668629717493 15.618656898711224 2160425.4255784233 3.5677272577965504 0.1711233750220791
0.25364415967433285 15.277265284987298 1723275.4309291258 3.7848216793990783 0.17388819889700682
0.2660400128289418 14.981270303095348 1383043.4109537934 4.011405844984831 0.1766667138162181
0.2788156728144517 14.723513202642177 1116418.7616777234 4.247735782343411 0.17945760199287855
0.2919699981836824 14.498414207827823 905893.6996500877 4.49443667235983 0.18226742960560702
0.3055051872875995 14.30120620152758 738643.3157867551 4.751663727656711 0.18509189523373865
0.3194215089314865 14.128142634093187 605107.6352875232 5.020099904893216 0.18793763240018085
0.333719569465261 13.975952352525702 497669.6759392427 5.299968302531787 0.19080124540802235
0.3484010306288212 13.842027396264497 411006.7820853395 5.591998676923689 0.19368905395548172
0.3634634989134678 13.724004602610337 340644.214809034 5.896356874565581 0.19659609455962002
0.37891706518749296 13.620034479275038 283305.2673189489 6.21390757752706 0.19953006058920533
0.3947488037640006 13.528467822693923 236422.5415254685 6.544908856236289 0.20248714202396623
0.4109750142078363 13.447884333294578 197867.30008736273 6.890061823765327 0.20547102831128347
0.42758252120639073 13.377059363744216 166077.50185108453 7.250072167202721 0.20848480372129333
0.44457746406760795 13.314944550706059 139802.8174782232 7.625199884178294 0.2115240312927399
0.46195901982377485 13.260569965933316 117984.03077068721 8.016391939679684 0.2145948414045697
0.47972397441607517 13.213151194444162 98739.32870733298 8.424354288992328 0.2176988966607893
0.4978814224197136 13.171979624214826 84644.29339428211 8.84952928870218 0.220833686524895
0.5164190853754337 13.136403213889597 71938.27419756781 9.292787268294761 0.2240025768186118
0.5353382666994939 13.105845224523506 61276.0114761723 9.75501445505693 0.22720850740192688
0.5546468879990383 13.07978274601069 52299.707238649215 10.237020438335781 0.23045282921300214
0.5743273566113373 13.057843459014135 44730.38485583786 10.73927822344045 0.23373226228003305
0.5943838484410493 13.039519774287387 38328.7899466755 11.263028864060015 0.23705294894031753
0.6148203926816451 13.024504427997057 32901.85129419305 11.809211703884241 0.2404165267581116
0.6356244250749506 13.012459673525022 28060.001321657153 12.378805754508413 0.24382462869515803
0.6567947731836136 13.003017414331824 24371.095045970076 12.972502670517754 0.24727523528068218
0.6783280020239356 12.995975733785416 21027.290647793707 13.591623964214897 0.2507730730170012
0.700215152507962 12.991063665073288 18172.44098202956 14.237369845415651 0.25432080773471555
0.7224490583719883 12.988005954849546 15729.932709340042 14.910930010228011 0.25792042407026
0.7450375838445186 12.986649860974016 13537.514946427147 15.613336561725855 0.26157184307401915
0.7679572487529833 12.98675921463267 11836.137818754682 16.34585084876579 0.2652769116924444
0.7912016331617274 12.988132458475599 10288.919212134824 17.110091226833685 0.2690403441698449
0.8147768988906485 12.99066579264611 8956.117171431313 17.907512752013655 0.27286457310510065
0.8386586340538632 12.994134553235279 7807.629427691224 18.73948100605728 0.2767506820909739
0.8628388318427868 12.998396906418787 6814.657910656289 19.60733991975822 0.28069914750976027
0.8873182035280713 13.003366823388767 5955.345197998506 20.5131755538285 0.28471633190843443
0.9120755035866016 13.008843437637877 5211.123990726657 21.458782042318997 0.28880524864732804
0.9370962153784875 13.014738033563784 4565.3729535539005 22.445643715621284 0.29296582114980124
0.9623792206735398 13.02095787303046 4004.5329541533083 23.475785550400747 0.29720184577138387
0.9878989245011741 13.027329947602562 3516.57095902843 24.551630064764097 0.3015194242210755
1.0136414338662214 13.033787051852206 3091.8758013826678 25.67511952449813 0.3059201879568312
1.039606238573111 13.0402397544677 2721.4280722105177 26.848215202009424 0.31040539734666184
1.0657562445575708 13.04657294731787 2398.315011003881 28.07401382855262 0.3149837871438086
1.0920877885101747 13.052700229761623 2115.762382263732 29.354569355145852 0.3196557959446302
1.1185869312860017 13.058535784826097 1868.6096166623288 30.692639483329803 0.3244261225887949
1.1452166266893302 13.063995680023654 1652.1253761608016 32.09162231217937 0.32930281308139037
1.1719798917953217 13.06900430789731 1462.0667743632207 33.55345930325297 0.33428356774713414
1.1988357985152251 13.073464635602912 1289.540401464881 35.08269256539392 0.3393819518485147
1.2257814141196957 13.077334872295669 1149.0470055277992 36.681344863817735 0.34459472410680836
1.2527759724031247 13.080496749501288 1020.1493118627619 38.35446954428787 0.3499363282660204
1.2798186448042825 13.08293602501131 902.8311019126044 40.104305328837434 0.3554033390937346
1.3068623546190214 13.084519759662353 806.7334851449846 41.936326012746804 0.3610103313664179
1.333899817585199 13.085232507892222 718.597563069291 43.85400905178149 0.36675920020859326
1.3609071241057922 13.08503301728359 640.61657662486 45.862052374095576 0.37265775277805285
1.387838555320673 13.083774416982717 571.8063598934963 47.965784181910216 0.3787159194351233
1.414695291206758 13.081484367027173 510.82758103443865 50.169954111785266 0.38493931675952564
1.4414184175486058 13.078032488094726 456.8868265767355 52.4797948165367 0.39133498370975894
1.4680122767733779 13.073434576864356 408.99973062352336 54.901715480502894 0.3979145765320804
1.4944217311628036 13.067569713090249 366.5309486350614 57.441905331217264 0.40468715517583803
1.5206339234105648 13.060423786096383 328.8336263200344 60.106991647982305 0.41166248958957746
1.5466171633777268 13.051938387421727 295.28907110948387 62.90407919537758 0.41885111817905984
1.5723334023933897 13.042060651535861 265.4674098830137 65.84079343218963 0.42626441103776463
1.5977573932870461 13.030732890071732 238.92089520405446 68.9253278790271 0.4339146385084995
1.6228437755868996 13.01791222853939 215.23948142682994 72.16649607552182 0.44181504570313157
1.6475967836788417 13.003572714064518 194.09870328765027 75.57378861204532 0.44997993368326017
1.6719449942346274 12.987640727628277 175.2305278241884 79.15714080222963 0.4584235162655875
1.6958824379420452 12.970094463182752 158.36371138472174 82.92674644035152 0.46715907599595324
1.7193627297228014 12.950883296925204 143.27941110499327 86.89534037028929 0.4762081548918852
1.7423478231340572 12.929942429363159 129.77563287963125 91.07450504201849 0.4855851159342713
1.7648292805869323 12.90729754479783 117.68168830274354 95.47831754974806 0.49531183280598423
1.7867547064435478 12.882860120745347 106.82147725175385 100.1204579360448 0.5054058772520879
1.808093963764932 12.85660848333479 97.08937944025205 105.0174440551468 0.5158929234543457
1.828804137491357 12.828476484543042 88.33096933409757 110.18581555783892 0.5267955067280515
1.8488840499976453 12.798512513753126 80.4644306337301 115.6432003597572 0.5381369928394941
1.8682613829214256 12.766574408205486 73.38953178449967 121.4098104158847 0.549946729408968
1.88694073850902 12.732756939257701 67.00885750477757 127.50706424584183 0.5622545033772448
1.9048631651397099 12.696944106904708 61.25665000259611 133.95740047472037 0.5750896094125192
1.9220063728775876 12.659129358719097 56.07501500945765 140.78649118101455 0.5884883102199656
1.9383209403412598 12.619244246163 51.39123309772155 148.02202171621198 0.602488905085014
1.953817560773272 12.577401856735339 47.16267913759567 155.6925059514454 0.6171272153266754
1.9684352671013936 12.533477488523042 43.34310239791633 163.8315694029863 0.6324507733529565
1.9821511250868074 12.487478771763882 39.87991536301555 172.472972224302 0.6485011033051523
1.9949412639367445 12.439406586010872 36.744923704739506 181.65602267738967 0.665331443076965
2.006777655602645 12.389249609118766 33.90242064383284 191.42270897274688 0.6829961697020394
2.0176263712367537 12.336978697587409 31.328073737985605 201.81906035716605 0.70155451020313
2.0274634746452382 12.282596399725648 28.991207559853418 212.8950295490577 0.7210691616112938
2.0362753587499336 12.22613477428692 26.87037650664795 224.70607815240902 0.7416103840037719
2.044021273081427 12.1675429901507 24.942799282626144 237.31338154278498 0.7632553619630777
2.050681805734776 12.106841121196487 23.187814549498732 250.7837890555334 0.7860866509084108
2.0562554439399476 12.044099352423657 21.59389230490732 265.19040591728736 0.8101924438553634
2.060703532507773 11.979256469151407 20.142039961558172 280.6149425918023 0.8356723527716109
2.064012174784109 11.912361169680471 18.82159910004535 297.14713226461134 0.8626333763827657
2.0661736823193744 11.843464682563349 17.61898825935834 314.8873539046806 0.8911960268026669
2.0671683076051433 11.77257728729452 16.523903517504017 333.94499528706854 0.921486127856151
