M[M_sun], R[km], Lambda[1], P_c[MeV/fm^3], rho_c[fm^-3]
0.24162668629717493 15.618656898711224 2160425.4255784233 3.5677272577965504 0.1711233750220791
0.25363983772793147 15.277381843010586 1723195.7900293241 3.784760421251601 0.17388743534375042
0.26603285290848055 14.981416662006573 1383186.2899336913 4.0112770693688296 0.17666515763889687
0.2788041670349367 14.723750676842503 1116605.955626915 4.247535133851543 0.1794552747727437
0.29195522893132037 14.49862787990657 906112.3279722563 4.494158887139279 0.1822643364027056
0.30548668908924126 14.301458698793367 738838.2939381792 4.751299375143339 0.185087959531217
0.3193963931096048 14.12847393509341 605249.8317886443 5.019646302567489 0.187932926100977
0.33369180287277406 13.97624938819231 497863.3798208755 5.299413510110276 0.19079565956890485
0.34836800873488777 13.842304629536436 411177.73041615204 5.591341310661002 0.19368269375605499
0.3634254726500554 13.724269692075875 340818.22316912044 5.895582168003451 0.1965888183516431
0.37887272357314716 13.620296636004356 283444.65096920467 6.213006157745554 0.1995218407261781
0.39469961544734705 13.528725796231342 236534.22137489446 6.543881660566591 0.20247813490561636
0.4109199508362697 13.448115680963141 197974.6813227654 6.888889025184543 0.20546104026642367
0.42752096042201515 13.377331754741077 166198.17954028133 7.248742762908752 0.20847380590026646
0.44451193248643195 13.315159347112411 139897.8783129553 7.623717549819231 0.2115122309581039
0.4618857508468419 13.26077744963048 118063.79130434382 8.014730823710105 0.21458199132959044
0.47964468085920303 13.213343637401683 99884.31927468385 8.422501441422876 0.2176849658373004
0.4977938720132223 13.172172387601721 84711.43195096854 8.847491542344931 0.22081893237060646
0.5163256461393207 13.136573052926227 71996.24179219503 9.290531651238384 0.2239866971339136
0.5352371469351563 13.106018630136141 61326.44153386434 9.752525677422351 0.2271914679128538
0.5545366277588969 13.079955742848512 52347.94107577968 10.234282281335217 0.23043459415553688
0.5742091265711875 13.05795065444484 44770.4140123104 10.736302584895109 0.2337131577588345
0.5942622705611267 13.039640046313393 38363.32324691602 11.259771002159384 0.23703259376020716
0.6146895945414474 13.024586706722653 32933.96891448268 11.8056523776319 0.24039488011589263
0.6354825653862493 13.012501729542032 28320.97590124272 12.374924522719597 0.24380164763373754
0.656646484197655 13.003089811665829 24396.37614874559 12.968317356099737 0.24725131373973774
0.6781712737848609 12.996017967637748 21050.21767929015 13.58707514546088 0.2507477464128803
0.700048946527633 12.991101503150064 18192.454459662513 14.232433138646721 0.25429402585955807
0.7222746157356609 12.988014682120456 15746.525279909865 14.905579465332524 0.2578921337224944
0.7448533928575827 12.986665154979214 13649.75350815245 15.607596757708455 0.26154250500324466
0.7677643897391506 12.98676046066418 11768.04504968828 16.339644071814252 0.2652459724660544
0.7910016494881793 12.988118589104849 10301.41085092403 17.103386334716806 0.2690077405499475
0.8145659808399749 12.990640931215966 8968.01625255288 17.90027653815405 0.2728302377877509
0.8384387328195338 12.994100269194156 7816.627833013755 18.731745562641507 0.2767151417309044
0.862611029260507 12.998359731709035 6823.196369037718 19.599004688449735 0.2806617525836344
0.8870764620001272 13.003293578546367 5963.178454859989 20.504200428372428 0.2846770015170707
0.9118270670003232 13.00878898290984 5217.844240455104 21.4491241705432 0.28876389643717804
0.9368375441010235 13.014679192334588 4571.496085025623 22.435343323220923 0.2929230391839242
0.9621062558759802 13.020871359108659 4010.1097589799447 23.46471340435838 0.29715687849645067
0.9876215460968114 13.027270077184193 3521.3951265447345 24.539734064374773 0.30147216705882524
1.0133594471813945 13.033734419180204 3096.5668054854973 25.6624457102508 0.3058712772668119
1.0393092719528814 13.040168854669052 2725.442845809809 26.834608671637614 0.31035399432503885
1.0654539579917397 13.046511785117515 2401.6949714879315 28.059410909107132 0.3149297645949437
1.091773641574913 13.052630784450473 2118.8369611459034 29.339021792582855 0.3195998342656555
1.118261736060552 13.058477367115065 1871.3639630163186 30.675961703497872 0.32436729063974457
1.1448843338811399 13.063931996989336 1654.6268700198561 32.073842716802275 0.3292416452251752
1.1716383422185441 13.068945503572095 1464.4036118385393 33.534421741956436 0.33421940920271015
1.1984850149263777 13.073411381089407 1297.4370339108182 35.06228119282208 0.33931445697295526
1.2254225083327344 13.077286800285952 1150.8358418397386 36.6596188993482 0.3445246395085367
1.2524109053556947 13.080458167957383 1021.9155036627768 38.33118812840337 0.34986260223144705
1.279444658134543 13.082908014708272 908.1919564511338 40.07951108562462 0.35532663398845565
1.3064803228589854 13.08451064170913 808.0759820803613 41.90992552023721 0.3609305186779043
1.3335073826384645 13.085235044463136 719.7685669776869 43.82570640625831 0.366675070109048
1.360507686617842 13.0850483020819 641.7353142563688 45.83190686401165 0.3725700937296868
1.387437157832686 13.083804390832913 572.7751603479866 47.93366708580711 0.37862450381198964
1.4142856460183406 13.081526700428032 511.6959906054597 50.13551336806601 0.3848428100001759
1.4410121653165806 13.078113457921805 457.6563592111689 52.443085083914205 0.3912341925379258
1.4675939235856834 13.073517429494798 409.72549760528756 54.862574263730636 0.39780921541592384
1.4939991234243335 13.067673196837651 367.20432591277444 57.40015697524668 0.404576916514754
1.5202069018945432 13.060555750118741 329.4247778136995 60.06244615998183 0.41154704190232966
1.5461868018385516 13.052091522999156 295.8177201285464 62.856530949235434 0.4187301041123749
1.5719011023767544 13.042240051102008 265.96777556815323 65.79001974241858 0.42613744517613944
1.5973172614267286 13.030927914459392 239.33902772264636 68.87108742939266 0.4337813049636899
1.6224093265238646 13.018148639296353 215.6158993232519 72.10852718591751 0.4416748954592431
1.6471614153633587 13.003840890690388 194.4612766206039 75.51180732509103 0.449832481670448
1.6715144737748404 12.987944184099804 175.55891303979274 79.091133748613 0.4582694699554364
1.6954499894615866 12.97043223679972 158.66353656177867 82.85612720364107 0.4669967931956692
1.7189140689897322 12.951222156792127 143.54963564081106 86.81971702399188 0.4760369052199159
1.7419283592925459 12.930378898232936 130.02752255825152 90.99384610333999 0.4854056794851997
1.7644083749265944 12.9077603385099 117.90299703279538 95.39184630748154 0.49512209559236137
1.7863352434042992 12.883357469234019 107.02302897691087 100.0280991066399 0.5052065709051065
1.8076788448295267 12.857136831017254 97.26890292391668 104.91871888650948 0.5156832803518083
1.8284074955385747 12.829081524039408 88.49874008266562 110.07988452650014 0.5265735153509313
1.8484845783912331 12.799134135295112 80.61572348338979 115.52969679347203 0.5379025336386185
1.8678801428970315 12.767281502099516 73.51764153245153 121.28821053029198 0.549699196603288
1.8865604852097413 12.733484928737498 67.13180591060721 127.37668560340327 0.5619928344821801
1.904494273866204 12.697716578155912 61.37376730755293 133.81797535626234 0.574814340937568
1.921648964122581 12.659960249379893 56.1800388040937 140.63674029266807 0.588196538542082
1.9379833458022016 12.620152062511318 51.48993676247345 147.86104865858857 0.6021792653997663
1.9534808542785072 12.578315000047102 47.25418024206301 155.51985611517873 0.6168000266044578
1.9681204573042885 12.534472166933389 43.42082632316323 163.64581136112483 0.6321031907266633
1.981854948168564 12.4885385339262 39.95309994716338 172.27317117281277 0.6481321925093725
1.994659882488719 12.440518719446922 36.81218486743307 181.44106897659924 0.6649399019304735
2.006511871904628 12.390412916585593 33.965726504706396 191.1912073612231 0.6825799964785588
2.0173872896116816 12.338218205663283 31.38634802572249 201.56947173823193 0.701111515024409
2.027243942463831 12.28390107018475 29.045680190798116 212.62628332889796 0.7205990061776999
2.0357559654939754 12.228164413470802 26.961997607518605 224.52703703844634 0.8792680683361558
2.0410209389246154 12.172313605002191 25.293982841338316 237.88425579004186 1.1521767661567142
2.0425499669434446 12.113994196577357 23.974024623442553 252.90426244784246 1.4324828066863236
