M[M_sun], R[km], Lambda[1], P_c[MeV/fm^3], rho_c[fm^-3]
0.24162668629717493 15.618656898711224 2160425.4255784233 3.5677272577965504 0.1711233750220791
0.2536396929032721 15.277422121052401 1723292.3902020315 3.784757971056974 0.1738874048032564
0.26603252603675887 14.981418999758517 1383209.6866624868 4.011271918681652 0.17666509539588207
0.27880377270027634 14.723748718042732 1116670.9211335457 4.247527108530237 0.17945518169111047
0.2919546434074403 14.498637528700923 906123.0531097369 4.494147776711452 0.18226421268551316
0.3054856158086796 14.301497914444363 738880.8429859992 4.751284802495617 0.1850878021188093
0.3193976640313538 14.128423376736762 605258.0142326052 5.019628160478678 0.1879327378698034
0.3336901624998311 13.97624518055771 497856.03336920904 5.299391321111295 0.1907954361625033
0.34836762423494877 13.84229556408257 411183.597850305 5.591315019479573 0.19368243938164223
0.3634238415100346 13.724281305456689 340812.635780226 5.895551184165719 0.19658852734488225
0.37887165815405377 13.620293989802079 283452.47091812576 6.212970106491333 0.19952151198214813
0.3946990831262151 13.528729016682108 236533.16774809637 6.543840579453812 0.20247777467975517
0.41091777969894644 13.44812856261078 197990.14337455924 6.888842121402633 0.2054606408141345
0.4275193208115552 13.377325956618995 166202.58961810634 7.2486895965465035 0.20847336606857694
0.44450895809753127 13.315155207827134 139909.32937769615 7.623658267940335 0.21151175903622974
0.46188274594572815 13.260797011785835 118068.67974194423 8.014664392639473 0.21458147743155187
0.47964111685530875 13.213361946919267 99887.77584880534 8.42242734341629 0.21768440872387798
0.4977911724151499 13.172202080519844 84711.36312800662 8.847410050709454 0.22081834233634692
0.5163221545979894 13.136577373294896 71998.09404155967 9.290441447638102 0.22398606209494404
0.5352323280591822 13.106016384946198 61329.08878184404 9.752426150584814 0.22719078649944138
0.554531880976728 13.079967947104022 52351.39498446519 10.234172782859288 0.23043386493840268
0.574204617661062 13.057953519295827 44771.102296601624 10.736183590599337 0.23371239377859582
0.5942557812542846 13.039655645169743 38365.03221923399 11.259640723195274 0.23703177977488182
0.61468426181015 13.024590236581856 32935.442814438065 11.805510044800913 0.24039401449480316
0.6354775565560595 13.012515215581821 28324.549867728514 12.374769318853089 0.24380072866012736
0.6566414871755928 13.003072717774621 24397.0638152357 12.968149993890222 0.24725035716597826
0.678165168730443 12.99603152689889 21050.988253030093 13.58689324925903 0.25074673366356126
0.7000430793140607 12.991095844209806 18192.851893272924 14.232235733708588 0.25429295492813436
0.7222684976297791 12.98800928060443 15747.714260075361 14.905365514308144 0.2578910024827791
0.7448470433262213 12.986656107176934 13650.527884851934 15.607367243358283 0.2615413318781295
0.7677578996993236 12.986747318708055 11850.03252680244 16.3393958873481 0.26524473532873744
0.7909935613076557 12.988118134277213 10301.883369750738 17.103118235272323 0.2690064368731351
0.8145562933686358 12.990646524562449 8968.111027811603 17.899987196366084 0.272828864881656
0.838431267205935 12.994095689015687 7817.393361924337 18.73143626157063 0.27671372065252037
0.8626018886330118 12.99835793766756 6823.557132782695 19.598671408266426 0.2806602573656407
0.8870676427542803 13.003289838590279 5963.477186130993 20.50384156596611 0.2846754289263637
0.9118182740268133 13.008780478899217 5218.171280641992 21.448738013066468 0.2887622430226889
0.9368273161465346 13.014682161769676 4571.637158073737 22.434931478793306 0.29292132861664055
0.9620963071068612 13.020869101559672 4010.2958350280505 23.46427070717326 0.29715508057164375
0.9876097588913287 13.027261734899241 3521.5620043719405 24.539258431985868 0.30147027759713746
1.0133479104906284 13.033727482435452 3096.730999045474 25.661938983137283 0.3058693217092907
1.0392970178876737 13.040171268859677 2725.4890485989367 26.834064658193313 0.31035193914020653
1.065441705505014 13.046506676057758 2401.767317058392 28.058827064442795 0.3149276046996552
1.0917605066066598 13.05263389341014 2118.9634375315177 29.338400185143563 0.31959759686054295
1.1182490799423592 13.058470529331347 1862.4194783233982 30.67529491602532 0.3243649385037284
1.1448711909178126 13.063933455589575 1654.7070949267663 32.07312762293436 0.32923917215240156
1.1716247955797299 13.068951379638962 1464.3916259221705 33.533660624112535 0.3342168441571016
1.198471065812945 13.073404611131936 1297.5254122047493 35.06146515939833 0.3393117585716501
1.225408114667951 13.077282288909238 1150.9245763369017 36.65875031731431 0.3445218375973489
1.2523956567588053 13.080458384221574 1021.9720222948713 38.33025701033556 0.3498596526535296
1.2794304618627361 13.082905472549427 908.2517004520679 40.07851985756966 0.3553235674600015
1.3064655545880854 13.084509913857811 808.1223699127501 41.908870087371895 0.3609273279444551
1.3334947502184238 13.085226096832244 719.862978767403 43.82457494303026 0.36667170681518446
1.3604966312265712 13.085044349697839 641.8138146595646 45.830701739937176 0.37256658939258197
1.3874206820601327 13.08380161438166 572.8178944727749 47.93238315674007 0.3786208493354035
1.4142694145788894 13.081532708845499 511.714440164894 50.13413656485478 0.38483895204585117
1.4409956558610377 13.078115001937833 457.6852749824137 52.44161759092184 0.39123016335199085
1.467577155077596 13.073521556105854 409.7588717061018 54.86100958741 0.3978050035886696
1.4939814090457904 13.067679497050305 367.2048750268265 57.39848809627882 0.4045725097548074
1.5201897621819267 13.060559528895 329.44584760492756 60.06066548622337 0.411542426964288
1.5461696516524996 13.05209890921799 295.83529196375156 62.85463026397323 0.4187252667172714
1.571883791473396 13.042247509463095 265.97883061424255 65.7879901474094 0.42613236992397135
1.5973000893388525 13.030936066276452 239.3439979755969 68.8689192821012 0.43377597523714834
1.622391997834798 13.018159230160288 215.63173170566145 72.10621003029645 0.4416692933176869
1.6471438591065979 13.003851506348077 194.46183287987088 75.50932981516154 0.4498265877330385
1.6714972331894047 12.987957729195845 175.56963101484217 79.08848356401596 0.4582632632722312
1.695432598126598 12.970446772651844 158.67926706043912 82.85330448531666 0.4669903065971808
1.7188961762811472 12.951233624736673 143.56356538796393 86.81669432711999 0.4760300602986962
1.7419118809223342 12.930394942401641 130.03946578639508 90.99062216931262 0.48539850741867624
1.7643913359020498 12.907778904227731 117.91108005613528 95.38839010464604 0.49511451191160766
1.7863196206079683 12.883377215818603 107.03431254293001 100.02440762637254 0.5051986048508398
1.8076624459237085 12.857158668771527 97.27377314027713 104.91477300132897 0.5156749012563566
1.8283924642986824 12.829103707903695 88.50757572766643 110.07564669409187 0.5265646279449648
1.8484694131812196 12.799159506718574 80.62032605890992 115.52516037071284 0.5378931629545972
1.8678651638686832 12.767307973798111 73.52477375250933 121.2833505886863 0.5496893035431487
1.8865452498006485 12.733513943477652 67.13806974974572 127.3714748801264 0.5619823766021405
1.9044796963115973 12.697747471793038 61.37828776322996 133.81240315429648 0.574803339680734
1.9216356574287767 12.659992449605246 56.18435143084542 140.63075550874956 0.5881848779071104
1.9379683542202268 12.620189918088291 51.49176597720374 147.8546154848092 0.6021668908699312
1.9534685402055636 12.578355277134584 47.25702708486802 155.51295638948474 0.6167869509335954
1.9681079409109028 12.534512829875574 43.423351918884194 163.6383816446924 0.6320892790727838
1.98184354003637 12.488580129173094 39.9565449537398 172.2651866486406 0.6481174499584984
1.9946483260860237 12.440564330439472 36.81508055757551 181.43247905924036 0.6649242552768984
2.006501861715665 12.39045860681518 33.97015547896867 191.18195632056373 0.682563365771816
2.0173757873923552 12.338268678676874 31.386603207690854 201.55949810074398 0.7010938128016861
2.027234486590528 12.283954302325103 29.046992005964025 212.61554433058978 0.7205802189426536
2.03606997617003 12.227558855959062 26.92035229700551 224.40408443149167 0.7410883806677154
2.043840525842307 12.169040334707153 24.987996395682785 236.98740870060576 0.7626995483227867
2.050526611644746 12.108410592878194 23.231382061405625 250.43085511318807 0.7854918084584929
2.0561214403292647 12.04571000957375 21.632790246375315 264.8084308844278 0.8095568152084034
2.0606029700137167 11.980961327736988 20.17906579063035 280.2014176761666 0.8349933778528944
2.06394518022302 11.91415382758711 18.85482644736238 296.69896340019193 0.8619072625190095
2.0661313204688887 11.845315566923336 17.649202717613825 314.40051489958404 0.89041669330937
2.0671563668921764 11.774504139171647 16.5521053736752 333.4162767685143 0.9206510591898318
