M[M_sun], R[km], Lambda[1], P_c[MeV/fm^3], rho_c[fm^-3]
0.24162668629717493 15.618656898711224 2160425.4255784233 3.5677272577965504 0.1711233750220791
0.2536402583550269 15.277412462561507 1723245.4408200188 3.7847687885795476 0.17388753963845674
0.26603389187734605 14.98139487850384 1383192.3004701426 4.011294658818924 0.1766653701970207
0.27880568891044705 14.723727780134777 1116636.6605626312 4.247562540148997 0.17945559264449376
0.2919573619204451 14.498601868580318 906053.306546033 4.494196829080741 0.18226475889502963
0.30548884858000286 14.301458489043286 738809.6665282949 4.751349140609206 0.1850884970932272
0.31940188540059805 14.12835644439807 605206.5994610685 5.01970825775716 0.18793356890998236
0.33369540964755434 13.976184115716844 497836.2887998733 5.299489285631372 0.19079642250266796
0.34837224483111845 13.842269234383199 411137.06033618236 5.591431095309638 0.19368356244722945
0.36343044265519325 13.724235972179544 340780.5846110033 5.895687978315593 0.1965898121444866
0.37887876982907437 13.620262955649089 283428.7400542607 6.2131292735931085 0.19952296339446665
0.3947072680407095 13.528680876100346 236520.43821893565 6.5440219537292 0.20247936508712566
0.4109280353794453 13.448101661991014 197966.6771613602 6.889049203214432 0.2054624044097423
0.4275310190633715 13.37728115694958 166170.5950355309 7.2489243281897995 0.20847530794330535
0.4445205341577155 13.315109337781514 139878.63718013914 7.623920000160702 0.21151384259299713
0.46189621712533524 13.26074977130398 118048.60205343035 8.01495768926787 0.21458374631809268
0.47965548622425175 13.213317126458072 99874.66615167617 8.422754490407142 0.2176868684119061
0.4978057271722935 13.172148529260285 84696.71522421218 8.84776984142693 0.22082094737486818
0.5163384808692811 13.13655008994504 71989.53934056716 9.290839702761142 0.22398886583583857
0.5352499102888089 13.10598420660465 61319.19508878449 9.752865569027657 0.22719379499069883
0.5545507114359294 13.079928530597117 52339.9350790864 10.234656227473058 0.23043708449093805
0.5742261671269944 13.057947929727357 44765.61147976454 10.736708960621991 0.23371576681688053
0.5942765951084229 13.039605632316448 38357.90224536969 11.260215916751784 0.23703537359463178
0.614707639343916 13.024572957875106 32929.15067549376 11.806138458107407 0.24039783629619108
0.6355025606206963 13.012483956662601 28318.404916505562 12.375454559932336 0.2438047860234045
0.656667107092538 13.003065936287287 24392.622504583767 12.968888916122488 0.24725458054244856
0.6781914539531282 12.99601858945736 21047.039926807945 13.587696341684735 0.25075120506702625
0.7000721935872002 12.991088814471631 18189.696304647303 14.233107300107104 0.2542976832183831
0.7222986674354266 12.988026207407069 15744.26207163306 14.906310134890001 0.25789599704787275
0.7448792416562321 12.986657199919135 13647.76829058772 15.608380579069781 0.2615465113781145
0.7677917420161486 12.986757841886645 11847.807679764994 16.340491655482957 0.26525019745806155
0.7910289715108173 12.988127359798336 10300.081743695886 17.104301932294458 0.26901219279092026
0.8145951172408377 12.990646691467296 8966.575139231034 17.90126468302472 0.2728349264645065
0.8384678016233373 12.994110192582864 7815.299622546847 18.732801872875307 0.2767199949298791
0.8626433890001166 12.998365927250074 6822.232910607206 19.600142892948544 0.28066685898939253
0.8871075622856455 13.003309442258297 5962.061641590641 20.505426002313 0.28468237217210657
0.911860895634429 13.008795466315885 5216.889319334658 21.45044296390419 0.28876954312844444
0.9368726227152934 13.014680837427607 4570.5526639889695 22.43674984385442 0.29292888106988435
0.9621437310119725 13.020875513990902 4009.5314208565637 23.466225295187208 0.29716301873433304
0.9876589118917896 13.027278559992201 3501.548962144117 24.541358437731866 0.30147861992304675
1.0133994139396172 13.033734501163197 3095.855607621016 25.664176280360902 0.3058779558701558
1.0393498837886619 13.040182002256294 2724.9212183296618 26.836466585023544 0.3103610131872573
1.0654954168788893 13.046519673130856 2401.376846734 28.06140485757218 0.31493714107735116
1.0918169972939942 13.052633060034777 2118.5472396246982 29.341144711717384 0.31960747547106083
1.1183069765137201 13.058483714580834 1871.0521940405401 30.678238926053695 0.3243753236898706
1.144931560629938 13.063941697088032 1654.1735994244032 32.07628492061466 0.3292500913159991
1.1716853502340396 13.068959589840391 1464.0662928443048 33.53702113175311 0.3342281694143332
1.1985324957011216 13.073417087603056 1297.1775606237345 35.065068137045344 0.3393236726419593
1.2254715203288744 13.07729238832387 1150.5929213559361 36.66258531390738 0.34453420870271345
1.252460638339484 13.08045859760882 1021.5812724596541 38.33436812459401 0.3498726757622545
1.2794962392345524 13.082911269472108 907.9857418039817 40.082896377535924 0.3553371069506763
1.3065326097310241 13.084508726812407 807.9699038572934 41.913530093483665 0.3609414158489188
1.3335634916988188 13.085228357870733 719.60900724576 43.82957065045772 0.36668655664124855
1.3605666102361953 13.085038886215944 641.5578126016811 45.836022686251056 0.3725820619816668
1.3874915449907144 13.08379994148506 572.6291486923377 47.93805205573418 0.37863698485190117
1.4143415903165426 13.081521255636805 511.56626432219275 50.14021553861385 0.38485598600024085
1.4410682301939994 13.078105270751905 457.5529800475762 52.448096994477474 0.3912479533665319
1.4676510316505194 13.073508327930044 409.6371001563797 54.86791809297025 0.39782360004317013
1.494056752405409 13.067658326192094 367.1129279143891 57.40585669765893 0.4045919669221933
1.520265473660117 13.060535326068335 329.33400735547696 60.06852770661877 0.4115628033301563
1.5462460988304305 13.052070688204292 295.7507280795611 62.86302238445448 0.41874662533109935
1.5719599142037435 13.042214208003143 265.87367916392014 65.79695145844681 0.4261547787853775
1.5973762466647272 13.03090177432202 239.273615948107 68.87849236070771 0.433799507721004
1.6224682390467715 13.018115497480933 215.57909310106163 72.11644104569174 0.44169402864231816
1.6472204441899019 13.003805481082493 194.4074403847858 75.52026886622485 0.4498526114762811
1.6715698755268553 12.987903748759797 175.50755241979107 79.10016943721827 0.45829060272281075
1.6955090704824842 12.970385284941472 158.62395685827107 82.86576778792049 0.4670189472302654
1.7189788336485299 12.951200893373612 143.50507542896645 86.8300406294148 0.47606028310688825
1.7419878657231949 12.930319958233982 129.9908344384453 91.00485702837636 0.4854301747404298
1.764466247904861 12.907694483147065 117.87165171873059 95.40365054448554 0.49514799672410614
1.7863931073398798 12.88329156829623 106.9883876637013 100.04070693143566 0.5052337780440407
1.8077353940216365 12.85706817248674 97.23543321021863 104.93219563127111 0.515711898247558
1.8284627789245265 12.829000559702486 88.47563097625815 110.09435842290111 0.526603869404806
1.8485395307341361 12.79904982972146 80.59466452260557 115.54519053153983 0.5379345383549886
1.8679329545434213 12.767188851121722 73.50193660102794 121.30480925722121 0.5497329855285611
1.8866124095475105 12.733385113077762 67.11501200921046 127.39448244002037 0.562028552591267
1.9045450091026828 12.697611288088472 61.35652412176035 133.83700683898016 0.5748519149936759
1.9216971812577939 12.659846439770462 56.16490914050745 140.65718097541878 0.5882363647652792
1.93802984876021 12.62003269406835 51.47587234110289 147.88302085084945 0.6022215300047647
1.953525399247261 12.57818967378349 47.23829402911742 155.54342185208756 0.6168446860348635
1.9681632734225118 12.534336413614122 43.408508166379455 163.67118733399386 0.6321507055618013
1.9818958910270157 12.488395193904772 39.94280409224704 172.30044214879604 0.6481825453847787
1.9946977915396191 12.44036981473511 36.8034101315723 181.4704077430848 0.6649933429004319
2.0065477687297193 12.390250489956133 33.959341732508435 191.2228042793931 0.6826367986373011
2.01741844018939 12.338049858547345 31.377776655929832 201.60353678843524 0.7011719771282798
2.027273320193291 12.283723728159746 29.037787458544685 212.66296258194512 0.7206631743364559
2.0361040464999296 12.227317810370502 26.911759897123055 224.45532071908627 0.7411769438105857
2.0438711289298954 12.168786622947234 24.980056383108643 237.0427124385053 0.7627938462761934
2.0505532510542412 12.108145829644714 23.22333393853532 250.49074541264875 0.7855927699658461
2.0561441338875794 12.045431425635625 21.62576586136354 264.8732336200641 0.8096646507254618
2.0606201646599103 11.98066884155647 20.171857135554482 280.2716251746866 0.8351087397451287
2.063957825739835 11.913851126714462 18.84953931696595 296.7749934274024 0.8620304447862355
2.066138816228158 11.845001095838056 17.644276757620105 314.483103608221 0.890548901587949
2.067158609164158 11.77417698310695 16.547245804726867 333.5059683733193 0.9207927199151066
