M[M_sun], R[km], Lambda[1], P_c[MeV/fm^3], rho_c[fm^-3]
0.24162668629717493 15.618656898711224 2160425.4255784233 3.5677272577965504 0.1711233750220791
0.2536450671361414 15.277284025289397 1723069.3245982847 3.784854712626447 0.1738886106402502
0.26604325845075416 14.981198630392411 1382895.8806739221 4.011475287982398 0.17666755299386122
0.2788210579832897 14.72340172019444 1116385.4261973072 4.247843985053195 0.17945885698125405
0.2919779664522099 14.498271180473639 905747.8481085559 4.494586474700212 0.18226909768943447
0.3055152843860693 14.30110484686587 738515.01433804 4.7518602168001465 0.18509401769149292
0.3194348591927922 14.127977210712809 604992.1435866917 5.020344528851921 0.1879401704681686
0.33373541351578456 13.975777949091347 497557.3681646247 5.3002675023876735 0.1908042578541088
0.3484187957593005 13.841877428761272 410913.6159179916 5.592353200344606 0.19369248406710513
0.3634845308992906 13.723830383932548 340557.6703950907 5.896774687358994 0.19660001874579436
0.37894005188771945 13.619864402632844 279308.0594030622 6.214393736730063 0.19953449377576293
0.39477598957027726 13.528303625788178 236350.0358080748 6.545462857727959 0.20249199986862884
0.41100395396260225 13.44772685958863 197800.48659724658 6.890694363741148 0.20547641528715266
0.4276151412113584 13.376927048008335 166026.28666115477 7.2507891824221025 0.208490735404448
0.44461369331689293 13.314806932570596 139748.21048880383 7.6259993934725525 0.21153039590080497
0.4619969101904317 13.260473982361153 117934.47520831041 8.017287890011913 0.21460177230473423
0.47976627253313525 13.21305844366175 99772.67254135152 8.42535366813892 0.21770641059486523
0.4979277315157944 13.171885659916974 84607.37634376914 8.850628412280187 0.22084164464921913
0.5164700881395031 13.136309343509202 71908.14164459752 9.294003925662826 0.22401114216233273
0.5353918840992845 13.105768608948033 61249.57387369592 9.75635689701395 0.22721769847016057
0.5547030211617487 13.079731507618584 52278.50150212577 10.23848964088674 0.23046256532978504
0.5743894568589245 13.057777648845395 44707.85302227003 10.740883321789548 0.2337425675086315
0.594449408956286 13.03946668537854 38307.06444002201 11.26478622337818 0.23706392895313916
0.6148910491172455 13.024479495579408 32885.41277210899 11.811131707795038 0.24042820358534503
0.6357003729173195 13.012412094246653 28277.35399252354 12.38089943452792 0.24383702552991082
0.6568748497559461 13.002995544128103 24356.941945796116 12.974760412005232 0.24728813960519413
0.6784108500724512 12.995960547039477 21016.052549791988 13.594077831896884 0.250786735494824
0.7003046201897892 12.991038027124164 18162.117100297102 14.24003299910034 0.2543352554734302
0.7225403349898142 12.988017027990184 15718.917805278625 14.913816455373395 0.2579356857937974
0.7451354057430636 12.986649946205512 13625.712500817488 15.61643303726745 0.2615876702030144
0.7680602605571968 12.9867604471641 11828.616950239884 16.349199293445576 0.2652936028493542
0.7913117170533174 12.988141038312152 10283.296119614313 17.11370844916097 0.26905793349712825
0.8148885756768082 12.990686372024161 8950.373247489013 17.91141667502099 0.27288309694062657
0.8387772262752078 12.994145027812015 7802.620696739659 18.743654313011156 0.2767698562771
0.8629632992574436 12.998424222884779 6809.5343250200285 19.61183688205804 0.28071932254351384
0.8874478497719569 13.003383450900467 5951.2161357203295 20.518017819661228 0.28473755146811863
0.9122103571107241 13.008870705609784 5207.553213064009 21.463992742474062 0.28882755935644105
0.9372344527407872 13.01476908116512 4562.281323172859 22.451201142131698 0.2929889035356067
0.962522343028582 13.02098588800413 4001.5818456316397 23.48175945632709 0.29722610757837115
0.9880491587196814 13.027367074103669 3513.8955109159433 24.558048574574475 0.3015449219135425
1.013796275270215 13.033827276083453 3089.8646876678577 25.681957790234602 0.3059465781412839
1.0397645881224105 13.040283068134329 2719.380983967133 26.855556837058987 0.31043313272187417
1.0659209632624018 13.04661358063567 2396.4945724476206 28.081893206104617 0.31501293638758937
1.0922573248554353 13.052736771989535 2113.9580612220498 29.362958545784647 0.31968599187994057
1.1187605378395518 13.058577721702324 1866.9087639403272 30.701638663262884 0.32445786777914115
1.1453975137033956 13.06403179103246 1650.6765899230422 32.101202106002525 0.32933572830939495
1.172163958411006 13.06903356401281 1460.9330181070009 33.56373210132681 0.3343181881358128
1.1990248298254638 13.073487304066914 1294.4358824813864 35.09370686352989 0.3394183731464674
1.2259756085357671 13.077352301246979 1148.0834173352546 36.69306869467415 0.34463254337034116
1.252975790902445 13.080520050984367 1019.3593536572757 38.366950495057516 0.3499756295834883
1.2800215927786018 13.082948031932778 905.9254749086319 40.11768528616503 0.35544473221175127
1.307075570934189 13.084555155479048 806.0566947576136 41.950572967113914 0.3610534020678738
1.3341094179605366 13.085238378961357 717.9149072700033 43.869282767116815 0.36680460158955375
1.3611195038517694 13.085029428499004 640.0340825206865 45.87832084149227 0.3727050592713382
1.3880611477355005 13.083776712498311 571.2582302244023 47.98311690254541 0.378765253953175
1.4149084662384894 13.081446810497425 510.345093638885 50.18854118437205 0.38499139978525154
1.441641526351554 13.077999432811636 456.462415729154 52.49960672926421 0.39138937979922644
1.4682385025444542 13.073392182694265 408.6422519472428 54.922839976467316 0.3979714398760589
1.494649324215178 13.067514260163458 366.185197229648 57.464437261713506 0.4047466518863503
1.520863144787389 13.060355703660681 328.53507928199946 60.13103360901081 0.41172479867905504
1.5468488807391036 13.051859431675037 295.02116622700174 62.929742227670324 0.41891643263654643
1.5725667468090556 13.041962976160884 265.208548899723 65.86819779183271 0.42633293901258906
1.5979798237120515 13.030615958624312 238.6725088689223 68.95460388661252 0.4339866046130496
1.6230899662429443 13.017795115143281 215.0220271089284 72.19778505274235 0.44189069244776324
1.6478315189332893 13.003428297101776 193.89833859121404 75.60724391574703 0.45005952305793223
1.6721793596458665 12.987480275573734 175.06577162630808 79.19275423053104 0.4585066019863706
1.6961166082362162 12.969913416303285 158.20587453777813 82.96486554023836 0.46724667357647237
1.719596020055078 12.950681876266774 143.13862170174954 86.9361614153476 0.476300594474606
1.7425806097088854 12.929731580969596 129.65009595947248 91.11804502195866 0.48568197636314764
1.7650565536621865 12.9070551535913 117.55704677284902 95.52499600503577 0.49541425575967807
1.7869672620131853 12.88256681115572 106.7222297327349 100.170315514168 0.5055134677426679
1.8083166384541747 12.856319864474475 96.9877446273043 105.0707393524675 0.5160060961299175
1.8290285029658289 12.828173991104046 88.24073639505015 110.24283064386978 0.5269147101064866
1.8490996604077932 12.798173625145132 80.388252533091 115.7044761725718 0.5382635675241116
1.8684703505508629 12.766211087242043 73.31393353949655 121.47545846284387 0.5500803647752516
1.887145463961438 12.732369510742028 66.93852066380765 127.57722222049999 0.5623949483690053
1.9050631772453372 12.696525795855154 61.1959470200535 134.0326749109653 0.5752382245221718
1.9221807884544067 12.658664099286055 56.02019125037757 141.4108681035529 0.5896868891920071
1.9222203822099044 12.631159540799516 54.81114455604678 151.95812055505866 2.9131134759285304
