M[M_sun], R[km], Lambda[1], P_c[MeV/fm^3], rho_c[fm^-3]
0.24162668629717493 15.618656898711224 2160425.4255784233 3.5677272577965504 0.1711233750220791
0.2536420403195891 15.277346487595047 1723144.2632033213 3.784804451724085 0.17388798416234894
0.26603812970367074 14.98127300666619 1383068.2405681605 4.011369629022375 0.176666276167685
0.278811645711224 14.72361028591979 1116412.5094159604 4.247679352901238 0.1794569474963867
0.2919656951842739 14.498477966601484 905985.7973763511 4.494358548738388 0.1822665596809507
0.3054996470278143 14.301323173702297 738713.6740677307 4.7515612572588735 0.18509078835787432
0.31941521134053885 14.12821115058746 605153.6200915352 5.0199723329531505 0.18793630879206444
0.33371185673914644 13.976025389190138 497733.2687199776 5.299812270507536 0.1907996744244421
0.34839197549257045 13.842053868608227 411039.45382344 5.5918137953010785 0.1936872651749238
0.3634536958867898 13.724048581730978 340685.74136039807 5.896138989819725 0.1965940481399776
0.3789051374707881 13.620072871862977 283326.7117923479 6.2136540530410995 0.19952774875115675
0.39473641320986114 13.528521647766027 236437.0178480499 6.544619955292424 0.20248460875297458
0.41095939271347504 13.447939618045256 197906.18727119273 6.889731969287643 0.20546821913213345
0.42756450882633024 13.37713989530292 166108.87546428328 7.249698264003068 0.20848171051594577
0.44455898186398995 13.31498669945218 139830.45436452286 7.624782965740193 0.21152071235389494
0.4619393159814267 13.260644141305628 118007.57045493099 8.015924734143171 0.21459122719202534
0.4797017026708046 13.21323238210318 99832.68375793488 8.423833153315975 0.21769497844903743
0.49785648272134064 13.17204087740551 84662.87257658508 8.8489561444378 0.22082953671553518
0.5163928341618715 13.136457142667888 71953.57638149904 9.292152840443274 0.22399811040698536
0.5353100843650672 13.105882677394954 61292.00368872897 9.754314442224748 0.2272037147435394
0.5546131209635018 13.079869508313202 52313.42194517592 10.236250277767095 0.23044770024405528
0.5742942958285322 13.057875109608348 44742.045255661746 10.738441261502548 0.23372688872513336
0.5943471717090002 13.039564524022449 38337.55517706944 11.26211251444149 0.23704722357131847
0.6147832367949212 13.02454288317563 32910.40108472385 11.808210553480299 0.24041043809327306
0.6355833146077499 13.012445458952723 28301.41851479607 12.377714052515113 0.24381816464664818
0.6567535644359841 13.003040877105247 24377.638064601462 12.971325430186834 0.24726850665770075
0.6782828104484968 12.995986462617195 21034.345945485773 13.590344469029013 0.25076594913060346
0.7001690358024943 12.991071656988158 18041.83084313106 14.235981235256252 0.25431327445682966
0.7223998515071638 12.987998193742829 15734.964099258888 14.909424984214569 0.2579124664304031
0.7449861557307087 12.986652640877205 13638.991021833956 15.611722033917275 0.2615635906788203
0.7679031921409082 12.986754221672186 11839.438467572256 16.344104955891602 0.26526820885435165
0.7911457671510107 12.988127929895178 10293.478009687538 17.108205207045753 0.2690311730942761
0.8147175182235497 12.990659481358518 8959.354544271815 17.905477262581936 0.2728549148532916
0.8385973490331216 12.99411818006995 7809.843298681513 18.737305075004468 0.2767406848136432
0.8627757489407838 12.998390449239107 6817.190513057197 19.60499525586339 0.28068862848156634
0.8872477282979653 13.00333178507105 5957.352697413101 20.510650872857703 0.2847052683649624
0.9120055338661761 13.008827069989685 5213.144251600001 21.45606528734487 0.2887936162892657
0.9370232083640125 13.014714020063439 4566.994827080583 22.44274620334217 0.2929537865333871
0.9622981944435719 13.020920345509388 4006.203664547887 23.472670920781525 0.29718919633505353
0.9878199760069198 13.027313756451475 3517.7995113600864 24.548283658337546 0.3015061305369565
1.0135607998354768 13.03376995951314 3093.435295025975 25.67155429432891 0.3059064290469836
1.039520676697188 13.04023268957401 2722.5812264997744 26.844387564630548 0.3103909372218853
1.065670286272605 13.046552940393132 2399.350834926582 28.06990586797341 0.3149685900113479
1.0920005110675315 13.052680843767062 2116.631040586967 29.3501956301539 0.31964005322014005
1.1184957816192886 13.058516186724091 1869.405275128435 30.687947778952623 0.32440957229758954
1.1451234067692657 13.063976770901304 1652.805771753469 32.08662794052632 0.3292856529123163
1.1718835939520784 13.068987975639676 1462.7935351853125 33.548103684363305 0.33426551875928856
1.1987372942844734 13.073447681818477 1296.0051261890465 35.076950423600955 0.33936296414230355
1.2256800718223353 13.077318205472086 1149.5985539139047 36.67523286159068 0.34457500773374145
1.252673593839577 13.080487747124023 1020.6751291469199 38.347926402024854 0.3499156254128855
1.279711953226849 13.082929745439833 907.1107854080394 40.097330050405766 0.355381759912557
1.3067552997298784 13.084522372970183 807.1357792280072 41.9288988048071 0.3609878777915991
1.3337893275936468 13.08522742661304 718.8749494771104 43.8460466486791 0.3667355318287213
1.3607976238325472 13.085036741969763 640.9316836828422 45.85357145877649 0.3726330914283502
1.3877261801440819 13.083785554443196 572.0791197908082 47.956748532372885 0.3786902010597689
1.4145799872069704 13.081497998816154 511.07333019939006 50.160264656430684 0.38491216583782206
1.4413017382138087 13.078049649232781 457.0624749915062 52.469466936157694 0.39130662721976056
1.4678946262396908 13.073458054824622 409.2036293688799 54.89070344768298 0.39788493412020015
1.4943031750071645 13.067598257942745 366.71168512010973 57.43015971472092 0.404656140277022
1.5205134359734704 13.06046278032296 328.99833470312393 60.09445898115792 0.4116300089172385
1.5464959194679317 13.051982528134326 295.43569447927746 62.89070161147474 0.41881707116446204
1.5722127944041828 13.042108293876723 265.5971822745386 65.82650826290687 0.42622868921343743
1.5976343394813413 13.030791851534598 239.03911382464534 68.91006721215653 0.4338771248296173
1.6227153107313024 13.017952522964913 215.34199080632354 72.15018626705115 0.44177561380007907
1.647473894657061 13.003650007070252 194.19927549453197 75.55634974750116 0.44993844703778135
1.6718232749455426 12.987726396146476 175.32899884377068 79.13857715232685 0.45838020748274627
1.6957608198834095 12.970188321865699 158.44750058543954 82.9068769035111 0.46711341585816346
1.719225372410174 12.950955843393682 143.35987236086459 86.8740626725729 0.4761599713753841
1.7422286112598782 12.930063417355099 129.84783406620323 91.05181032640023 0.48553462854564516
1.7647096248620147 12.907425169118154 117.74229327590812 95.45398721033486 0.49525844660861085
1.7866377182943367 12.883002457859128 106.87878366726396 100.09447078835036 0.5053497981147838
1.8079775494581485 12.856759241244141 97.1357519863711 104.98966535444555 0.5158339353251802
1.8286901079879279 12.828638328735815 88.37875082781795 110.15608101144419 0.5267333114517863
1.8487718386524925 12.798686771338952 80.50852467866494 115.61126276403182 0.5380710207875425
1.8681604031106465 12.766796644676475 73.41962881927225 121.37559434695272 0.549877078031413
1.8868341506952675 12.732960703808892 67.04209671677508 127.47037761977127 0.5621808736114489
1.9047599035231335 12.697160467116966 61.28895249043477 133.9181679463031 0.5750121522198316
1.9219060041990939 12.659364649352659 56.10493789422495 140.74435265375257 0.5884062083443873
1.9382237781803324 12.619491909726086 51.41908722995232 147.97672487063127 0.6024017743488809
1.9537258310320726 12.577673023115965 47.19105212699734 155.64392283360203 0.6170351454551235
1.9683461165644995 12.533757796518948 43.362300680876004 163.77940563084567 0.6323533309930867
1.982068798035084 12.487781503863939 39.89897688897957 172.4167475539854 0.648397290598891
1.9948627145851754 12.439721744360149 36.763918073872794 181.59553330806477 0.6652212608520072
2.0066988472218217 12.38956843398382 33.922800008903806 191.35756213781707 0.6828790544555673
2.0175581969715273 12.337328343552434 31.34372713791296 201.74882279202112 0.7014298454533622
2.0274018807636742 12.282962836847707 29.006755972962925 212.81939989031926 0.7209368520481096
2.036219407351188 12.226519045028173 26.883792735881446 224.62435646729978 0.7414691261255432
2.0439718053661267 12.167946943359253 24.954583414806905 237.2251697433334 0.7631049527417388
2.0506397613435965 12.107264226446873 23.19944690117177 250.688337621476 0.785925865766403
2.056214590744446 12.04451949781363 21.60380489715534 265.0870362420348 0.8100204307100916
2.060677900320989 11.979716594127122 20.152058610514207 280.50314950956385 0.835488986097128
2.063997197088599 11.912855075154274 18.83068981254151 297.02584563153727 0.8624368703049116
2.066161768950911 11.843963710913005 17.62634242094707 314.75559991160355 0.8909851145737665
2.067165102103076 11.773097301321878 16.531259810819453 333.8019050512893 0.9212601282587051
