M[M_sun], R[km], Lambda[1], P_c[MeV/fm^3], rho_c[fm^-3]
0.24162668629717493 15.618656898711224 2160425.4255784233 3.5677272577965504 0.1711233750220791
0.2536444306198356 15.277293851959682 1723109.533624375 3.784827790584507 0.17388827506998505
0.2660409292017411 14.981241924580923 1382898.8515782086 4.011418691955212 0.17666686906427337
0.27881670971451594 14.723467636201754 1116374.993504288 4.247755799771811 0.17945783416488237
0.29197103606388797 14.498381481319427 905871.8470434765 4.494464385560213 0.18226773819852518
0.3055076818607482 14.30119115952132 738663.760971255 4.751700077668067 0.18509228788323634
0.31942341718548756 14.128136280952157 605089.8230821658 5.020145159521641 0.18793810193441743
0.33372332649304803 13.975884064323477 497666.3552298283 5.300023653261905 0.19080180269803118
0.3484043159986165 13.841999677095627 410989.51025860914 5.5920642619963 0.19368968850910107
0.36346721027885054 13.723956934751904 340647.03077202284 5.896434167503183 0.1965968205112469
0.37892184489987124 13.619972761473731 283288.4684897338 6.213997513743435 0.19953088069920843
0.3947544835316481 13.528421991049743 236395.90255242048 6.545011342398132 0.20248804068915358
0.41097990814892227 13.447864865202497 197859.42598485132 6.890178838440976 0.20547202485736457
0.4275903168470106 13.377002760585937 166065.73229896056 7.250204808512576 0.2084859010288567
0.44458471749307105 13.31489594725127 139794.57567411437 7.625347785555666 0.21152520868280406
0.4619663702670827 13.260549344700449 117975.01529840728 8.016557680979579 0.21459612354752047
0.479731646326158 13.213132891993766 99805.67256740964 8.424539162721436 0.21770028665278343
0.49789019091454895 13.171989202818754 84638.8088039852 8.849732613235558 0.22083515868139053
0.5164288054365364 13.136382060158004 71935.57580962124 9.293012334188914 0.22400416129653786
0.5353479985869507 13.105827139629715 61270.73080718047 9.755262788413367 0.22721020762353555
0.5546553779789615 13.079791779101212 52300.87216666983 10.237293657992653 0.23045464874933358
0.5743387320005576 13.05782670818398 44726.68670304074 10.739575142275669 0.2337341685909291
0.594395771826945 13.039513701892885 38322.426321406725 11.263353947490307 0.2370549800674728
0.6148339275791364 13.024491940211329 32898.47215056612 11.809566872469976 0.24041868677569855
0.635639817206441 13.012418395517763 28289.21426635133 12.379193048634017 0.24382692189241412
0.6568100806713492 13.003008718502194 24368.527424275093 12.97292031165915 0.24727762234618458
0.6783426737430808 12.995976798145636 21025.590516599783 13.59207788323232 0.250775600316478
0.7002306345151572 12.991053546362972 18170.815617835113 14.237862476307585 0.25432348028134716
0.7224667870821753 12.988006098728066 15728.218281619806 14.911463943388593 0.2579232471761476
0.7450551329751843 12.98663965481758 13632.710892492374 15.61390934420874 0.26157477075813
0.7679760592668167 12.986750569724114 11834.734195681576 16.34647023760352 0.2652799991904524
0.7912228158538605 12.988145346913447 10288.128728857619 17.110760330817957 0.26904359779594283
0.8147980795038307 12.990656958463036 8896.862188719762 17.908234886053915 0.27286799957948665
0.8386814402373878 12.994124298472267 7806.524718981278 18.740252967126324 0.2767542288526628
0.8628614766025182 12.998411169972771 6813.261924791346 19.60817174571345 0.2807028793882162
0.8873446377731654 13.003360804410235 5954.721300615868 20.51407124849786 0.2847202569813552
0.9120997179658664 13.008849889720752 5210.573945926997 21.45974588371429 0.28880937553706676
0.9371213400443236 13.014756743336408 4564.716505676402 22.446671688610614 0.29297009076435987
0.9624058297937866 13.020955766090477 4003.9497311535492 23.47689055596543 0.2972063335273112
0.9879263772290341 13.027336902495172 3516.1241703301853 24.55281730441195 0.3015241405605873
1.0136700595750034 13.033794759486526 3091.57882580813 25.67638440242684 0.3059250693643598
1.0396354197567743 13.040247312034584 2721.090086397008 26.849573182410786 0.31041052755208726
1.0657860655656517 13.046586369677508 2397.8180778455976 28.075471268509325 0.3149891788479519
1.0921199325117714 13.052707209202557 2115.4812740037823 29.356121089036435 0.31966138123386684
1.1186193941705727 13.058541537624832 1868.3477328595536 30.694304038264896 0.3244319944141889
1.1452496621840051 13.0639996728885 1651.8776596326866 32.093394255179724 0.3293089013030102
1.172013022899148 13.069011410624787 1461.8410883861811 33.55535942011031 0.3342899713368536
1.198871197774436 13.073465160378731 1295.2304892565414 35.084729824821835 0.3393886885131405
1.2258170109340842 13.077336785655834 1148.8897548512157 36.6835133535919 0.3446017193191448
1.2528135490056787 13.080493604881196 1020.026494249611 38.356778065163695 0.34994359757694843
1.2798572833471251 13.082934826936315 906.5839620382503 40.10678012103312 0.35541099527401343
1.3069015351382391 13.084521101457327 806.6243659997883 41.938961156372784 0.36101829780482175
1.3339380908246181 13.085240775831798 718.4649030875535 43.856834092834696 0.366767597691607
1.3609475053354998 13.085034600595149 640.5176221135079 45.865061392890134 0.3726665025959631
1.3878784352765232 13.083770816352853 571.7143875702718 47.96899003156083 0.3787250443180997
1.414736176925554 13.081478381615785 510.74011463948773 50.17339194751787 0.3849489499541057
1.4414586610291014 13.078028725084353 456.8100226709893 52.48345918060313 0.3913450446805668
1.468054230081028 13.073427840952041 408.94850091078126 54.90562259923314 0.39792509379302227
1.4944640116088548 13.06756194359569 366.46976078450865 57.44607274534102 0.40469815944516807
1.520676652536924 13.060412680799203 328.7778868807756 60.11143833031586 0.4116740139709319
1.5466600497455136 13.051925500420303 295.24153307842903 62.90882568025344 0.4188631983604312
1.5723760570865417 13.04204307158861 265.4155378003118 65.8458619579376 0.4262770855103441
1.5978004454473707 13.03071118469755 238.87901210425989 68.93074254497375 0.43392794880753816
1.6228877700456594 13.017888904341381 215.19443333714543 72.17228301515468 0.44182903667322687
1.6476401231983726 13.003547852047552 194.0629470145061 75.57997618419499 0.4499946537707692
1.671988267181994 12.987614116354758 175.19243764358808 79.16372749082602 0.4584388829347263
1.6959258153253423 12.970059553010973 158.34018111037142 82.93379651289507 0.4671752770421252
1.7194059313143897 12.950847119907161 143.25308900100842 86.9028901209394 0.4762252513625597
1.7423882765207575 12.92990449756893 129.76306144761728 91.08255761321765 0.4856030299411445
1.7648704122285293 12.907254676333395 117.65807840589243 95.48695051986577 0.49533077547007104
1.7867979443168038 12.882816219115528 106.8106222146809 100.12967882221056 0.5054257755243967
1.8081350439344588 12.856554730278473 97.06941666399317 105.02730067519707 0.5159138540076827
1.8288445920536496 12.828417667540513 88.31587979851406 110.19636006962986 0.5268175524972845
1.8489237752511534 12.798449311460619 80.4484113157917 115.65453278605044 0.5381604017216962
1.8683002614259474 12.766507775434428 73.37520478501558 121.42195137625329 0.5499714439551129
1.88697822137326 12.732684607415063 66.99610642810003 127.5200544345085 0.5622805315715312
1.9049009646067225 12.696866881009004 61.24594714784632 133.97132157766197 0.57511709399219
1.922041582111501 12.659048032993955 56.064875678307935 140.80144352144856 0.5885174430652188
1.9383545829603044 12.619157652012392 51.382135171287615 148.03809484184137 0.6025198225418499
1.9538514146888488 12.577309329194756 47.15749504949581 155.70974527100387 0.6171598855629189
1.9684665771230536 12.533376494164507 43.33080583671836 163.8500793927883 0.6324853501677353
1.9821799736729657 12.487373301150884 39.8712080521757 172.49292332796176 0.6485379408366515
1.9949695567778467 12.439293729747378 36.739857129683806 181.67748722334372 0.6653705410450431
2.006804550196432 12.389132459529446 33.89885764171254 191.44582635817784 0.6830377281030799
2.0176503582179603 12.33685499858739 31.322258890486065 201.84398435401755 0.7015987478389919
2.027485099145742 12.28246834225039 28.986161278532204 212.92186711278381 0.7211161123233921
2.0362946579326144 12.225998864869958 26.864849040922667 224.7350777069995 0.7416605104242631
2.0440380997039123 12.16740026080037 24.93753522794115 237.34468437555867 0.763308736168484
2.0506966799608 12.106690924758642 23.183631710577018 250.81762133738619 0.7861435777523748
2.0562689210788023 12.043941414287778 21.590741717917805 265.22708822076214 0.8102534853395423
2.0607134877206206 11.979089161130164 20.13840853107962 280.6546143537551 0.8357374236947354
2.0640186459248406 11.912191157160118 18.81838413421147 297.1901733249378 0.8627031106126397
2.0661780859503844 11.843286790940292 17.615817189657328 314.934109910735 0.8912708739721614
2.0671690158618814 11.772393759524562 16.521275414675344 333.99577464032814 0.9215663297883985
