M[M_sun], R[km], Lambda[1], P_c[MeV/fm^3], rho_c[fm^-3]
0.24162668629717493 15.618656898711224 2160425.4255784233 3.5677272577965504 0.1711233750220791
0.25364222277330933 15.277337991244282 1723164.7693902466 3.784807051341107 0.17388801656532102
0.26603782705196344 14.981342480777705 1382978.837480208 4.011375093913851 0.17666634220767333
0.2788120578634381 14.723597668343537 1116526.39247744 4.247687867929959 0.179457046257888
0.29196617847478573 14.498495139267384 905997.5293206742 4.4943703373214 0.18226669094955852
0.3055009542224056 14.301317208859665 738695.9946591582 4.7515767196453815 0.18509095538115902
0.31941577502678664 14.128201940912618 605152.9815368504 5.019991583017592 0.18793650851891283
0.3337139899441573 13.975988873607601 489741.7643463656 5.299835815017851 0.19079991147859357
0.34839303784928044 13.84208890774991 411042.9878656251 5.591841693015926 0.19368753509298933
0.36345478028793266 13.72404458919687 340693.22384192573 5.896171867459295 0.1965943569337261
0.3789071925230424 13.620062382613844 283342.9987277584 6.213692308431638 0.19952809759425597
0.39473767346071054 13.528509731910423 236429.52441858812 6.5446635486889715 0.20248499100817052
0.4109620191324564 13.447916752020813 197897.6456349493 6.889781742202793 0.20546864301916526
0.42756863943336504 13.377103594940293 166112.42925998734 7.249754683450456 0.20848217725957496
0.4445619839595376 13.314980046945358 139822.8694180382 7.624845875758398 0.21152121315809086
0.4619412522540997 13.260621120081908 118000.86223556512 8.015995231958554 0.21459177254962233
0.47970497983124877 13.213201663548766 99829.21850541404 8.42391178859978 0.21769556967644152
0.49786036826504493 13.172052598444479 84656.51328255767 8.849042627229958 0.22083016288790164
0.5163964535573137 13.136440953230576 71949.9461449547 9.29224857020559 0.22399878435048012
0.5353132159910415 13.105879321955832 61289.526979219816 9.754420067957021 0.2272044379132135
0.5546188373305259 13.079854707103603 52310.97853481241 10.236366487901936 0.23044847415821962
0.5742991944720791 13.057868577639825 44740.82403041891 10.738567551097503 0.2337276995434526
0.5943553672646995 13.039538583106426 38336.71962419839 11.2622507825649 0.23704808747305567
0.6147894583161003 13.024522538665606 32909.48495550869 11.808361616859848 0.24041135681066442
0.6355892376039857 13.012443792971139 28300.284204507003 12.377878778828055 0.2438191400033703
0.65675987317153 13.003035239166865 24376.32352476491 12.971503062990127 0.24726952193396262
0.6782902352962394 12.99598166312697 21033.551425527472 13.590537530541008 0.25076702404537793
0.7001759594717464 12.99105597327841 18040.886037887234 14.236190760519008 0.254314411141606
0.7224074806734394 12.98799559319259 15733.773385892859 14.90965207476837 0.25791366714376346
0.7449929849628022 12.98665630798673 13637.66255213776 15.611965646530944 0.26156483586490675
0.7679117944411586 12.986761928713427 11757.65670099944 16.344368389294065 0.2652695220037915
0.7911547863940397 12.988135196827356 10223.187480885446 17.108489783194646 0.26903255689172256
0.8147264753760047 12.990650536678826 8958.910380733487 17.905784391072427 0.27285637215601827
0.8386056462929733 12.994127737116024 7809.813039898039 18.737633393664492 0.2767421932680094
0.8627843146963229 12.998386414007774 6816.64324608264 19.605349033216104 0.28069021565743224
0.887257314111859 13.003333970897856 5956.914991720157 20.511031811411467 0.28470693769677047
0.9120160705470836 13.008829838631902 5212.759166712091 21.456475206182873 0.28879537144302286
0.9370338125664176 13.0147255547224 4566.736447455353 22.443183395000776 0.29295560237863777
0.9623102328587726 13.020931717961785 4005.992045613982 23.47314087111822 0.2971911049430067
0.9878335506525836 13.027313376606331 3517.6943341347283 24.54878857907431 0.3015081363473466
1.0135730413563548 13.033773598855943 3093.236707436899 25.67209223113147 0.3059085050487055
1.0395342203335773 13.040225522934081 2722.388106528049 26.84496509313279 0.31039311902057154
1.0656835702569902 13.046549367629337 2399.166512784409 28.070525691196305 0.31497088300696924
1.0920119133931798 13.052685298539885 2116.432626593586 29.350855551522006 0.3196424285318714
1.1185090780825715 13.058520944774509 1869.2602360124795 30.688655676292132 0.3244120694513253
1.1451365379092837 13.063984207047127 1652.6796453818113 32.08738150362237 0.32928824208089136
1.1718982470925452 13.068990287995225 1462.671530438354 33.54891175128451 0.3342682420281282
1.1987499596863316 13.07345857656027 1295.883645703641 35.07781680767938 0.33936582903957363
1.2256952820142282 13.077324977470402 1149.5235208772317 36.67615504890676 0.3445779825672716
1.252689529932707 13.080488454241472 1020.5738181933845 38.34891500137417 0.34991875707890163
1.279728354670143 13.082929680575823 907.0694958534664 40.09838248498954 0.3553850157935635
1.3067717286346494 13.084522826482416 807.0734917011453 41.93001942435595 0.36099126559426836
1.3338069636873144 13.08522935887778 718.8526476865542 43.847248015362325 0.36673910291180495
1.3608144198761232 13.085035861631557 640.8917384094652 45.85485105563736 0.3726368123222015
1.387743378900953 13.083778529091727 572.0381253050831 47.958111824147174 0.3786940814282387
1.4145976516478744 13.081495108017975 511.04003504709215 50.161726589735814 0.3849162623360514
1.441320048099696 13.078045855276098 457.0734802838184 52.47102519052226 0.3913109056024182
1.4679127577915063 13.073456092814029 409.1845056432659 54.89236492182788 0.3978894065097886
1.4943211772588265 13.067593505965826 366.69048337077044 57.431931866120706 0.40466081973308704
1.5205317954888382 13.060455771503209 328.9720228789295 60.096349876062256 0.41163490951331083
1.5465141675935823 13.051975956620375 295.41507106983386 62.89271997992037 0.4188222080726236
1.5722305314100473 13.042100431501732 265.5771260037726 65.82866355927679 0.4262340787973321
1.5976532840221718 13.03078361694213 239.0248558286929 68.91236968190809 0.43388278474681674
1.6227340466111697 13.017944908289723 215.33191613987958 72.15264702031442 0.44178156311482963
1.6474923659394605 13.003638321274789 194.18525792649007 75.55898084033312 0.4499447063452761
1.671841225038451 12.987713950769383 175.31230443913307 79.14137794058392 0.45838674168970694
1.6957790800461718 12.97017448804549 158.435800855246 82.90987470829073 0.46712030480481603
1.7192437436984385 12.950938720219854 143.34851196589733 86.8772729229279 0.4761672410129649
1.7422467744529333 12.930043787655059 129.83425073020967 91.05523435868012 0.48554224575712696
1.7647273720206516 12.907405924491071 117.73275025321132 95.45765800310397 0.4952665011475945
1.7866532442710665 12.882983429958552 106.8639141096727 100.09839153767581 0.5053582589217311
1.8079948737556841 12.856736628295987 97.12810258351938 104.99385638773693 0.5158428349931592
1.8287071853340675 12.828614946132536 88.37038988195926 110.16058182025422 0.526742749695132
1.8487888053040682 12.798660215837007 80.50222232641133 115.61608122693964 0.5380809740691863
1.8681772537264296 12.766767178120235 73.41441459220131 121.38075654908359 0.5498875863832153
1.8868503497967564 12.732930930770632 67.03803829002318 127.47591253805237 0.5621919821482751
1.904775568063855 12.697131784352099 61.28567414154569 133.92408694742872 0.5750238381658871
1.9219209690030865 12.659328772730104 56.09910643116225 140.75071005942718 0.5884185949882406
1.9382376149814606 12.619453471996641 51.41514450210637 147.98355874403282 0.6024149196443751
1.953749442901016 12.577662957797873 47.183335333604774 155.6512524774819 0.6170490358639836
1.9683591456425549 12.533715689566504 43.3577019233215 163.78727545346695 0.632368031887146
1.9820801931646712 12.48773315081119 39.89667168156436 172.42523000003996 0.6484129525080793
1.994875376111248 12.43967385368547 36.761853006176864 181.60465912156712 0.6652378836478382
2.006709025094411 12.389515718308704 33.919526775183726 191.36739056748223 0.6828967231414507
2.0175700354305044 12.337274572410617 31.340872978630568 201.75941919525775 0.7014486530238583
2.0274111136758033 12.282908108402413 29.003547256500216 212.8308097281547 0.7209568128767738
2.036227311242368 12.226461005904703 26.881378838429058 224.636685321663 0.7414904368438184
2.0439791773472447 12.167885980529872 24.952798827625955 237.23847766526137 0.7631276439711125
2.050646635113672 12.107200840156423 23.19793301148224 250.70274961990506 0.7859501611380821
2.0562202092417547 12.044452605282729 21.602590288735648 265.10263078488674 0.810046380935421
2.0606815293156555 11.979644426880467 20.1506917306383 280.52001474763296 0.835516649012911
2.064001273271454 11.912781821474006 18.829593465707035 297.0441429865985 0.8624665152986513
2.0661640564638852 11.843888672253092 17.6260924911025 314.77547627399076 0.8910169327205689
2.067166109861792 11.77301716044712 16.530474833355328 333.82349148489635 0.9212942223062752
