M[M_sun], R[km], Lambda[1], P_c[MeV/fm^3], rho_c[fm^-3]
0.24162668629717493 15.618656898711224 2160425.4255784233 3.5677272577965504 0.1711233750220791
0.25364324836365887 15.277296173527382 1723240.7170818192 3.784807622468084 0.17388802368414324
0.2660377064344594 14.981325854759005 1353452.6393302768 4.011376294532561 0.17666635671644187
0.2788124189466941 14.723601872221552 1116466.9035462083 4.247689738654887 0.17945706795547803
0.29196624114579667 14.498482152268629 905937.4275814029 4.494372927237322 0.1822667197888734
0.3055007266954858 14.301293170744554 738669.9397770864 4.7515801166866956 0.18509099207568855
0.31941680371538733 14.128189736611048 605148.6080989472 5.019995812203012 0.1879365523983439
0.3337132456815524 13.976040453280813 497714.58552720747 5.299840987683907 0.19079996355875775
0.34839334465011706 13.842088737546375 411046.8211766161 5.591847822072534 0.19368759439329805
0.3634552872840253 13.724079021273191 340686.69482087746 5.896179090596555 0.1965944247749598
0.3789081813360215 13.620041070339425 283336.7590418581 6.213700713052173 0.1995281742342754
0.3947378936198389 13.528529310175324 236423.88801343902 6.544673126061741 0.2024850749887913
0.410962509297241 13.447916876874835 197886.75683054875 6.889792677207858 0.20546873614625707
0.42756872239511823 13.377105416790052 166103.8912511061 7.2497670786911845 0.20848227980222486
0.44456306420511615 13.314969886534453 139829.23786056624 7.624859696971151 0.21152132318383138
0.46194182146531676 13.260621009688354 118002.2449826542 8.016010720204045 0.21459189236372292
0.4797051812097677 13.213203931752675 99829.10058611035 8.423929064641557 0.21769569956812423
0.4978616329627572 13.172051079853565 84660.45807958044 8.849061627364879 0.22083030045699661
0.5163984291076636 13.136430851434037 71948.98087294505 9.292269601896098 0.22399893241489247
0.5353154596004076 13.105875481241 61287.93972897145 9.754443273789521 0.22720459679262633
0.5546194954175645 13.079835955136717 51824.36375768726 10.23639201912635 0.23044864418621444
0.5743001788231842 13.05786715618246 44739.264620645175 10.738595296778934 0.2337278776793219
0.594355805940411 13.039565352822965 38335.74099216353 11.262281159930614 0.23704827727138636
0.6147902216497498 13.024524698307728 32910.09806265438 11.808394805346794 0.2404115586520388
0.6355904301514179 13.012465645236379 28300.68877214291 12.377914969067005 0.24381935428846055
0.6567612877265304 13.00304140939351 24376.971177752643 12.971542088790915 0.24726974498943666
0.6782912587716085 12.995983546641193 21032.844049864423 13.590579946039211 0.25076726020350815
0.700177573559675 12.991070911448375 18040.83962796017 14.236236793116111 0.25431466087069193
0.7224093293292704 12.987998356360526 15733.756650456071 14.909701966476 0.2579139309400285
0.744994890526444 12.986642294689085 13637.48266558781 15.612019168150736 0.26156510943192485
0.7679126763468235 12.986756836197696 11838.850240889751 16.344426265563964 0.2652698105024811
0.7911542734665014 12.988130868329508 10291.794757309492 17.108552304553136 0.2690328609119174
0.8147283857489371 12.990657322218158 8959.10450542901 17.905851867212345 0.2728566923254774
0.8386085360889749 12.994113335969281 7809.973324587245 18.73770552531481 0.2767425246756207
0.8627860279798841 12.99839567050145 6816.447627646502 19.605426758183317 0.28069056436034157
0.887258195330653 13.003341085706568 5956.601506824406 20.51111550374305 0.2847073044495442
0.9120193666276465 13.008829272631536 5212.73911362978 21.456565265538618 0.28879575705110416
0.9370363425385884 13.014727217510503 4566.597616489215 22.44327944624706 0.29295600132083155
0.9623126797568194 13.020919205226896 4005.5677771870596 23.473244119516945 0.29719152426543205
0.987835622667125 13.027317624712781 3517.674374850835 24.548899510550143 0.30150857702543843
1.0135758079190382 13.033770744613058 3093.2707164162844 25.67221041631195 0.30590896114807814
1.0395376290188507 13.040224721528512 2722.4002171991146 26.845091976710318 0.31039359836387953
1.0656864590378181 13.046552081508358 2399.123317281586 28.070661867037362 0.3149713867806191
1.0920144384108452 13.05268934907579 2116.521028388278 29.351000537031563 0.3196429503906843
1.118511821559431 13.058524528910132 1869.2528148209688 30.68881120226341 0.32441261807926675
1.1451407493637296 13.06397929749793 1652.6690489969008 32.087547062492284 0.32928881092486145
1.1719006121762903 13.068992829455404 1462.6980102834739 33.549089284818905 0.3342688403344436
1.1987549111570817 13.07345052423504 1295.8783635986517 35.07800715368791 0.3393664584622209
1.2256997293414746 13.077322318280212 1149.5065868078523 36.67635765507041 0.3445786361433928
1.2526930722888219 13.08048870986804 1020.5511486022768 38.34913219850131 0.349919445111786
1.2797325541009257 13.08292809585934 907.0396903261334 40.098613706945095 0.35538573111704774
1.306774719259858 13.084519427427683 807.0769924113689 41.93026562679999 0.3609920099015562
1.333811107573651 13.085230182279046 718.8563150332418 43.84751195827601 0.36673988748664565
1.3608172905585003 13.08503720731403 640.8583753926316 45.85513218603189 0.37263762981120013
1.3877467131163426 13.083778617682725 572.041371542971 47.958411342658046 0.3786949339546073
1.4146017060594769 13.081495058107581 511.0224208719807 50.162047780229386 0.38491716234721035
1.4413238655647052 13.078045618383706 457.0678325670635 52.47136754317738 0.39131184557454074
1.4679166101938899 13.073453571978892 409.17837683534634 54.892729952338655 0.3978903891062743
1.4943251629793632 13.067592778363792 366.6859523736302 57.43232121294436 0.4046618478232127
1.5205357647619564 13.06045348144624 328.9711870879154 60.09676531140938 0.41163598618913544
1.5465181725611377 13.051974534681506 295.4101770605629 62.893163421841955 0.4188233366675692
1.5722340075933898 13.042101220829572 265.5745837943944 65.8291370849695 0.4262352629066188
1.5976576194895267 13.030779562366396 239.01936734991705 68.9128755423752 0.43388402824995354
1.6227446482429204 13.01796669405858 215.31857877602275 72.15318765653689 0.4417828702003879
1.6474959937177018 13.00363716804343 194.17699457471778 75.55955890112133 0.4499460815381922
1.6718445338277477 12.987711725369703 175.30701955081364 79.14199328440745 0.45838817727980724
1.6957830095713733 12.970170257797541 158.43116794206898 82.91053333782156 0.46712181833355965
1.719248226325165 12.950932476303255 143.3462229656157 86.87797822805938 0.47616883818207095
1.7422508452466257 12.930039971971372 129.8342558421135 91.05598663301141 0.48554391929061186
1.7647312823321448 12.907401564819764 117.73052511038357 95.45846449232081 0.49526827076501656
1.7866590743266928 12.882975733758553 106.86615374791016 100.09925294397291 0.5053601177991492
1.8079982120318356 12.856732133483947 97.12613125321761 104.9947771772279 0.5158447902915733
1.8287111083161878 12.828609577841075 88.3690503745616 110.16156686434604 0.5267448091602986
1.848792930808996 12.798655038708944 80.49779029300528 115.61713986715496 0.5380831608545625
1.8681806413983821 12.766761208671916 73.41234713324964 121.381890711309 0.5498898951218822
1.8868538651475175 12.732923835500186 67.0373997111858 127.47712858880521 0.5621944227524331
1.9047788877484186 12.697121136056214 61.28349540813375 133.92538738406287 0.5750264056315849
1.921924556027015 12.659321185694061 56.09806843296797 140.75210681699946 0.5884213164031514
1.9382417708136608 12.619444607055923 51.413728387930824 147.98506018542932 0.6024178077416027
1.9537524784399183 12.577653949881148 47.181999388991336 155.6528628436995 0.6170520876691659
1.9683624937871098 12.53370659941208 43.35833001124326 163.78900450148276 0.6323712617632089
1.9820829454274254 12.487722670632861 39.89597332793903 172.42709364680184 0.6484163935280581
1.9948772953820852 12.439663239006386 36.7603900959286 181.60666412186202 0.6652415357836763
2.00671155891047 12.389504516880548 33.918951984221565 191.36954993894864 0.6829006050694336
2.017571438733675 12.337263869390421 31.341639834896284 201.76174729770642 0.7014527851760562
2.027413165875846 12.28289620926846 29.003329026968654 212.83331654988595 0.7209611984114143
2.0362299344109154 12.226447414739841 26.880816614802306 224.63939406039597 0.7414951189632043
2.043980745309961 12.16787223068484 24.952539682418973 237.24140151493427 0.7631326294033943
2.050646891480479 12.107187689404174 23.197414988470044 250.70591604668132 0.7859554990178913
2.0562212278397514 12.044437282984768 21.60260366537201 265.10605702917866 0.8100520824049834
2.0606817229636643 11.979629106819823 20.150057417446007 280.5237201773116 0.8355227267800152
2.064001922819757 11.912765917644679 18.829326074312043 297.048163068357 0.8624730285514227
2.0661646523727004 11.843871359690601 17.625525042146815 314.77984328176444 0.8910239234410902
2.0671654316281116 11.77299976983077 16.52939128609959 333.8282342152863 0.9213017130700796
