M[M_sun], R[km], Lambda[1], P_c[MeV/fm^3], rho_c[fm^-3]
0.24162668629717493 15.618656898711224 2160425.4255784233 3.5677272577965504 0.1711233750220791
0.25364433028181077 15.27728590412463 1723231.7006905528 3.784826005541989 0.1738882528202912
0.2660406904460559 14.981249868483618 1383154.374514584 4.011414939425151 0.1766668237171622
0.27881575956487903 14.723483075049074 1116404.5457463716 4.247749952785461 0.17945776634865193
0.2919716855328624 14.498370044323758 905857.0528030657 4.494456290672854 0.1822676480600757
0.30550635755800837 14.30120830216232 738607.3301590157 4.751689460003161 0.18509217319219123
0.3194234791683756 14.128116572636628 605086.2388256573 5.020131940850889 0.18793796478560645
0.333722625764248 13.975894161122307 497681.6150812355 5.300007485553649 0.1908016399160361
0.34840335633115127 13.842007774481626 410994.55415928544 5.592045104867524 0.19368950315861022
0.3634669957709439 13.723955333664984 340634.20213808824 5.896411590538749 0.19659660846361915
0.37892035502280524 13.61997882275933 283301.4693660747 6.2139712437075385 0.19953064114811223
0.39475162309508166 13.528465441571862 236395.8417229006 6.544981406549612 0.2024877781922034
0.4109790650989146 13.447864143459412 197857.11920123285 6.890144658839989 0.20547173376953967
0.42758590538895114 13.377051393279656 166072.46908774914 7.2501660643956205 0.2084855805087064
0.4445827746741773 13.314904040731198 139792.65847133828 7.625304583992544 0.21152486477058308
0.46196427139796764 13.260572057765213 117976.40061831716 8.016509268392875 0.21459574903702242
0.47972961417916427 13.213158235426283 99806.80015763028 8.42448516156607 0.2176998806395873
0.4978864588869053 13.17197973740974 84639.35991131394 8.849673222609823 0.22083472866788453
0.5164263292636511 13.136389068636452 71935.34361405318 9.292946592916698 0.22400369847388296
0.5353444569416461 13.105846326363904 60683.29643741583 9.755190250714762 0.22720971099205448
0.5546516821488231 13.07980117715424 52300.50321117182 10.237213850998591 0.2304541172658859
0.5743349186949526 13.057845365044816 44727.00330619704 10.73948841274117 0.23373361176045218
0.5943923944524123 13.039519512017861 38323.27401793459 11.263258991056535 0.23705438677795626
0.6148292197409486 13.02451747340028 32899.10093451825 11.809463128132299 0.24041805583703188
0.6356347439502632 13.012435175019169 28289.850937953546 12.379079920386214 0.24382625205166442
0.6568058563031177 13.003023246808807 24369.470496365648 12.972798319007243 0.24727692508621174
0.6783381750063885 12.995978749385468 21026.74021733237 13.591945293751623 0.2507748620937723
0.7002269782616386 12.991049275169916 18171.370231351764 14.237718579013773 0.25432269963150533
0.7224570445978035 12.98802328946273 15728.074743943753 14.911307981612579 0.25792242254744757
0.7450487927513395 12.98664494605898 13632.720480868828 15.6137420344594 0.26157391558167237
0.7679709396046992 12.986748142476472 11834.98604797963 16.346289314016715 0.26527909733174937
0.791216005936564 12.988140128145035 10288.036922914922 17.110564885295727 0.2690426474105516
0.8147928629921704 12.990655806295793 8955.815775381272 17.90802395028907 0.2728669987043651
0.8386732857561865 12.994140073791842 7806.570644719551 18.740027476732504 0.27675319284097505
0.8628542247532563 12.99840502728731 6813.5001317388405 19.607928768576294 0.28070178930303946
0.8873370248423456 13.00335467318725 5954.702413821132 20.51380961506981 0.2847191104631066
0.9120934021523621 13.008848134969083 5210.734623265353 21.45946434435562 0.28880817006706305
0.9371129203098884 13.014744215261217 4564.868161560092 22.44637141615911 0.2929688436035455
0.9623980304138944 13.020948443329514 4004.1889074518954 23.47656778195765 0.29720502264616006
0.9879193953536629 13.027339378083061 3516.22543267984 24.552470509444163 0.3015227629088116
1.0136618795575534 13.03379147415082 3091.600860339125 25.67601492895831 0.3059236434950882
1.039626501201552 13.040246415632385 2721.15837730028 26.849176513233363 0.310409029007363
1.0657772237397345 13.046579124325964 2397.947537436969 28.07504554666162 0.3149876039177192
1.0921089009782123 13.052704325606626 2115.5544425186627 29.355667823430586 0.3196597497559923
1.1186089852099679 13.058544595942902 1868.4244986095416 30.69381781697426 0.32443027923707984
1.1452407363709087 13.063999369878577 1651.9445512171546 32.09287666521718 0.32930712291487946
1.1720039688736938 13.069007845994282 1461.921773479903 33.554804389756775 0.3342881008273362
1.1988606697368553 13.07346636172944 1295.311807476879 35.08413473422302 0.3393867207098597
1.225806515991273 13.077333777484487 1148.9432066045047 36.682879929758 0.34459967599190855
1.2528031053794726 13.080499987747919 1020.0452817570126 38.356103737306654 0.3499414741831721
1.2798468781373804 13.082935930571953 906.6129480003536 40.10605722411313 0.3554087588724472
1.3068901521748524 13.084521625011984 806.6701105078146 41.93819141964552 0.3610159707740806
1.3339269666837343 13.085235828282416 718.5095309385368 43.85600888558892 0.3667651447489068
1.360935516615498 13.085034828221858 640.5573067138281 45.86418244432633 0.37266394673293574
1.3878666828266337 13.083771503685995 571.7408172208329 47.968053587137504 0.3787223788949801
1.4147242356808627 13.081484455099929 510.76473019372185 50.17238773797134 0.3849461360482902
1.441447824168137 13.078026819608867 456.83062352131395 52.48238880020299 0.3913421058170249
1.4680432083224058 13.073428795068743 408.96847068266163 54.90448130806781 0.39792202164246193
1.4944517014564254 13.06756389576855 366.4899867751016 57.444855419540595 0.40469494503436737
1.520663915715347 13.06041469711538 328.7957199048299 60.11013942767369 0.41167064762985606
1.5466478687531087 13.051930044650476 295.2645533297679 62.90743920241672 0.41885966966410687
1.5723635949222143 13.042047746533287 265.4279995727071 65.84438140878576 0.4262733832149311
1.5977880088869703 13.030718198410282 238.89442766330404 68.92916088475498 0.433924060779967
1.6228768656690127 13.017893574476686 215.21110287525977 72.17059260990075 0.4418249498137023
1.6476267389142751 13.00355642739623 194.073581014407 75.5781687498725 0.44999035392734915
1.671975532450386 12.987621515855274 175.20301630151855 79.16180347033098 0.45843439421692356
1.6959135546811706 12.970066168757564 158.34919441207 82.93173713269081 0.4671705445924137
1.7193925351526276 12.95085867904552 143.25936230448266 86.90068477892562 0.47622025734794743
1.7423754591793927 12.929918685587909 129.7650624391251 91.08020539147287 0.4855977971135841
1.764858294491196 12.907267702740802 117.66436373890762 95.48442875644872 0.4953252421580516
1.7867853750269302 12.88282831943811 106.81238277680706 100.12698532128341 0.5054199630662501
1.808123062093904 12.856571266178577 97.07209864834381 105.02442146837224 0.5159077400059552
1.82883280429036 12.828435207791696 88.31477925926244 110.19327992070572 0.5268111127252276
1.8489128577684586 12.798466410891235 80.45271207997976 115.65122247653481 0.5381535637645369
1.8682885412418635 12.766527461936072 73.37877155765987 121.41840488284431 0.549964224594177
1.8869667885802164 12.732706446842974 67.00156986020863 127.5162653286252 0.5622729479761035
1.9048908483916314 12.696888938011067 61.2491619657102 133.96725507950813 0.5751090654621979
1.922031747056846 12.659071541654823 56.068155807973646 140.79707578353998 0.5885089330508061
1.9383446453195254 12.61918330102095 51.38582452031007 148.03339970551568 0.6025107912135298
1.9538415267913927 12.577336618506676 47.15602532814093 155.70470947156977 0.6171503422189006
1.9684568424456677 12.533405773653087 43.3327547912887 163.8446724106022 0.6324752498800765
1.9821716293867662 12.487404784981205 39.874615221350574 172.48709537273498 0.6485271801545407
1.994962039903858 12.439327551996312 36.74096153492768 181.67121716650902 0.6653591200495794
2.0067976451132323 12.389166100992211 33.90051460697468 191.43907347877558 0.68302558837079
2.017643153405315 12.336891656240548 31.32274332080973 201.83670373182144 0.7015858254527679
2.027479270257699 12.282504621970931 28.98921640218257 212.91402750386445 0.7211023973966166
2.036288893155677 12.226040964437878 26.866626707215218 224.72660654073698 0.7416458678117084
2.0440338221350673 12.167442098898293 24.93902732008115 237.33554037876144 0.7632931448139629
2.0506920978170675 12.106734906777435 23.184983338151287 250.80773844005577 0.7861269486004692
2.056264881738581 12.043987500717979 21.59091529211985 265.21637277539526 0.8102356542158975
2.0607110534812323 11.979136983341434 20.139448234462115 280.64302562779886 0.8357184154869147
2.0640160222570216 11.912240588062573 18.81967738118748 297.17760035702213 0.8626827401517779
2.0661762427939943 11.843338483740316 17.61635662821398 314.92045172800266 0.8912490099079647
2.0671692507366064 11.772444950415812 16.52144302743587 333.98094115059706 0.921542901476259
