M[M_sun], R[km], Lambda[1], P_c[MeV/fm^3], rho_c[fm^-3]
0.24162668629717493 15.618656898711224 2160425.4255784233 3.5677272577965504 0.1711233750220791
0.2536440788028029 15.277270252444836 1723183.0894846274 3.784821858890139 0.1738882011342763
0.26604003041982643 14.981272407479858 1383080.837408642 4.011406222311589 0.17666671837598927
0.2788161648960572 14.72349050400477 1116443.4265007062 4.247736370272161 0.17945760881196607
0.29196991976355813 14.498400769293552 905842.9987281638 4.494437486319026 0.18226743866923156
0.305505825545985 14.3012125792845 738696.7990946369 4.751664795284933 0.18509190676616105
0.3194215723560444 14.128141970381344 605106.8546036233 5.020101234055674 0.18793764619075437
0.33372026236827507 13.975962498200134 497684.0448906169 5.299969928222643 0.19080126177603177
0.348401127119287 13.84202658222721 411006.27466553653 5.5920006032027105 0.19368907259276116
0.3634645267309383 13.723971949764314 340640.4555397371 5.896359144710411 0.19659611588130066
0.37891711436992614 13.620005212964454 283299.57734758646 6.21391021901072 0.19953008467635577
0.3947495949965362 13.528453712000138 236411.54274814838 6.5449118663170465 0.20248716841830805
0.4109743739392803 13.447875012675217 197866.12782589268 6.89006526055398 0.2054710575804178
0.4275845472936335 13.377024329772025 166073.8950806334 7.250076062950837 0.2084848359498191
0.44457760203396657 13.314928059411281 139796.8786501204 7.625204228119148 0.21152406587330222
0.4619591992551244 13.260569227709007 117982.36908043982 8.01639680758373 0.21459487906174304
0.4797241561604658 13.213150443323698 99806.9663911585 8.424359718820103 0.2176989374855034
0.4978816734108972 13.171979318305066 84642.60922311118 8.849535260433676 0.22083372976278254
0.5164194034261016 13.136407926299485 71939.23024538216 9.292793878573375 0.22400262335538534
0.5353385844045375 13.105839368500023 61277.858367242494 9.755021748703676 0.22720855733809325
0.5546441602707045 13.0798293321768 52299.75043175026 10.237028462895292 0.23045288265343808
0.5743277553831956 13.057849653784155 44730.426873647084 10.7392869440463 0.2337323182690239
0.5943839745316807 13.039522536244016 37994.39964502649 11.263038411860604 0.2370530085951484
0.6148212793138214 13.02450042525568 32901.89677616151 11.809222135285413 0.24041659019843514
0.6356253421243797 13.012441169863662 28291.808796237634 12.378817129435184 0.2438246960469435
0.6567950716892416 13.003022379560832 24370.765436971804 12.972514936734438 0.24727530538934675
0.678329591696624 12.995963396167435 21028.47179802945 13.591637295908862 0.2507731472443014
0.7002156394810761 12.991056873401183 18172.458667047656 14.237384314071855 0.2543208862278816
0.72244970581674 12.98799686151572 15729.839839923672 14.910945691924594 0.2579205069853011
0.7450381358776741 12.986650695340066 13537.333499851477 15.613353384419934 0.2615719290604724
0.7679579794878054 12.986757865417088 11836.16648235374 16.345869040277556 0.26527700237256796
0.7912021401107038 12.988138965751764 10288.878934128357 17.110110878465974 0.26904043972907815
0.814777930045943 12.99066357515082 8956.32249460152 17.90753396112275 0.2728646737408068
0.8386590391359513 12.994137784416704 7807.404147615947 18.73950367857112 0.27675078625944394
0.8628414092498438 12.99840023520256 6814.715207722268 19.607364350482204 0.28069925711501115
0.8873201666392355 13.003354269127628 5955.191708847508 20.51320186035144 0.28471644718769684
0.912076097656207 13.008844454566779 5211.14839872702 21.45881035028217 0.2888053698538287
0.9370969389657482 13.014740342998936 4565.2073577847605 22.44567390710226 0.29296594654802477
0.9623799056998598 13.020950612916609 4004.6029991076007 23.475818004290925 0.29720197757627487
0.9879008125984915 13.027328147981356 3516.5945302298 24.551664933826512 0.30151956273930736
1.013641624298442 13.033797105844148 3091.8815560061853 25.675156673756945 0.3059203313229755
1.0396061272114039 13.040245620863397 2721.451761824011 26.84825508563366 0.31040554801981235
1.0657569814654346 13.046573639311033 2398.2908161532464 28.074056633242538 0.3149839454969695
1.0920890020240361 13.052702328989456 2115.7784777186657 29.35461492919133 0.31965595998321134
1.118589404497505 13.05853860011336 1868.6514140786899 30.692688370852608 0.32442629504269943
1.145217443645828 13.063996294731075 1652.1159953384893 32.0916743536177 0.32930299189064655
1.1719814092016034 13.069007560500236 1462.0397940875744 33.55351510906203 0.33428375581846453
1.1988363505870974 13.073469261069771 1295.4026475364747 35.08275239897302 0.33938214970193986
1.225781695987786 13.077329292124514 1149.0503031260387 36.68140855153097 0.3445949295535126
1.2527776240291433 13.08049413402478 1020.1572310948086 38.354537344602456 0.3499365417627112
1.2798196759970382 13.082938909761953 906.7042123619789 40.10437801239435 0.3554035639523777
1.3068635934333253 13.084525960859606 806.7329864920857 41.93640340568577 0.3610105653369974
1.3339008790078708 13.085236919102 718.6101877415255 43.854092021827384 0.3667594468384786
1.3609081103631504 13.085033450649643 640.6138832960966 45.86214074739461 0.37265800975560187
1.3878397118649468 13.083774552057708 571.8139405114212 47.96587833593981 0.3787161874278851
1.4146967304277347 13.081487049740517 510.81235089942294 50.17005507900059 0.38493959968078983
1.4414190655919088 13.078031508999985 456.8746287112322 52.47990243665143 0.3913352791942722
1.468014012663123 13.073434012905313 409.0079474110048 54.90183023005861 0.3979148854172471
1.4944230504006228 13.067570779046465 366.52414624541035 57.442027725356716 0.4046874783637994
1.5206346283186507 13.060424840558932 328.8385687436573 60.107122243905515 0.41166282805252796
1.546618435732186 13.051939970125852 295.2883306628816 62.904218596142336 0.418851472965089
1.5723342715318975 13.04205882392456 265.46493095698736 65.84094229089659 0.42626478327728623
1.5977587604494123 13.030732456115649 238.91727553042966 68.92548690342981 0.4339150294213232
1.6228452410757634 13.017912273536258 215.24020704117822 72.16666603311225 0.4418154566062541
1.647597955885187 13.003574031264604 194.0950697649805 75.57397033566806 0.4499803659994521
1.6719465891219858 12.987637984598138 175.23312147843157 79.15733424736443 0.45842396757087384
1.6958836694056638 12.97009325750159 158.36160379959293 82.92695349440501 0.4671595518055651
1.7193639787613948 12.950882173706916 143.27961752782969 86.89556209914622 0.4762086569986535
1.7423469351665244 12.929942520289963 129.7840100977417 91.07474153797062 0.48558564205071375
1.7648298855950675 12.907297019081891 117.67859990162862 95.4785710911024 0.49531238913232867
1.7867562381241302 12.88286057753297 106.82091503817901 100.12072874356896 0.5054064616429763
1.8080947947516195 12.85660745069371 97.08562952507549 105.01773353314654 0.5158935381614849
1.8288052399242758 12.82847366919152 88.33187472162776 110.18612523807394 0.5267961541870456
1.848885358636108 12.798512416543135 80.46201686904725 115.64353317965416 0.5381376803305539
1.8682627626870123 12.766574443164858 73.3883896496905 121.41016698099834 0.5499474552448729
1.8869427050863996 12.732754970126035 67.00878435416566 127.50744655811496 0.5622552706749264
1.9048642999605323 12.696942401482591 61.25555806707467 133.95780931938071 0.5750904165988239
1.9220073902851804 12.65912630119087 56.07521817463584 140.7869303111404 0.5884891658124435
1.9383211878250042 12.619241669838342 51.392715200469 148.02249376158494 0.6024898130877745
1.953818545821634 12.577399285434275 47.16258147573302 155.6930122456156 0.6171281748048086
1.96843577073652 12.533474380332992 43.34221368937721 163.8321130141446 0.6324517888231179
1.9821518624953856 12.487476646148547 39.87895866449732 172.47355815788703 0.6485021851674524
1.9949416209792714 12.439403425587011 36.74512276325989 181.6566530574994 0.6653325913230757
2.006778539941458 12.389246016192478 33.90272510331426 191.4233878930741 0.6829973902052541
2.0176269389485433 12.336975270760938 31.327996612491294 201.81979233353752 0.7015558093889859
2.0274640066156775 12.282592304129551 28.99145019175343 212.89581772245938 0.721070540473505
2.036276348277681 12.226129875145139 26.870134765692118 224.70692981826033 0.7416118561284712
2.04402155246978 12.167538936172308 24.942580280375207 237.3143008502759 0.7632569294667988
2.050682776725373 12.106837611901959 23.188117829190922 250.78478264657556 0.7860883227436853
2.056255958600091 12.044094297284445 21.592973821213175 265.19148320599646 0.8101942365263645
2.0607048384795723 11.97924832089286 20.142324974195226 280.616107673036 0.8356742637760046
2.06401174691239 11.912356212464118 18.820868990380617 297.14839629291646 0.86263542433511
2.0661739422424352 11.843458958720044 17.6189376653376 314.88872703048617 0.8911982249070086
2.0671684299454505 11.77257191798381 16.523421708457736 333.94648656704464 0.9214884832137507
