M[M_sun], R[km], Lambda[1], P_c[MeV/fm^3], rho_c[fm^-3]
0.24162668629717493 15.618656898711224 2160425.4255784233 3.5677272577965504 0.1711233750220791
0.25364454346536824 15.277281656272526 1723192.5548817285 3.7848427215572893 0.17388846117735784
0.26604218941714186 14.981222746422239 1382937.5558096566 4.011450080058842 0.17666724837098174
0.2788191069369202 14.723423036884173 1116269.424753452 4.247804707140037 0.17945840141665195
0.291974440606699 14.498353911489103 905845.2045949533 4.494532095792573 0.18226849216767724
0.3055116481671561 14.30112786802959 738613.8931790873 4.751788890109358 0.18509324722710338
0.31942948407590144 14.128051838126387 605027.4165220564 5.02025572862984 0.18793924913159077
0.3337286992587646 13.975861296622456 497616.5244674975 5.300158890331406 0.19080316431092217
0.348412355806849 13.841931640918464 410944.1142801502 5.5922245049299715 0.19369123890356565
0.363477494676748 13.723861453267947 340617.3393614112 5.896623016748941 0.19659859422332782
0.37893229098401165 13.619905843667853 283248.88164860435 6.214217254998138 0.19953288447486564
0.39476640718813816 13.52836516640811 236367.4439028927 6.545261747762311 0.20249023640591635
0.4109932213356622 13.447780299339238 197825.56967302677 6.89046474245188 0.2054744597358964
0.4276033044465619 13.376996221842967 166044.89183751534 7.250528894477395 0.20848858210898755
0.4446013431855798 13.314838690909477 139773.23503510014 7.625709157963224 0.21152808543952992
0.4619824284220282 13.260512999333699 117949.00382634297 8.016962643651297 0.21459925626118448
0.47975136487635806 13.213089639734473 99796.40050018925 8.424990873994412 0.21770368289007544
0.497910425115432 13.171954510712974 84622.53041479841 8.850229407768603 0.22083875568607375
0.516451941694827 13.136338149255979 71922.90927625225 9.293562252482875 0.22400803275561076
0.5353719008291422 13.105813839582362 60668.098156584325 9.755869559654652 0.22721436190063612
0.5546802867826852 13.079788851823622 52287.32467311639 10.237958676460313 0.23045906163540844
0.5743663118134749 13.057816754410542 44717.30064755108 10.740300630500267 0.23373882645005914
0.5944270618012608 13.039486779718153 38316.53689365249 11.264148255400363 0.23705994291766888
0.6148666818108682 13.024467282721506 32891.335068257984 11.810434693223595 0.24042396457380752
0.6356729881893454 13.012408179854754 28282.197334914366 12.380139368216202 0.24383252512087997
0.6568459589570759 13.00300816785626 24362.10647615722 12.973940784370146 0.2472834549497361
0.6783798972605332 12.995966480782043 21020.019245634714 13.593187001669232 0.25078177559078413
0.7002714573201425 12.991056156594368 18165.318809852226 14.239066188375167 0.254330010478061
0.7225085413418935 12.988004100934969 15724.494039991256 14.912768579197103 0.2579301452774534
0.7450988468180806 12.986642416344162 13628.966119147406 15.61530890997086 0.2615819244099373
0.7680229249237664 12.986758446313225 11831.4406799763 16.347983688673725 0.26528754336445076
0.7912708334216559 12.9881525007753 10285.841435177208 17.112395264190894 0.2690515479233005
0.8148473632074786 12.990672245379375 8952.202183187965 17.909999402449657 0.2728763720836155
0.8387348505338872 12.994134030141026 7804.445539377101 18.742139239719652 0.2767628952992455
0.8629161880182765 12.998416512907923 6811.064264769591 19.6102043038126 0.2807119981945398
0.8874023765714784 13.003378691597996 5952.83632829249 20.51625987645973 0.28472984788843625
0.9121610347891712 13.008861518847464 5208.893798406481 21.462101035977113 0.2888194596170347
0.93718391896057 13.014757932592978 4563.188712574546 22.449183553666263 0.2929805236217619
0.96247035586792 13.020966646755763 4002.68775393833 23.47959066027693 0.2972172994531993
0.9879948392860404 13.027354570618233 3514.8542292265024 24.555718359371596 0.3015356650747465
1.013739580548558 13.033809311316855 3090.637724848424 25.679475177378652 0.3059369972601485
1.039707219331173 13.040266407061653 2720.0907777135644 26.852891468150304 0.31042306343808895
1.0658607104424664 13.046594632695147 2396.987046759898 28.07903260060425 0.3150023537639569
1.0921952922174913 13.052729857272523 2114.514839126014 29.359912844151804 0.3196750292241327
1.118697268813979 13.058560261117826 1867.467012612304 30.69837149291566 0.324446342624034
1.1453302802654595 13.064021033111926 1651.2387166768442 32.09772413252701 0.32932377833509974
1.1720970918686282 13.069023709393667 1461.2534043714493 33.56000251694152 0.33430561905189815
1.1989547537737903 13.073481645131254 1294.7178573006045 35.08970805953856 0.33940515018574624
1.2259046892139107 13.077344263852387 1148.4400464243588 36.68881227794542 0.3446188128288534
1.2529035054062319 13.080510338275987 1019.626408705469 38.362419186934574 0.3499613609286101
1.279947721537792 13.082947221453638 906.2241593440995 40.11282756799571 0.3554297040545942
1.307001782748821 13.084546701537489 806.3512415366627 41.94540046128822 0.3610377647991315
1.3340336795428915 13.085241902053975 718.1448677157972 43.86373746316277 0.3667881180783823
1.3610446173193884 13.085031683485495 640.2463971566508 45.87241436171657 0.3726878840304851
1.3879833314114727 13.083780741353765 571.4533124894691 47.976824010820714 0.37874734235193686
1.4148282311809453 13.08145732286948 510.54533747494224 50.18179285448777 0.3849724902212345
1.4415610050632224 13.078011380447771 456.6086975162124 52.49241367703797 0.39136963037281697
1.4681563857014164 13.073407611708637 408.77385667630097 54.915170341556234 0.397950794598232
1.4945673522388299 13.067534590267908 366.3128478059399 57.45625660253822 0.40472505043898066
1.5207799913074438 13.0603829371031 328.6591839071344 60.12230467159894 0.41170217605931136
1.5467643108419493 13.051888615102987 295.11583828020315 62.92042469143041 0.41889271876603884
1.572482177895593 13.041997265233181 265.3067131788184 65.85824798968825 0.4263080583074843
1.5978955599728586 13.030655696507784 238.76412865480947 68.94397449661355 0.43396047551092604
1.6230045019684152 13.01784291307334 215.09787632341084 72.18642475791812 0.4418632268864746
1.6477464199674265 13.00348045583079 193.97134315590878 75.59509702856191 0.4500306259011796
1.672094541544274 12.987537601117472 175.13072262690008 79.1798237302449 0.4584764352771376
1.6960309838371173 12.969975272406122 158.25854540023434 82.951025222586 0.4672148685668168
1.719510979041218 12.950754319541984 143.19020876200037 86.92134000738349 0.47626703127783876
1.7424927152577243 12.929806005471375 129.69976508909002 91.1022363553804 0.485646807898972
1.7649741559922556 12.90714198765153 117.59744321980152 95.50804772964406 0.49537706745910265
1.7868849306151426 12.882665479524736 106.759647224963 100.1522128707684 0.5054744030235725
1.8082359696925916 12.856426040051963 97.02498866334417 105.05138843556244 0.5159650044173085
1.828940370936503 12.828270010417494 88.27442622664176 110.22212902330503 0.5268714285246775
1.8490218276144135 12.79829327478598 80.4158738070556 115.68222740884254 0.5382176092557052
1.8683923337125814 12.766344269006936 73.33812385025911 121.4516220643052 0.5500318426028924
1.887068934928426 12.732511610639664 66.96281263116352 127.55175497363291 0.5623439776907382
1.9049902785230028 12.696678752068822 61.217259092153675 134.0053429795206 0.5751842628030105
1.9221285500485579 12.658845822880565 56.03901762307079 140.83798532425925 0.5885886403932393
1.938438490792757 12.618938346143441 51.35963859155835 148.077375923466 0.6025953816567106
1.9539309486928222 12.57707948041143 47.134587238227816 155.75187661805373 0.6172397286829857
1.9685429547521196 12.533136826329422 43.31444208038072 163.89531637405443 0.632569853224686
1.9822527093065425 12.487118794587277 39.85360337924279 172.54168256510113 0.6486279694368047
1.9950361641372891 12.439019649539148 36.7224720591541 181.72994550565772 0.6654660945336534
2.006868798315076 12.38884338199207 33.883204252264115 191.50232441977604 0.6831392953460074
2.017708776551363 12.33655224351965 31.307698852304 201.90489806927187 0.7017068636749257
2.0275402039484436 12.282155052526615 28.973528411867516 212.98745791339996 0.7212308595048972
2.0363429332333105 12.225664497128248 26.853272872307958 224.8059528480454 0.7417830197928587
2.044080767970422 12.16705228237179 24.9277364202871 237.42118921463856 0.7634391839469695
2.050732991938919 12.10632414288913 23.174060945343534 250.90030873516244 0.7862827091479889
2.056298656114972 12.043556971609549 21.581768150809875 265.3166555514332 0.8104023930631361
2.0607383443991636 11.97868782040694 20.130627747851513 280.7515749798659 0.835896461688945
2.0640351118866103 11.911771743165167 18.810824207651 297.2953695138168 0.8628735472877942
2.0661845277416386 11.842846849502012 17.609402825206125 315.04838661208385 0.8914538084945236
2.0671721203378857 11.771941720546234 16.51425827189331 334.119885748342 0.921762353369581
