M[M_sun], R[km], Lambda[1], P_c[MeV/fm^3], rho_c[fm^-3]
0.24162668629717493 15.618656898711224 2160425.4255784233 3.5677272577965504 0.1711233750220791
0.2536438920777389 15.277302315115575 1723266.1426911599 3.784818337591145 0.17388815724298307
0.26603978549690405 14.981262152025561 1383055.5755730364 4.011398819828771 0.17666662892135307
0.27881818169940037 14.723412183397611 1116403.9339986478 4.247724836158137 0.1794574750336249
0.29196932732850694 14.498440320171571 905937.682046809 4.494421517899741 0.18226726085717676
0.3055041156985399 14.30124867126395 738635.986566844 4.75164385034708 0.18509168052085823
0.31942146538304755 14.128131234192724 605114.0941939189 5.020075158303336 0.18793737564475954
0.33371840579366263 13.975949794492953 497676.3138946483 5.299938035140205 0.19080094066561182
0.34839922951353214 13.842041586246111 411014.49154404143 5.59196281315066 0.19368870696361187
0.36346122655650337 13.724007122426253 340671.2398281588 5.896314608668866 0.19659569758937365
0.37891498079824387 13.620009925106524 283312.8457406382 6.213858398017642 0.19952961213129544
0.3947471102178219 13.528463608501857 236411.821532821 6.544852814165571 0.20248665061071516
0.41097131415431076 13.44788466255396 197884.78816966768 6.889997837229694 0.2054704833750951
0.42757920784278447 13.377068352668003 166087.77422855035 7.249999635747809 0.20848420368715506
0.4445738225763872 13.314940262492994 139803.2418539221 7.625119008264676 0.21152338746846444
0.4619549073854611 13.260580710013526 117977.09743042894 8.016301308620365 0.2145941403000538
0.4797196244140466 13.213175130298094 99816.65711582957 8.424253196045937 0.2176981365831578
0.4978760625797912 13.17199527434941 84645.1617166053 8.849418106606755 0.22083288151901964
0.5164143259116019 13.136405711458996 71940.65485086456 9.292664197755096 0.22400171039434
0.5353324864849248 13.10585117364442 61280.6729765026 9.754878661606574 0.22720757768808608
0.5546376767570268 13.079839847016856 52303.56279321749 10.236871036801867 0.230451834257068
0.5743208435518975 13.057843263658233 44731.311598223205 10.739115862968548 0.23373121987551046
0.5943772416932124 13.039522610523512 38330.07000315396 11.26285110295295 0.23705183828570378
0.614813051433532 13.02451088962434 32902.96742508812 11.809017491994092 0.24041534562578412
0.6356175266708572 13.01245630809585 28293.77681973272 12.37859397617037 0.2438233747399039
0.6567864389442636 13.00303679115056 24178.191994386107 12.972274298252763 0.24727392999846395
0.6783187872853579 12.99597491720761 21029.393725422335 13.591375755044238 0.25077169105483815
0.700205680734613 12.991067710364204 18173.100009745496 14.237100468456195 0.25431934635156356
0.7224402383731933 12.988003753726009 15731.010317560434 14.910638049083802 0.25791888036163496
0.7450266580926144 12.986645627009585 13635.048052263015 15.613023357682582 0.2615702421827064
0.7679468876643168 12.986758717954684 11837.125428399542 16.345512160332557 0.2652752234155507
0.7911907334128565 12.988133280566888 10289.540473049696 17.1097253541694 0.26903856505497337
0.8147633232107464 12.990662537763564 8956.705994012993 17.907117882578508 0.2728626994778654
0.838646013810529 12.994135175466063 7808.015084966608 18.739058891264484 0.2767487426919091
0.8628272087577006 12.998403718100127 6815.171907110884 19.60688507102304 0.2806971068903436
0.88730270476755 13.003340320924762 5955.840665339511 20.51268578193251 0.28471418565204587
0.912062348970901 13.008847462453438 5211.65736530496 21.45825500812956 0.28880299203955107
0.9370819129639646 13.014729040846273 4565.498062882561 22.445081614585238 0.2929634865021093
0.9623593875734212 13.020927302809636 4004.6394619645475 23.475181328470214 0.2971993918465921
0.987883894581325 13.027329287755046 3516.7495204678503 24.550980877872238 0.30151684530973766
1.0136258274394125 13.033783722466596 3092.006087426811 25.674427885577803 0.3059175187890355
1.039589897524684 13.040243718118846 2721.7050728145146 26.847472655546063 0.31040259213983323
1.065739687195074 13.046564194507996 2398.528607938486 28.073216898656426 0.3149808389535909
1.09207147759126 13.052698122966069 2115.9888133975473 29.35372086629797 0.31965274190575266
1.1185683335838952 13.058531260731337 1868.7609033600388 30.69172930533988 0.3244229118769574
1.1451996695266276 13.06398440223432 1652.257978124743 32.09065341569999 0.32929948404851966
1.1719611357984958 13.069003247549654 1462.1877671655914 33.55242032315121 0.3342800662770679
1.1988170473411028 13.073457131923044 1295.5588894272087 35.081578597855405 0.3393782682598621
1.2257624400055447 13.077325095036242 1149.1910022637871 36.68015914151158 0.3445908991501946
1.2527571984511074 13.080492800506399 1020.2816207843829 38.353207255218614 0.3499323534387526
1.279798184725713 13.082934509721468 906.7909216931351 40.10295212566748 0.35539915273520273
1.306842083873321 13.084517285522326 806.8243560292284 41.93488513231038 0.36100597536656615
1.333879295526907 13.085236001892918 718.6838099102316 43.852464339322346 0.3667546085242982
1.3608854663191046 13.08503738652842 640.6787880824032 45.86040706631918 0.3726529684465373
1.3878168035753684 13.08378023115852 571.8561405127234 47.96403125118709 0.37871093002842693
1.4146732168377736 13.0814864200374 510.87265182440797 50.16807433656449 0.38493404942220155
1.4413962129049709 13.078036623917422 456.92065616003515 52.47779118092546 0.39132948247706784
1.4679903060102637 13.073438128363616 409.0476479247704 54.89957911258049 0.3979088258138507
1.494398676622359 13.067575219156948 366.57005265086525 57.439626640423405 0.40468113817669404
1.5206113944908815 13.06043305958362 328.88164567825095 60.10456026077541 0.4116561882099667
1.5465937196099409 13.05194673412059 295.3216086819816 62.90148388447202 0.41884451290646885
1.5723091513511058 13.042069718644369 265.4874822153133 65.83802203865937 0.4262574808270776
1.5977336015074048 13.030744161456616 238.94636187124922 68.92236722647054 0.43390736065031477
1.6228206193269819 13.017926919746156 215.25922501765768 72.16333187538996 0.4418073956787268
1.6475719951809644 13.003590820060236 194.11633052755423 75.57040535912034 0.44997188500472907
1.671921397731579 12.9876577792121 175.2507467741048 79.15353932530375 0.458415114061123
1.6958582180723523 12.970112378443737 158.3791601547332 82.92289160131287 0.46715021758706954
1.7193392093763789 12.950902989303529 143.2928749054778 86.89121232543562 0.4761988069013284
1.7423251254209768 12.929965333643944 129.79179617960688 91.07010207308252 0.48557532094906336
1.7648046770391586 12.907321709150354 117.68921789492968 95.47359724131063 0.49530147539527886
1.7867319240550759 12.882889096917008 106.83750504211179 100.11541617799784 0.505394997356953
1.8080716302926871 12.856638336065146 97.0986167381887 105.01205470341415 0.5158814791546449
1.8287821363150287 12.828507853218706 88.34049638611505 110.1800500955593 0.5267834526800825
1.8488622889023738 12.798546946320682 80.47022249632431 115.63700410088498 0.5381241935068286
1.8682493820237922 12.766641517419766 73.3891975872227 121.40317208673082 0.549933216203487
1.8869198104207303 12.732796929855512 67.01540546342099 127.4999465762601 0.5622402182711871
1.9048440774290787 12.696986260312057 61.26497053394506 133.9497888459921 0.5750745816940198
1.9219874869940659 12.659174616201 56.08042242706828 140.7783157223901 0.5884723813175954
1.9383021836948908 12.619292479653728 51.398318680748055 148.0132334692615 0.6024720004547621
1.9538000913394564 12.577453649799478 47.16742596715967 155.6830800894289 0.617109352374612
1.9684175190512347 12.533531940076822 43.34328316739083 163.8214488057037 0.6324318679931246
1.9821347312828912 12.487537274763454 39.88435874262173 172.46206370641184 0.6484809619195808
1.9949239834367618 12.439468777696131 36.74782808086441 181.64428669473367 0.6653100658218285
2.0067642398355585 12.389313223091413 33.90717400722649 191.4100693138023 0.6829734472355649
2.017613184798618 12.337046369322128 31.331049001000135 201.8054329517586 0.7015303229027645
2.027451414519157 12.282667136505456 28.994383839725778 212.88035592189382 0.7210434909784658
2.0362642883544853 12.226209338333906 26.872497761162027 224.69022248684735 0.7415829771083787
2.0440117219051577 12.167621765265226 24.9452916110813 237.2962665942612 0.7632261794036388
2.050673391058265 12.106923335956546 23.190035952315206 250.76529117363614 0.786055526018845
2.0562505646433946 12.044184588229271 21.596360193028378 265.17034984309737 0.8101590693826779
2.06069867775069 11.979343008838217 20.144067436540624 280.593252092123 0.8356367753037174
2.0640069723251124 11.9124530210181 18.823095631583545 297.1235996801178 0.8625952493792914
2.066172868644233 11.843560650715782 17.615399743329974 314.86179026935815 0.8911551044504957
2.06716816247074 11.77267843539599 16.525304310897788 333.91723199664614 0.9214422779566448
