M[M_sun], R[km], Lambda[1], P_c[MeV/fm^3], rho_c[fm^-3]
0.24162668629717493 15.618656898711224 2160425.4255784233 3.5677272577965504 0.1711233750220791
0.25364495543316934 15.27727624406984 1723214.467245479 3.784838336013422 0.17388840651366919
0.2660417197846582 14.981245423748609 1382978.7307241233 4.011440860687832 0.176667136960324
0.2788176362893691 14.723482537844255 1116303.0270169652 4.2477903419512675 0.1794582348021101
0.29197348060267503 14.498349757495237 905788.3206168103 4.494512207744718 0.18226827070964857
0.30551001712190945 14.301157028213618 738621.919719265 4.751762803809657 0.18509296544528014
0.3194289508194942 14.128022800402873 605028.8680358069 5.020223251828188 0.18793891217223874
0.33372554397538545 13.97591547793369 497632.25871897617 5.300119167884223 0.1908027643717905
0.34840999552916957 13.841951535567535 410963.4169911996 5.592177437565908 0.19369078351387056
0.36347457477840556 13.72389602615209 340628.38180170814 5.89656754689464 0.19659807323871756
0.37892744723652105 13.619961711975261 283262.12812328874 6.214152711255449 0.19953229591364802
0.3947632840948137 13.528367058331874 236375.4293984255 6.545188197050358 0.20248959146553466
0.41098936286903937 13.447825399043202 197837.0992370823 6.890380764696844 0.20547374454609463
0.4275989130178295 13.376994688533332 166052.89287882115 7.250433701482391 0.20848779460173575
0.44459581468655635 13.314863327354209 139774.00441087905 7.625603012745383 0.21152724045534474
0.46197907823167783 13.260536696677903 117960.28760406755 8.01684369454613 0.21459833609368978
0.4797443151888033 13.213140158728386 99787.5331127928 8.424858193263754 0.21770268531646517
0.4979042651146321 13.171932557532875 84622.50765694445 8.850083484555766 0.2208376991396646
0.5164446147170622 13.13635390526054 71925.40509990459 9.293400724982686 0.22400689559193934
0.535365365676356 13.10580164072955 61261.37512941582 9.755691332439874 0.2272131416627826
0.5546732726075858 13.079791858686761 52293.28440109858 10.23776449455209 0.23045778028014993
0.5743584606127109 13.05780752151069 44717.596854388816 10.740087531826337 0.2337374582905628
0.594416628278034 13.039500061369104 38318.81871101381 11.263914941837603 0.23705848517030664
0.6148560865825027 13.024496805995453 32893.741330125675 11.810179786173103 0.2404224143136375
0.6356630366297975 13.012412584264691 28284.376255775987 12.379861403059298 0.2438308792685601
0.6568354580929333 13.003011051381979 24363.81065634815 12.973641037586178 0.24728174172003592
0.6783690226792247 12.99598223302755 21022.027920497676 13.592861216150883 0.2507799617043011
0.7002590465822457 12.991066750763748 18167.088238468812 14.238712616933055 0.25432809233573145
0.7224965775894185 12.988000818754463 15724.728082943571 14.91238536236578 0.2579281190656115
0.7450863210045966 12.986646247010281 13629.61436524625 15.61489780835588 0.261579823131176
0.7680096876208238 12.986748241786866 11832.717427596692 16.34753913421155 0.2652853273719549
0.7912566825978942 12.988149226678804 10286.888807610578 17.11191502525742 0.26904921268398957
0.8148341440317659 12.990671840105362 8953.518319625913 17.909481099446033 0.2728739127729237
0.8387186304322405 12.99414685265512 7805.193737693733 18.741585171716178 0.27676034964345203
0.8629018278688692 12.998419337389084 6811.942562609855 19.609607265351677 0.2807093196594981
0.887385325024845 13.003376025962966 5953.322755525597 20.515616993355334 0.2847270306749922
0.9121432252151741 13.008858014659447 5209.307160651502 21.461409237198275 0.2888164975349996
0.9371652850360338 13.0147505650175 4563.512753696052 22.44844572130502 0.2929774590861914
0.9624517539140983 13.020963172546791 4003.0023100120807 23.478797533381258 0.29721407832921504
0.987973753066182 13.027356436066722 3515.243978358906 24.554866203899365 0.30153227986559256
1.0137191478829737 13.033803167080698 3090.679313612592 25.67856729232106 0.3059334935568625
1.0396860388392772 13.040266329934934 2720.419845733969 26.851916752316015 0.31041938113718365
1.0658396073795802 13.04659150525715 2397.309319990829 28.077986490305697 0.31499848374707895
1.0921751209670791 13.05272355743951 2114.849814114145 29.35879904751089 0.3196710202401
1.1186750295551142 13.058551326169834 1867.6419754749188 30.69717670968281 0.3244421279487601
1.145307359348754 13.06401380730536 1651.3979980437573 32.09645226281476 0.32931940831604256
1.1720728311779562 13.069017070358473 1461.4250207775915 33.55863863881166 0.33430102264197875
1.1989315286995361 13.073474475685636 1294.8711101463 35.0882457342285 0.3394003146723832
1.225878701575873 13.077341398539113 1148.5656478270282 36.68725574971055 0.3446137917097131
1.2528764708845694 13.080501623630932 1019.7051510361146 38.360762137658995 0.34995614303929684
1.279921048077569 13.082941573502225 906.3156298105027 40.11105115946682 0.3554242084400655
1.3069661204598748 13.084523932943217 806.4184386424037 41.943508943377864 0.3610320464539248
1.334006309870567 13.08524225879348 718.277898697575 43.86170962405019 0.3667820902918185
1.361015241134382 13.08503262154247 640.344625393197 45.87025445120376 0.37268160330411554
1.3879480967779274 13.083765511488876 571.543963726288 47.97452280123835 0.37874079236661884
1.4147977674856458 13.081457896581488 510.58304969896574 50.179325106380105 0.3849655753190854
1.4415307466004885 13.078015760017838 456.6821861352893 52.489783308685034 0.39136240836683367
1.4681267144472117 13.073412967981989 408.8271199336259 54.912365703268684 0.39794324501636513
1.494536818084963 13.067542223043834 366.35174698044784 57.45326510085299 0.4047171512263591
1.520749416708692 13.06039082765105 328.7002793319881 60.11911268476746 0.41169390344823537
1.5467335784461267 13.05189811890448 295.14995168193786 62.917017476472786 0.4188840471330861
1.572450585215537 13.04201148058938 265.3382307569306 65.85460958007303 0.42629896001634526
1.5978635028138886 13.030671627900807 238.79959834656756 68.94008758951175 0.4339509207394276
1.6229633358928475 13.017847020012573 215.13447033017047 72.18227058984594 0.4418531834360576
1.647714323557225 13.003501224938507 194.00216259255035 75.5906552380833 0.4500200589868939
1.6720631666639387 12.98756022772044 175.145359817736 79.17509540641458 0.458465404151737
1.6960004018298414 12.970000055264357 158.29075935396514 82.9459642208963 0.4672032383996739
1.7194803027392163 12.950781417404169 143.20996828209636 86.91592026816716 0.4762547582350762
1.7424606900667663 12.929829481490968 129.7164556661668 91.09645562297257 0.4856339478971757
1.7649437852738203 12.907173481275224 117.61639032051198 95.50185030057274 0.4953634689159015
1.7868696905301797 12.882734541106721 106.76909298881884 100.14559334827237 0.505460118381206
1.8082068612565616 12.856463387466402 97.03972523280247 105.04431248514398 0.5159499786217632
1.8289195379457006 12.82832990310384 88.28646675601406 110.21455919381799 0.5268556020248535
1.848992299032239 12.798338317095105 80.4226775161075 115.6740918780972 0.5382008040565411
1.868365786830517 12.7663922840748 73.34716125110775 121.44290602723582 0.5500140999454904
1.8870416275060085 12.73256318418778 66.97214837698554 127.54244262960974 0.562325339771469
1.9049639944466923 12.696737355638804 61.226396184129186 133.99534883437815 0.5751645312573448
1.9221030062516442 12.658904761401118 56.04573694033333 140.82725075712708 0.5885677253743162
1.9384141292577999 12.619003715504634 51.365908554621164 148.06583663155993 0.6025731852546137
1.9539076281149572 12.577147054270153 47.140595861854955 155.73949999590738 0.617216273745101
1.968520554274183 12.533207280055656 43.31949170357151 163.88202739821412 0.6325450293073772
1.9822317377846645 12.487194201371217 39.85896714224551 172.5273588369097 0.6486015222388233
1.9950167369646366 12.43909970633653 36.72791663432795 181.7145350873003 0.6654380242429377
2.006848745248665 12.388929441167848 33.88614118295842 191.48572720742723 0.6831094583383144
2.017692225764003 12.336640944081681 31.313300943697733 201.88700363478435 0.7016751028188508
2.0275244687674596 12.282245984616912 28.977901193925064 212.96818945165458 0.721197150483869
2.036328986422673 12.225761843021989 26.856188352089664 224.7851319510809 0.7417470303767804
2.0440680664179602 12.167155280832034 24.93047971430519 237.39871441980364 0.7634008623572062
2.050722696564006 12.106431892039808 23.176606272524783 250.87601761499786 0.7862418364450086
2.0562896869618275 12.043669940651537 21.58355820720991 265.2903679099658 0.8103587286615429
2.0607302514789674 11.978806563563992 20.133060560276487 280.723090612433 0.8358497406966766
2.0640304904064517 11.911896039091149 18.813246907580453 297.2644656530138 0.862823477495905
2.0661855684138564 11.842978796972817 17.61088571951652 315.0148150109369 0.8914000669641131
2.067171841679663 11.772074202287607 16.51681598081422 334.08342491300283 0.9217047663926338
