M[M_sun], R[km], Lambda[1], P_c[MeV/fm^3], rho_c[fm^-3]
0.24162668629717493 15.618656898711224 2160425.4255784233 3.5677272577965504 0.1711233750220791
0.2536460810747902 15.277231798992771 1723151.9302156132 3.784861350846973 0.17388869338246668
0.2660438393888881 14.981188600100147 1382872.7189122252 4.01148924306327 0.17666772163277783
0.27882193224806906 14.723434395898781 1116275.6138677674 4.247865729339355 0.17945910918220556
0.2919794397528838 14.498253526824554 905705.7287284813 4.4946165790087536 0.18226943290789693
0.3055184032888417 14.301033550656218 725334.6756264996 4.751899703578306 0.18509444422405869
0.3194371810954321 14.127952927030448 604961.8080799918 5.0203936892108665 0.1879406805258668
0.3337385732052123 13.975748162053883 497560.9522929436 5.300327630897441 0.1908048632484309
0.34842236735458704 13.84184726857601 410894.92118982214 5.592424447379318 0.19369317340176534
0.3634879017836467 13.723820705054647 340560.1175733561 5.896858653952234 0.1966008073778073
0.37894439234636146 13.61984366104999 283210.7984672299 6.2144914393535124 0.19953538470604718
0.39478069022794526 13.528294349989247 236318.71783037408 6.545574195188186 0.20249297614774547
0.4110099579629109 13.447703215780548 197785.06045884272 6.890821485885845 0.20547749791268163
0.42762094645545834 13.376917143983194 166013.44190622892 7.250933282577238 0.20849192750810175
0.4446210565810239 13.314782100544399 139747.88495451602 7.626160073587692 0.21153167501783846
0.4620046915956883 13.260419786998908 117923.71345573642 8.01746795337041 0.21460316524038717
0.47977522513666426 13.213043506121927 99764.86737304341 8.425554519359533 0.21770792071525938
0.49793634889927796 13.171874248240863 84600.68324286655 8.850849310980403 0.22084324405019143
0.5164801849787353 13.136298480923932 71904.17656501231 9.294248447511636 0.2240128636113925
0.5354030946942046 13.105742923732734 61245.05622625998 9.756626700547377 0.22721954568796576
0.554713950120179 13.079742758086914 52272.88125159467 10.238783598330397 0.23046450507751773
0.5744013305773792 13.057766833665006 44705.21664688296 10.741205917682757 0.2337446386741936
0.5944629052931919 13.039465915789867 38303.738436010564 11.26513942318587 0.2370661357519292
0.6149060833129276 13.024458219843648 32880.662527500186 11.811517598842942 0.2404305504467613
0.6357152158554457 13.012387464297197 28042.84818111613 12.38132023439832 0.24383951711716806
0.6568909950479721 13.002979308790794 24354.996498405508 12.975214188266557 0.24729073320422415
0.6784278012796627 12.995949603993154 21013.78898381191 13.594571029987199 0.2507894814896552
0.7003226978470426 12.99104162135437 18160.124327144094 14.240568264490818 0.2543381593142972
0.7225622017562533 12.987989950241849 15718.727292925487 14.914396603554408 0.2579387532559189
0.7451550530295702 12.98664746541115 13623.835666875533 15.617055402764553 0.26159085132260423
0.7680812570692782 12.986760191209157 11826.91997838384 16.34987230678973 0.2652969576520772
0.7913320423195915 12.98815066843831 10281.375217907333 17.114435489404563 0.2690614688476364
0.8149115622510855 12.990682757285201 8890.453041436824 17.912201345299273 0.27288682014499044
0.8387964784581784 12.99417771243405 7800.951808231958 18.744493132482738 0.27677371021855507
0.8629877953602743 12.998422022083586 6808.841209371927 19.612740760744032 0.28072337767713146
0.887473834302421 13.00338756341256 5950.450773123291 20.518991109671735 0.2847418165758557
0.912237133851367 13.008877626130529 5206.771734275023 21.465040094015627 0.28883204381244265
0.937262799432712 13.014780606388689 4561.7023816482415 22.452318191473026 0.2929935431226191
0.9619594395435966 13.020656698215388 4012.7027916243965 23.342514715879464 0.30746065607707723
0.9631399560649561 13.004146099172939 3943.216742827591 25.261997748572597 1.3165846919054993
