M[M_sun], R[km], Lambda[1], P_c[MeV/fm^3], rho_c[fm^-3]
0.24162668629717493 15.618656898711224 2160425.4255784233 3.5677272577965504 0.1711233750220791
0.25364193645436167 15.277371009730356 1723300.93470406 3.7848018237009753 0.17388795140530866
0.26603754110624217 14.981308054794688 1383096.824267646 4.011364104421286 0.17666620940614125
0.2788111386046072 14.723617179819088 1116523.1807918926 4.247670744845125 0.17945684765590786
0.29196515017596003 14.4984902632582 905951.8726733862 4.49434663137514 0.18226642697834505
0.3054986922567041 14.30131454367065 738689.4307466137 4.751545625973571 0.1850906195101603
0.3194139725352191 14.128230251345547 605159.5780692521 5.019952872633534 0.1879361068837374
0.3337104769245598 13.976061010532684 497733.3556133943 5.299788468858482 0.1907994347813302
0.34839040562160467 13.842111876788211 411053.2736653947 5.591785592928484 0.19368699230921071
0.36345207731885326 13.724059807802478 340692.7573296865 5.896105753168607 0.19659373597431667
0.37890336026159627 13.620082663007846 283350.25193512393 6.213615379950197 0.19952739609913314
0.3947338672884591 13.528531454661358 236453.44571824692 6.544575885946814 0.20248422232434837
0.41095676706634243 13.447948908645024 197901.4764963514 6.889681652999604 0.20546779061751008
0.4275637847586445 13.377118195486421 166114.34653006212 7.24964122867149 0.20848123867726454
0.44455628952944654 13.315009651878729 139834.15708469262 7.6247193690347395 0.21152020608322697
0.46193565912637446 13.260636841070276 118004.10004642609 8.015853466877141 0.21459067588210548
0.47969814613225065 13.213218034925639 99832.43164673766 8.423753659831961 0.2176943807691675
0.49785274302302324 13.17204936032434 84664.4082325146 8.848868717865065 0.22082890370979405
0.5163881447037653 13.136467524334133 71956.96614328372 9.292056066069456 0.22399742910936052
0.5353055892655321 13.105890505184409 61293.79087336453 9.754207663983857 0.22720298368318123
0.5546094704571045 13.079868837159468 52314.99512714737 10.236132799731811 0.23044691788616864
0.5742895016810414 13.057877031323128 44742.94534727746 10.73831359412689 0.23372606906103524
0.5943440156626297 13.039552461432773 38337.28836637132 11.261972737969915 0.2370463502453946
0.6147784140119161 13.024528171020025 32911.44746257157 11.808057842295975 0.24040950935447938
0.6355771419011157 13.012451678685384 28302.936342959994 12.377547529497967 0.24381717865150715
0.6567471435748926 13.003034077564717 24378.824404120634 12.971145860029269 0.24726748030831633
0.6782765230312644 12.995987816292756 21035.43222508544 13.590149302048376 0.2507648624931436
0.7001616633726591 12.991073061825004 18178.75140368503 14.235769425149071 0.2543121253766608
0.722392084603166 12.988000180456172 15735.538383405587 14.909195417456724 0.2579112526244185
0.7449782652684737 12.986652260105853 13639.649516838525 15.611475765108874 0.26156233191602835
0.7678951685544172 12.98676003476539 11840.161303228617 16.343838650398922 0.2652668813882623
0.7911368464395504 12.98812771195381 10293.197318386701 17.107917528532965 0.26902977421108454
0.8147069183208856 12.99066569506589 8959.90610398309 17.905166786123985 0.27285344166469877
0.8385863154016249 12.994124423799565 7810.046875105989 18.736973177608757 0.2767391599168383
0.8627641914821803 12.998398847730627 6817.3840012797 19.604637622566116 0.28068702400650897
0.887236646698426 13.003328248558674 5957.589144832304 20.510265782639777 0.2847035808399183
0.9119959349441891 13.008826350409922 5213.5936646879 21.455650901347013 0.28879184200842367
0.9370122215780873 13.01471601858548 4567.360671868752 22.442304247613244 0.2929519509009006
0.9622861223646622 13.020918450878932 4006.4847482458963 23.472195849804887 0.2971872669306601
0.9878093999337151 13.027323242990137 3518.143681742624 24.547773236353276 0.3015041028727217
1.013548760794461 13.033771845447204 3093.6444388867794 25.67101049693448 0.30590433042810905
1.0395091665684189 13.04022605162291 2722.8080897150417 26.84380374470555 0.31038873165533687
1.0656602443708436 13.04655497870518 2399.284468170485 28.069279293127707 0.31496627203853805
1.091985521157712 13.052682522497797 2116.6919641889885 29.349528520851912 0.3196376520362601
1.1184814299694852 13.05851552464144 1869.4998404777928 30.687232171754655 0.3244070479468285
1.1451090076352772 13.063968696971054 1652.8992729311626 32.08586617076545 0.3292830355464492
1.1718691284993914 13.068987440048323 1462.8812941255503 33.54728681794406 0.3342627658352333
1.1987221756705915 13.073440816165864 1296.1002364951592 35.07607460577885 0.3393600680502006
1.2256655929136873 13.07731851897107 1149.6299553784504 36.674300633607196 0.3445720005105725
1.2526578543147289 13.08048179467269 1020.70283869869 38.34692703986027 0.34991245965263007
1.2796977034906676 13.082929696395638 907.1927020713414 40.09626615885648 0.3553784685875267
1.306738995817202 13.084520387790022 807.177538373094 41.92776598690752 0.3609844531114675
1.3337733718680655 13.085233938589685 718.9261344533897 43.84483220587019 0.3667319218766297
1.360778652835813 13.085035551583088 640.9636803477036 45.8522779353512 0.37262933003794135
1.3877088616864683 13.083783577126383 572.136134652127 47.9553704042725 0.3786862784623258
1.414562714521475 13.081500134156537 511.1026233826052 50.15878681482196 0.3849080247627729
1.4412842719162156 13.078052333295911 457.107242927875 52.46789172670322 0.3913023022847786
1.467876758693283 13.073463351442072 409.2375306248818 54.889023896800275 0.3978804130712845
1.4942847835784976 13.067602566688858 366.74686028478567 57.42836828402046 0.40465140991298126
1.5204953280778726 13.060468501326012 329.0247183950429 60.09254751688115 0.411625055011918
1.5464782204122312 13.051987664080194 295.464063948876 62.8886612888863 0.4188118783812616
1.5721931571987275 13.0421184725902 265.6287129278483 65.82432952508182 0.42622324101129844
1.5976159659716758 13.030799711955284 239.05872403394844 68.90773970253035 0.4338714033595497
1.6226968295213173 13.01796128745486 215.36474781851868 72.14769875502661 0.44176959979119784
1.6474547179095125 13.003662231653585 194.2117404714431 75.55369004631558 0.4499321196716913
1.6718048229052018 12.98773912665523 175.33947811118384 79.13574591305486 0.4583736022339162
1.6957412050316354 12.970202299676101 158.45583042792194 82.90384650894372 0.46710645202027357
1.7192067668223474 12.950969679781084 143.3758371521258 86.87081752645531 0.47615262271607
1.7422102241830157 12.930080793928347 129.86301437939045 91.04834907783653 0.48552692854163076
1.7646908390678964 12.907443998725146 117.75210522616041 95.4502765234978 0.4952503045331343
1.7866192329688513 12.883022805842318 106.88588828808072 100.0905074324749 0.5053412453647498
1.8079595852719774 12.856782196299019 97.14408528270548 104.98542878190408 0.5158249389545081
1.8286724118020128 12.828664306648934 88.38079830243038 110.15153088881524 0.5267237691237504
1.8487545300920543 12.798713001582238 80.51444614214188 115.60639195584767 0.5380609593786208
1.868143807099669 12.76682406344465 73.42616137923608 121.37037607138363 0.549866455534639
1.886817630190647 12.73299264688884 67.04756608980173 127.46478258618536 0.5621696444236856
1.9047441542526593 12.697194241033309 61.29629331833617 133.91218466478588 0.5750003393643242
1.9218904311857983 12.659400388720757 56.10910564833821 140.73792621481755 0.5883936871974906
1.938208801149292 12.619529019497724 51.42330546660076 147.96981679924897 0.602388486329879
1.9537116695799641 12.577714642643425 47.19451291551014 155.63651361798003 0.6170211042498469
1.9683334201474152 12.533800563354173 43.365377756762896 163.77143119394083 0.6323384055764398
1.9820574363857988 12.487825608827684 39.901936076704864 172.4081730444943 0.6483814587046332
1.9948510143379972 12.439768844691349 36.76787347309119 181.5863084609665 0.6652044576651079
2.0066885046082366 12.389617240327183 33.92639206517063 191.34762706380027 0.682861194053854
2.0175485688220243 12.337381828398314 31.346633492876897 201.73811142718512 0.7014108338373674
2.027392624902366 12.283019638460088 29.008851211776456 212.8078662819465 0.7209166746902953
2.0362112672186967 12.226577524449425 26.885236090294146 224.61189389288782 0.7414475842689803
2.043964360153535 12.168008863393391 24.956821465735537 237.2117175027197 0.7630820154357486
2.0506337582991625 12.107329301072987 23.201532194445967 250.67376935588757 0.7859013069636157
2.0562097932463885 12.044586671848496 21.605484128837908 265.07127263582026 0.8099941991535043
2.060674263739957 11.979783352994575 20.15427783568053 280.4861014596422 0.8354610233273576
2.0639950126083644 11.912927585664905 18.83230399146138 297.00734997412275 0.8624069040258275
2.0661604694982025 11.844039704407182 17.628230681573193 314.73550817124357 0.8909529516491914
2.0671641139692483 11.77317673829712 16.532183320675795 333.78008474947853 0.9212256648349884
