M[M_sun], R[km], Lambda[1], P_c[MeV/fm^3], rho_c[fm^-3]
0.24162668629717493 15.618656898711224 2160425.4255784233 3.5677272577965504 0.1711233750220791
0.25364503695892776 15.277267929020566 1723209.7420844343 3.784839880959554 0.17388842577067742
0.26604191584167275 14.981232203535527 1383007.2650562318 4.011444108500266 0.17666717620822053
0.2788181164514733 14.72347293659728 1116428.0550661962 4.247795402536707 0.17945829349727507
0.29197394227100637 14.49836985649926 905837.3118045885 4.494519213925885 0.18226834872510195
0.30551106039966736 14.30113427063621 738614.548478778 4.751771993512439 0.18509306471160902
0.31942829552380797 14.12807355978432 605028.3908447016 5.020234692776668 0.18793903087649502
0.3337265490016713 13.975928432614435 497643.46052430314 5.300133161326423 0.19080290526253413
0.34841083701030706 13.84194446264092 410955.4487114014 5.592194018471186 0.19369094393869035
0.36347524042024054 13.723896023678334 340617.9060031379 5.8965870878222635 0.1965982567712451
0.37893030876153755 13.619948126855654 283265.75850499514 6.214175448722746 0.19953250325197208
0.39476402027244534 13.528377576551456 236369.1443948728 6.545214107481101 0.202489818665009
0.41099070418879324 13.44779008534688 197826.59655702094 6.890410348350375 0.2054739964929024
0.42759943148894175 13.377025306285143 166044.5676003639 7.250467236020938 0.20848807202437897
0.44459751677625575 13.31489034780656 139777.03758197464 7.625640405511609 0.21152753812580735
0.46197899331056475 13.26050252107771 117948.5056324591 8.016885597837897 0.21459866024952895
0.47974723039395845 13.21309889848902 99791.15621268214 8.424904933899684 0.21770303674070515
0.49790629351511934 13.171933448067916 84622.92887349922 8.850134890219453 0.22083807133863365
0.5164468696386502 13.136353628592127 71924.01193635579 9.293457627681265 0.22400729619048482
0.5353678647974619 13.105802923655508 61261.69867835008 9.755754118063932 0.22721357152639926
0.5546758355842278 13.079776293698355 52288.78764124504 10.237832900645733 0.2304582316739415
0.5743613933752044 13.057810868432181 44717.39640667813 10.740162601854546 0.2337379402633977
0.594420486743258 13.039494545911065 38318.0646129513 11.26399713309488 0.23705899870276947
0.6148607861636511 13.02447758538778 32892.003154013924 11.810269584303109 0.24042296043609282
0.635666393369426 13.012411618239186 28283.507827313006 12.379959324007901 0.24383145906576278
0.6568390787526096 13.002997964887047 24363.052780722122 12.973746631678525 0.24728234525256687
0.6783716486933917 12.995978313438547 21020.590919050683 13.592975983056482 0.2507806006956836
0.7002643245453637 12.991058291198998 18166.72529671467 14.238837172139053 0.2543287680538029
0.7225010833154879 12.988002524836608 15724.031798576078 14.912520360910621 0.2579288328538062
0.7450914563855785 12.986651176198414 13629.359470731946 15.615042630020444 0.26158056336346125
0.7680138424120311 12.986764758928505 11832.084901374783 16.347695740476972 0.2652861080149098
0.7912626343964398 12.988145235806304 10217.961616163338 17.112084202262235 0.26905003533447586
0.8148393592031994 12.990667125250807 8953.241403966924 17.90966368545569 0.272874779130484
0.8387240576655823 12.994138242357474 7804.956131677075 18.741780356826375 0.2767612464180419
0.8629075898838413 12.998415314545253 6811.533437297384 19.609817587847637 0.280710263243894
0.8873918954001053 13.003362950659055 5953.107431403005 20.515843465730093 0.2847280231120535
0.9121502008243502 13.00886220228262 5209.217983538893 21.461652941287007 0.288817541005334
0.9371718858349449 13.014763004747635 4563.416512030463 22.448705641823054 0.29297853864804696
0.9624599677902218 13.020964447923832 4002.8435465563443 23.47907693269993 0.2972152130528658
0.9879819699629147 13.027352367353608 3515.1823359552986 24.555166397411302 0.3015334723919069
1.0137262267439724 13.033809188501888 3090.5858118546475 25.678887117881924 0.3059347278252968
1.0396936817548759 13.040262934976461 2720.255430768338 26.852260120553588 0.31042067832055503
1.0658472426941648 13.046598426926886 2397.1825420961522 28.078355008869536 0.31499984705749073
1.0921817937281268 13.052723411457354 2114.731249427019 29.359191410134294 0.3196724325046324
1.1186827073426153 13.058561204394453 1867.5969554879005 30.697597601648482 0.3244436126724421
1.145315481519676 13.064011124372497 1651.1611770569998 32.09690031022526 0.3293209477628141
1.1720809643994627 13.06902390908103 1461.364503733511 33.55911909821542 0.33430264183970687
1.1989395917048924 13.073477314790265 1294.8255910961457 35.08876087380075 0.339402018099294
1.2258878379927696 13.077349384108512 1148.5289793574675 36.68780407432584 0.3446155605200432
1.252885783858252 13.080502305324766 1019.6490200572479 38.36134587299468 0.34995798116590826
1.2799306359277687 13.082943199921283 906.2877441773827 40.11167694163785 0.35542614440104237
1.3069829416952399 13.084544826387582 806.412788547533 41.94417527528383 0.3610340608762254
1.334015189543541 13.085239985599944 718.2607916913138 43.862423977943244 0.3667842137210253
1.3610246963133101 13.085030353664415 640.3043938272677 45.871015330010565 0.37268381583632815
1.3879582900270095 13.083769681819057 571.522343893234 47.97533345557142 0.37874309975053566
1.4148102752406853 13.081459908144417 510.6063307866318 50.18019442727989 0.3849680112520477
1.441541261132261 13.078014298554667 456.6482687565333 52.49070991586633 0.3913649524829838
1.46813604489022 13.073412518819046 408.7988576851741 54.91335370053547 0.39794590452731987
1.4945479499935876 13.067540630956675 366.34340237906315 57.45431892446654 0.4047199339013047
1.5207607626004094 13.060386490594645 328.68727476520087 60.12023713321646 0.41169681765972327
1.5467442208235394 13.051895582369202 295.13852106271764 62.91821774321427 0.4188871019073686
1.5724614042793592 13.042006102679577 265.32283088987043 65.85589128957645 0.4263021650887398
1.5978753422617957 13.0306646651311 238.7952958397988 68.94145683697364 0.4339542866152462
1.6229745769793775 13.017842518013868 215.1230255423788 72.18373398499686 0.4418567214577224
1.6477261931274492 13.003493860213252 193.98000601974888 75.59221995355111 0.4500237814079107
1.67207381656519 12.9875530935953 175.14394324816433 79.17676105857971 0.45846929009918197
1.6960115379305216 12.969990771169726 158.2798105385719 82.94774706484071 0.4672073353698657
1.7194899853024384 12.950772733572828 143.19979842708693 86.91782948378517 0.476259081669099
1.7424719938283495 12.929819757509563 129.7099459332652 91.09849200487515 0.48563847809734373
1.7649545237497963 12.907162509747188 117.60872923577698 95.50403347107462 0.49536825927946093
1.7868801159897878 12.882721067238519 106.76242893600107 100.14792520848091 0.5054651504343711
1.8082171101714966 12.856449822887141 97.03247281055496 105.04680512986047 0.5159552717580435
1.8289298994872991 12.828315484383138 88.28310870573138 110.2172258157138 0.5268611772218955
1.849003254116165 12.798323126354244 80.42001184963414 115.67695777743201 0.538206724015621
1.868376193424587 12.766374790857494 73.34656538218253 121.44597641930964 0.5500203501385795
1.8870515075866319 12.73254471150318 66.96968577871884 127.54572308044617 0.5623319053340925
1.9049735156520564 12.696713694385238 61.2240922748729 133.9988694602983 0.5751714820660558
1.9221130818669887 12.658883723778036 56.04410894164617 140.83103220801746 0.5885750930786638
1.9384224214762944 12.618982052526958 51.362284131989725 148.0699015588034 0.6025810043444092
1.9539155018938108 12.57712293498559 47.13948128850583 155.74385988520544 0.6172245361717519
1.968528319870597 12.53318204563054 43.318201303460384 163.8867086774054 0.6325537739758107
1.9822393262862508 12.48716719262931 39.85804449527208 172.53240462212102 0.6486108387295212
1.9950226687387336 12.439073687382965 36.726603056846315 181.71996367421667 0.6654479124892776
2.006856107220593 12.3888986785786 33.885260435047314 191.4915738585966 0.6831199689332416
2.017697744666165 12.336609718096533 31.31106776556517 201.89330724954962 0.7016862911132589
2.0275293911277252 12.282214492777516 28.9759269136166 212.97497708542056 0.7212090250430514
2.0363335937507023 12.22572738238615 26.855277442549532 224.79246644947798 0.7417597082318693
2.0440721823711328 12.167119395326111 24.92888337614779 237.40663152399264 0.763414361747126
2.050725827166127 12.106393967688271 23.176193643355194 250.88457454132538 0.7862562344927659
2.0562929905523317 12.043629734131793 21.583557790049056 265.2996281337884 0.810374110114928
2.060733062855668 11.978764853722808 20.13194781928674 280.73312465721386 0.8358661988655207
2.0640310915412803 11.911852691170667 18.812080833163847 297.27535198998186 0.8628411153124192
2.066186785422332 11.842933782197866 17.61065758089158 315.0266410865293 0.8914189981851265
2.0671713283042634 11.7720279965216 16.515463420732118 334.09626874980194 0.9217250522068995
