M[M_sun], R[km], Lambda[1], P_c[MeV/fm^3], rho_c[fm^-3]
0.24162668629717493 15.618656898711224 2160425.4255784233 3.5677272577965504 0.1711233750220791
0.2536414428672928 15.277357986270044 1723182.4521663957 3.784794922365489 0.17388786538349113
0.2660365847841385 14.981346450637231 1383044.8491657835 4.011349596536138 0.1766660340869112
0.27881085100915326 14.72358454217687 1116494.9795431264 4.247648139688313 0.17945658547015408
0.291963014481878 14.498545760750678 906028.8294724738 4.49431533587603 0.18226607849569917
0.30549666009908527 14.301332163979911 738723.6407674046 4.75150457762833 0.18509017610968975
0.31941109533449796 14.128267691987544 605173.916512063 5.019901769182036 0.187935576665704
0.33370750629987334 13.976061474874799 497756.4546221192 5.299725965034292 0.19079880547153322
0.3483866450456143 13.842095559946054 411080.99058813526 5.591711532790726 0.19368627575700467
0.3634467725791563 13.724106025742229 340716.8083103752 5.89601847303094 0.19659291622079328
0.37889906041907656 13.62010237930105 283363.34733198525 6.213513823772179 0.19952647002907123
0.3947281433763417 13.528572156011457 236454.62632316782 6.544460159284884 0.2024832075578623
0.4109507069177965 13.448001257354557 197919.24724021342 6.889549521996266 0.20546666533443905
0.4275561425025308 13.377179366356362 166122.83292046984 7.249491453637554 0.20847999962679284
0.44454892365123905 13.315039315630239 139844.1298069052 7.624552364038757 0.2115188766160751
0.461927061983022 13.260664498821486 118013.55803498242 8.01566631927259 0.21458922814408193
0.47968909079315214 13.213250349905163 99836.9839099084 8.423544910527276 0.21769281126622245
0.4978428730576813 13.17207074149399 84671.05384940321 8.84863913663801 0.22082724144361768
0.5163779268317307 13.136483858399552 71963.53810286036 9.291801938004301 0.22399564003193878
0.5352943226836405 13.105899280269817 61297.16062491509 9.753927266336916 0.22720106393246714
0.5545976836171538 13.079881313103357 52321.24220151588 10.235824305092104 0.23044486343221232
0.5742748816610954 13.057900895939344 44747.96728500208 10.737978342946036 0.23372391664460632
0.5943299559172154 13.039572631173174 38344.904140283994 11.261605689169606 0.23704405691784808
0.6147641258551324 13.024532338021173 32915.68700464208 11.807656827928819 0.24040707051804938
0.6355614265075048 13.012473040480637 28307.12551798069 12.377110246381 0.2438145894657239
0.6567306458334005 13.003059955636306 24382.45156716794 12.97067431620923 0.24726478515720662
0.6782592185776892 12.995991206373555 21037.46575407872 13.58963680237619 0.25076200903227575
0.7001432511485511 12.991075835314753 18181.06421095594 14.235213222205713 0.2543091079485476
0.7223723689255579 12.988015252632808 15736.549232143241 14.90859258731799 0.2579080652342365
0.7449570320108692 12.98665111736436 13640.981100708123 15.610829077067248 0.26155902647572465
0.7678731357021299 12.986749780675426 11841.224761638563 16.343139348192516 0.26526339554215445
0.7911143486106328 12.988133211984545 10294.263901359845 17.107162103189708 0.26902610083344874
0.8146860699201035 12.990639954581017 8961.183984408777 17.904351496059505 0.2728495731716388
0.8385629954162832 12.994117254063688 7811.230877960516 18.736101638686385 0.2767351556464363
0.862739678596115 12.99838728251018 6818.498222256847 19.603698504414087 0.2806828107756316
0.8872106353303622 13.003322439117014 5958.724750579688 20.50925456621016 0.2846991495327321
0.9119672353489938 13.008817885848204 5214.1796753124945 21.454562758176362 0.288787182894479
0.9369827775167512 13.014723852883655 4568.012995547916 22.441143710055716 0.2929471306885965
0.9622588465158015 13.02090942139797 4007.0534801371114 23.470948356388515 0.2971822004892298
0.9877786394968086 13.027300339116655 3518.7642732527684 24.546432916467197 0.3014987784180941
1.0135164651650717 13.033755902381932 3094.0620325022373 25.669582538168974 0.30589881966022364
1.039476365037681 13.04020948626079 2723.22401718993 26.84227069310164 0.3103829400624332
1.065625954291758 13.04655245072608 2399.6710985466625 28.067633974073587 0.3149601852879173
1.0919509679139487 13.052673895781357 2117.2003980514833 29.347776764870954 0.3196313467903123
1.118445138993077 13.058508035365032 1869.8255481552403 30.68535306864762 0.3244004192888556
1.1450720416614157 13.06396938380791 1653.1676905837946 32.08386585264645 0.32927616265041576
1.1718307135169062 13.068980803588303 1463.148160080423 33.545141825997355 0.33425553699121496
1.1986818794897307 13.073438249698537 1296.3098844773122 35.07377481845542 0.33935246327699575
1.225625381522726 13.077313169980535 1149.7863543136239 36.6718527236415 0.3445641039319515
1.2526174029351413 13.080480782765946 1020.8836658767151 38.34430284872089 0.3499041467903804
1.2796551114242836 13.082919578130323 907.3576759624585 40.09347252612284 0.3553698260211412
1.306695384738331 13.084513567835415 807.3381603496074 41.92479136731294 0.3609754603857802
1.3337286017416077 13.08523795283825 719.1121565973621 43.84164325648868 0.36672244266986465
1.3607342642860834 13.085040500900384 641.0893208173378 45.848881336839305 0.3726194531908618
1.3876631607421872 13.083789893010499 572.2315797501196 47.9517516520142 0.37867597832524
1.414515925692674 13.081504657747377 511.1877768452146 50.1549062374708 0.38489715095738647
1.4412374963673846 13.078062928171189 457.20126872226473 52.463755483312745 0.3912909457101448
1.4678312459720155 13.07346873263505 409.3328955510037 54.884613676846755 0.3978685415523304
1.4942370633524789 13.067612168408528 366.81599138364203 57.423664294015225 0.40463898878769683
1.520447620300593 13.060479245328354 329.09036696547975 60.08752834761789 0.41161204692716336
1.54642958466961 13.052005935656906 295.52431804924476 62.883303769444105 0.41879824306833957
1.572144082804546 13.042137899860702 265.6719988412076 65.81860856210933 0.42620893503912266
1.5975675153788125 13.030824380946198 239.11166221467602 68.9016281031569 0.43385637986298187
1.622655185166572 13.018022311588574 215.40930471613615 72.14116703154369 0.44175380817184146
1.647405452412767 13.003692382040574 194.2470716552627 75.54670620053982 0.4499155052680961
1.6717577886394677 12.98777362348134 175.37201205810354 79.12831165423083 0.4583562581931332
1.6956947191654432 12.970241875852683 158.49538173010353 82.89588932435342 0.4670881664332601
1.7191576780003612 12.951008131748189 143.4018081070629 86.86229646612207 0.47613332670685665
1.7421629096214328 12.930127277422269 129.8908400747143 91.0392605945006 0.48550671001155876
1.7646430359359362 12.907495728653778 117.77092754895907 95.44053309022702 0.4952289252649352
1.7865721097816187 12.88307797273951 106.90814772469807 100.08010056617847 0.5053187877987713
1.8079132784414684 12.856841693629454 97.16366168111365 104.97430453246142 0.5158013165874993
1.8286266200505117 12.828727153000239 88.40342116321126 110.13958335732644 0.5266987132573524
1.8487094463526785 12.798782203004775 80.5303674713292 115.59360240708517 0.5380345405842114
1.8681002508415505 12.766900966039808 73.44295549824024 121.35667418733127 0.5498385635198887
1.8867748968344011 12.733073970510635 67.06330849880602 127.45009146201221 0.5621401594546925
1.9047021933206687 12.697281487568876 61.306565678664256 133.89647413204852 0.5749693218946235
1.9218494328462838 12.65949391162156 56.11955001582689 140.7210521058623 0.5883608100163464
1.9381697149873678 12.619627159534089 51.433741402058736 147.95167809595804 0.6023535956316421
1.953673917170862 12.577820712729686 47.2025947358916 155.6170590902994 0.6169842359724664
1.968297089082982 12.533912626148194 43.374020347353714 163.75048185825653 0.6322991793274039
1.9820236224372736 12.487944342673176 39.91222469336623 172.3856588926038 0.6483398887848137
1.9948198134911819 12.43989248957409 36.77477012764509 181.56208677305096 0.665160337524717
2.0066591411768835 12.38975146306295 33.932812691254064 191.3215405998054 0.6828142981046703
2.0175222005659594 12.33752099291391 31.35396470920118 201.70998673632369 0.7013609152853603
2.027367950956394 12.283169508077412 29.014096593743893 212.77758271405114 0.7208636954000707
2.036188489807909 12.226732357622552 26.891014048601562 224.57917125151533 0.7413910224043524
2.0439447139429037 12.168169930958943 24.961787592222432 237.17639641961432 0.763021789744404
2.0506160507990128 12.10749856241756 23.205313843118883 250.63551808309126 0.7858368239639568
2.056195379326206 12.044763416986491 21.609319221712326 265.0298829323848 0.8099253242822966
2.0606620153266255 11.979969701873888 20.157292621901703 280.44133938825854 0.8353876031120075
2.063986348885681 11.91311996070026 18.835602226076876 296.95878716214577 0.862328223568886
2.0661552910610284 11.844240349467672 17.63157599630567 314.68275480934506 0.8908685038925797
2.0671628551375303 11.773383739579868 16.535381881415173 333.7227930255816 0.9211351771335238
