M[M_sun], R[km], Lambda[1], P_c[MeV/fm^3], rho_c[fm^-3]
0.24162668629717493 15.618656898711224 2160425.4255784233 3.5677272577965504 0.1711233750220791
0.25364497011521936 15.277256394950545 1723329.3549258208 3.7848377690873205 0.17388839944720882
0.2660412873831113 14.981249750409157 1382884.805172817 4.011439668886465 0.17666712255810782
0.27881731290724526 14.72349156630111 1116406.8847593234 4.247788484944287 0.1794582132636276
0.291973555494079 14.49835414615164 905776.8599661365 4.4945096367926824 0.18226824208150097
0.30551029033981214 14.301165178022638 738609.4653813011 4.751759431605073 0.1850929290190347
0.3194281882564051 14.128058809354176 605042.0271064311 5.020219053519926 0.1879388686131701
0.3337252591260831 13.975942562464672 497643.38181678724 5.300114032928613 0.19080271267130794
0.34840961695830647 13.84190277366004 410953.15280448395 5.592171353131353 0.19369072464529247
0.3634736514769698 13.72391164053505 340618.440539468 5.896560376269738 0.196598005890691
0.37892734835452035 13.619955570187487 283263.8102440738 6.214144367649955 0.1995322198300123
0.39476286654042114 13.528381015713451 233251.95395120868 6.54517868911623 0.20248950809379695
0.41098865077352287 13.447800396569573 197833.0793980971 6.890369908863006 0.20547365209325819
0.4275989270170381 13.376988405989428 166060.52513108254 7.250421395860589 0.20848769280048024
0.4445952750414771 13.314866172564445 139776.8908384831 7.625589291337085 0.21152713122411185
0.4619783489179279 13.260528683235627 117961.94728577303 8.016828317989745 0.21459821714359473
0.4797441270816332 13.213109295265507 99793.22356614788 8.424841041633204 0.21770255636018096
0.49790413948294066 13.171930812649393 84625.91074331196 8.850064621083572 0.22083756256006618
0.5164427010610059 13.13636593846047 71926.7561242646 9.293379844363026 0.2240067485910752
0.5353643576084781 13.105803139756768 61261.93454899557 9.755668293070375 0.22721298392306355
0.5546732618114092 13.079784070482356 52294.70221334631 10.237739392742036 0.230457614639918
0.574357398084757 13.057808496970065 44719.713778236335 10.740059984675703 0.2337372814293227
0.594416021747568 13.039520752412622 38319.615761879424 11.263884781542625 0.23705829672823783
0.6148557459703996 13.024474754181208 32616.42370529909 11.81014683452736 0.24042221391265278
0.6356612432942123 13.012416156530271 28283.950741095818 12.379825470737119 0.2438306665106142
0.6568341106198174 13.003014998089078 24363.957103976067 12.973602289596657 0.24728152025241718
0.6783677167083091 12.995966994339732 21022.38880125457 13.592819102190752 0.2507797272250541
0.7002580603997435 12.991059090545052 18166.90011765835 14.238666911150368 0.2543278443796297
0.7224949427205106 12.988004163699216 15724.679487084166 14.912335824395301 0.25792785713968813
0.74508467607707 12.98663970391847 13533.144555493167 15.614844665787553 0.2615795515016176
0.768003941432169 12.98678248590822 11832.566973355033 16.347481667281944 0.265285040913724
0.7912533943581276 12.988143293839425 10286.683603694015 17.111852945494597 0.2690489108111249
0.8148320912898 12.990662256043871 8953.26502293538 17.9094140992505 0.27287359486178664
0.8387164771175677 12.994132069608584 7805.286907979206 18.741513548282224 0.276760020570832
0.8628994937141465 12.998406377202434 6811.931052424847 19.60953008725981 0.28070897341007356
0.887382725421436 13.003376308559753 5953.362241392747 20.515533889073975 0.28472666649914574
0.9121413854482829 13.008859737173385 5209.329710550589 21.461319809751135 0.288816114632568
0.9371631646825284 13.014766807903946 4563.69696939305 22.448350343249942 0.2929770629400506
0.9624482596718439 13.020967330699593 4003.099854262334 23.47869500759868 0.29721366194154863
0.9879716414194843 13.027351931287805 3515.2861817107855 24.55475604771041 0.3015318422673474
1.0137158376922488 13.033808834052227 3090.693116758358 25.678449932172665 0.30593304064144755
1.039682752168312 13.04026465577528 2720.3793492702875 26.851790753214665 0.3104189051352673
1.0658367480566484 13.046594862533725 2397.2980143414693 28.077851262330416 0.31499798347999675
1.0921709923027563 13.052726323319924 2114.8394263470773 29.358655069993304 0.31967050200943936
1.1186711496554205 13.058555498675226 1867.657077397991 30.697022263374595 0.32444158312939997
1.1453044348539605 13.064011207883583 1651.4435657353106 32.09628785186383 0.329318843416209
1.17206944461121 13.069021849269044 1461.4318988559112 33.55846233434766 0.33430042847775737
1.198928236352504 13.07348177612261 1294.8813614541966 35.088056703954855 0.3393996896005145
1.2258754574108126 13.077341080682109 1148.5757133669456 36.68705454225865 0.3446131426456195
1.2528740224478356 13.080505019167232 1019.7240892135583 38.36054793632618 0.34995546853983456
1.2799176350495622 13.08294000964251 906.3408950237308 40.110821529161036 0.35542349804061396
1.3069622577176143 13.084525433047038 806.4149079107839 41.943264433454125 0.36103130726338223
1.3340025615497308 13.085242324042545 718.2908260396088 43.86144749260282 0.36678131110159257
1.3610114725639244 13.08503096920344 640.347165274909 45.86997524757715 0.3726807914178963
1.387943857529096 13.083769720937445 571.5434958439215 47.97422533263737 0.3787399456749555
1.4147968359999974 13.08145507003679 510.6133369016924 50.17900611028692 0.3849646814568782
1.4415269780720918 13.078018602141244 456.6867134904293 52.4894432915884 0.39136147480727973
1.46812284771507 13.073413667257135 408.8379582320152 54.912003159301555 0.39794226911320774
1.4945331140487783 13.067542537613608 366.3605063504448 57.452878402156074 0.404716130128747
1.520745542167556 13.060391322811512 328.70582982441607 60.11870007056511 0.41169283408391755
1.5467318954568772 13.051898917527991 295.1571254688465 62.91657704105912 0.41888292618994216
1.5724464447971633 13.042012116241493 265.34114503918886 65.85413925958643 0.426297783922071
1.5978611147097126 13.030671142609766 238.80651048442095 68.93958514736146 0.4339496856391766
1.6229583478354623 13.017850786571461 215.13312391015145 72.18173360063815 0.44185188516781493
1.6477093595332255 13.003506547348232 193.9935033123621 75.59008106987442 0.4500186930543318
1.6720587912052516 12.987562638800792 175.14457961751768 79.17448419996663 0.4584639782140866
1.6959960886119854 12.970003138379028 158.29092301873192 82.94531001153321 0.4672017350284629
1.7194763152344574 12.950784468681192 143.21224314104936 86.9152196873998 0.4762531717643304
1.7424560966701195 12.929828083928156 129.71671925463687 91.09570837921896 0.4856322855548745
1.7649397961371183 12.907178674488602 117.61763718057598 95.50104919359156 0.4953617111083063
1.786865827813251 12.882739273187159 106.76955610372417 100.14473768046201 0.5054582718871933
1.8082031020750933 12.85646831226705 97.03803834424296 105.04339781841958 0.5159480363250567
1.8289161494967356 12.828333710519424 88.29265040288013 110.21358068724356 0.5268535562278968
1.8489886604146186 12.798345112851845 80.4224451961678 115.67304024798378 0.5381986317516164
1.8683627617053775 12.766398427040205 73.35132272706235 121.4417793598702 0.5500118064636116
1.8870378755201198 12.732570303374677 66.97230838242439 127.54123888257719 0.5623229305670885
1.9049607820295835 12.696741133574132 61.22922659579154 133.9940569567992 0.5751619806898794
1.9220990371322484 12.658913196175655 56.04574757260248 140.82586317173408 0.5885650218302987
1.9384105364862616 12.619013199603389 51.366586439240685 148.0643450266644 0.6025703160783852
1.9539044511742187 12.57715531737701 47.14268896551473 155.73790015693442 0.6172132418901011
1.9685175254969778 12.533216771159228 43.32038770253291 163.88030962774937 0.6325418204978733
1.9822286406286667 12.487203724930541 39.860696419600195 172.52550731398995 0.6485981036041932
1.9950128260252542 12.439110574777889 36.72682707238012 181.7125430985134 0.665434395807742
2.0068462694062754 12.388939689092183 33.885431012009555 191.4835818135905 0.6831056015380839
2.017689058188081 12.336652236927566 31.312763351046648 201.88469056224898 0.7016709973432663
2.0275216460422567 12.282257805218723 28.9787660162396 212.96569877273996 0.7211927931901205
2.03632691019527 12.225774362194247 26.857370442402704 224.7824406053979 0.7417423783216954
2.0440664892360423 12.16716813575578 24.930741459139668 237.39580929256184 0.7633959088483894
2.0507212256503338 12.106445826011667 23.177304737388734 250.8728777114072 0.7862365531832249
2.0562892187461257 12.043684483618428 21.584259380946335 265.2869699385996 0.8103530845497834
2.060730074644408 11.978820855595306 20.13306920155418 280.7194086956839 0.8358437014962495
2.0640299997541973 11.911911897357813 18.813386989304504 297.2604709969834 0.8628170054373688
2.0661852743737827 11.842995577691317 17.611583863292488 315.0104755284377 0.8913931203061425
2.0671710894943196 11.772091495859573 16.516543559917512 334.07871197476913 0.9216973226831605
