M[M_sun], R[km], Lambda[1], P_c[MeV/fm^3], rho_c[fm^-3]
0.24162668629717493 15.618656898711224 2160425.4255784233 3.5677272577965504 0.1711233750220791
0.25364390249703084 15.27729334357572 1723280.3440921938 3.7848192550925384 0.17388816867919532
0.26603989792006005 14.981252956473615 1383020.681649834 4.011400748601361 0.17666665222943154
0.2788148539494188 14.723522748812941 1116443.9372689237 4.247727841456921 0.17945750989056192
0.29196903031967514 14.498417923989598 888725.2849631857 4.494425678587674 0.18226730718740253
0.3055042173126303 14.301240056468831 738648.1766197438 4.751649307700625 0.18509173947069202
0.31942076788705076 14.12815187629081 605107.7267419581 5.020081952524336 0.18793744613742475
0.33371859280335137 13.975975668153186 497695.9554874513 5.2999463451037805 0.1908010243331563
0.3483997230491439 13.842037403341365 411011.97536842723 5.591972659606352 0.19368880223077936
0.36346246902733254 13.723995667640375 340653.93376008177 5.896326212832961 0.19659580657813852
0.37891556526569314 13.620007367111976 283307.3554228645 6.213871900318734 0.19952973525602358
0.39474803748860743 13.528446317460215 236414.47172558145 6.544868200586416 0.20248678552883995
0.41097210730681616 13.447883830154087 197871.9242235887 6.890015404806296 0.20547063298794938
0.42758054853555566 13.37705625687127 166086.32189313046 7.2500195493338175 0.20848436842714868
0.44457526600062763 13.31493410487344 139813.57937400564 7.625141212822508 0.21152356423102228
0.4619561920890352 13.260574074833409 117981.77647880538 8.016326191452812 0.21459433278887968
0.4797206704708542 13.213182231880802 99815.45392238555 8.424280951187281 0.2176983452630197
0.49787707270554743 13.171997007428109 84646.43559056494 8.849448631720763 0.22083310253388744
0.5164161554084961 13.136438119640236 71939.09572421171 9.292697986835877 0.2240019482715752
0.5353339409703779 13.10584600702592 61278.28414009114 9.754915943754742 0.22720783294140703
0.5546404090317592 13.079828573771923 52299.892829963515 10.236912055039292 0.23045210742252797
0.5743225945990136 13.057842888368237 44730.71462711621 10.739160439071707 0.2337315060679007
0.5943791889347702 13.039524014739358 37995.54055500839 11.2628999072853 0.2370521432160555
0.6148149274010092 13.024507867487687 32624.173420231593 11.809070812870583 0.2404156699056771
0.6356219009717475 13.012420915674037 28293.865472839632 12.378652119893259 0.24382371901320157
0.6567894359032954 13.003016094399886 24372.0144525632 12.972336997816662 0.24727428836346002
0.6783211702486235 12.99598037066861 21028.587734056644 13.591443900801238 0.2507720704721558
0.7002083087098313 12.991059121533947 18173.05624482386 14.23717442579561 0.2543197475737394
0.7224437266721713 12.987997330431845 15731.121852411618 14.910718206871989 0.25791930418607684
0.7450289171020614 12.986653470379755 13634.748911792309 15.613109347671317 0.2615706817064894
0.7679501006034737 12.986759334473664 11837.181725370574 16.345605147010506 0.26527568693081843
0.7911937199796281 12.98813099131868 10289.01717877546 17.109825804221266 0.26903905350956037
0.8147672255814581 12.990666127354292 8956.878768907543 17.907226293629627 0.2728632138805512
0.838651068062405 12.994131077302217 7807.982303268298 18.739174782468126 0.27674927515202613
0.8628307806251833 12.998401946602435 6814.900780022121 19.607009949250656 0.28069766714019434
0.8873098065713357 13.00335331203664 5955.696341924231 20.5128202482243 0.28471477490418584
0.9120655064568086 13.008846697543266 5211.4093235574965 21.458399704683618 0.2888036115882933
0.937085457115477 13.014738820188866 4565.450793616417 22.44523593864807 0.2929641274764075
0.9623630228277795 13.020936313941473 4004.5935169814547 23.47534721670147 0.29720006556798945
0.9878880482307673 13.027331081094923 3516.7151409157723 24.551159111096364 0.30151755334572583
1.013629706536765 13.03378917641708 3092.0511902503986 25.67461777387787 0.3059182516045559
1.0395940095695195 13.040243671342205 2721.5916574217395 26.84767652034466 0.3104033623043325
1.0657442307359883 13.046565115315355 2398.4945598962568 28.07343569424046 0.3149816483735958
1.092075324447278 13.052702721161687 2115.8958896589515 29.35395381721766 0.319653580386031
1.118572820108509 13.058535997782766 1868.7130772248256 30.691979192787592 0.3244237933711215
1.1452032102931617 13.06398838976485 1652.2256371643196 32.090919424096185 0.3293003980271682
1.1719664784254737 13.06900325725036 1462.1585796351244 33.55270557273201 0.33428102759756567
1.1988227586064706 13.073454596367519 1295.532986551885 35.08188443493323 0.33937927958016584
1.2257677843144703 13.077324379611094 1149.161554434463 36.680484678573315 0.34459194928236364
1.2527619727471875 13.080490882764911 1020.2431706015384 38.3535538133696 0.3499334447171467
1.2798033706343965 13.082934196275678 906.7628418349398 40.10332364388245 0.35540030208844364
1.3068470620713688 13.084520035699212 806.7993452123184 41.93528072193446 0.36100717129393134
1.3338850261060793 13.085230232486447 718.6447639499194 43.85288843554053 0.36675586915758507
1.3608910221658879 13.085033062262825 640.6683554244318 45.86085878051331 0.37265428197005307
1.3878225441138838 13.083774064293628 571.8499705567422 47.96451251274642 0.37871229985417937
1.4146796867223812 13.081487782499226 510.86610235653364 50.1685904226328 0.3849354955522388
1.4414016529593363 13.078034236748238 456.9019172156256 52.478341272235625 0.3913309928217042
1.4679968845888154 13.073439400508956 409.04690552539324 54.900165644855285 0.3979104046532489
1.4944050577477823 13.067574441554646 366.56073873264705 57.44025224668149 0.4046827901218941
1.5206160156754833 13.060430722568798 328.85618235715293 60.10522778899514 0.4116579182300562
1.5466001887453922 13.051944604134492 295.3121752624797 62.90219641701914 0.4188463263584501
1.572316179813751 13.042067290608237 265.4854531137461 65.83878291367206 0.42625938348871223
1.5977401435892222 13.030741368574464 238.94155767791588 68.92318006142463 0.43390935875627634
1.6228280861739484 13.01792219138114 215.25513205218064 72.16420059308984 0.4418094959604182
1.6475786169206854 13.003587477832195 194.10641606307962 75.5713342163936 0.44997409473416977
1.67192809321762 12.987651069026322 175.24537559654016 79.15452809462076 0.45841742084862735
1.695865102954749 12.970108887426901 158.37438089666563 82.92394992953389 0.4671526496222391
1.719345580629266 12.950897331311863 143.2889463663182 86.89234566047097 0.476201373347572
1.7423316225417798 12.929958237541529 129.78924427754592 91.07131088667794 0.48557801011436486
1.7648115387707115 12.90731530799923 117.68773594706113 95.47489317821952 0.4953043189702256
1.7867381979561459 12.882881986507476 106.8306010308819 100.11680036662408 0.5053979843759571
1.808077315190225 12.856631166489318 97.0911703021687 105.01353432136861 0.5158846211264726
1.8287880205855007 12.828499092870137 88.33919910244119 110.18163297187247 0.526786762053396
1.8488679057236603 12.798537689194355 80.46927653794921 115.63870524904775 0.5381277074919119
1.868255126154439 12.766631737898457 73.38624397462647 121.40499460183389 0.5499369261763596
1.886925437384274 12.732786064876453 67.01374687903183 127.50190069043802 0.56224414016275
1.9048490704110284 12.696974874624862 61.260976633358666 133.95187857268942 0.5750787074633747
1.921992215521762 12.659161417632193 56.07949864589447 140.78056024385052 0.5884767544989487
1.9383074980321986 12.61929109171841 51.39541357675216 148.01564622648075 0.6024766415133155
1.9538053869964798 12.577439119585648 47.165939395830186 155.6856678983436 0.6171142565315487
1.9684223389852333 12.533516002916256 43.34187158263894 163.82422734802265 0.6324370583332677
1.9821391986800465 12.487521466917896 39.88251841814666 172.46505856504749 0.6484864915986005
1.9949281467108848 12.439451875975646 36.74625701118823 181.647508726099 0.6653159347966365
2.0067678912915223 12.389295545478474 33.90583777536451 191.41353944084952 0.6829796855245756
2.017616700483504 12.337028225018777 31.329689569704943 201.80917425491356 0.7015369633468154
2.027455012367156 12.282647777552066 28.99382000303646 212.88438445486833 0.7210505386558852
2.0362671226683546 12.226191465017443 26.87223986543269 224.6945755363004 0.7415905014579898
2.0440153116686646 12.167599588716438 24.94404423592227 237.30096536673022 0.763234191242335
2.0506754922684256 12.106901222388936 23.189577714458462 250.77036961569036 0.7860640711024919
2.0562519832198602 12.044160807202836 21.595790946483486 265.1758560695903 0.8101682320634671
2.0607002838679356 11.979318149646303 20.142878757833902 280.5992070319557 0.8356465427910431
2.064008909046088 11.912429634661542 18.82300747425559 297.1300603431167 0.8626057168109785
2.0661718221545224 11.843534813626784 17.61981437861978 314.86880853336277 0.8911663393107808
2.0671671204987234 11.772651228793995 16.52480187518782 333.92485414952387 0.9214543165382619
