M[M_sun], R[km], Lambda[1], P_c[MeV/fm^3], rho_c[fm^-3]
0.24162668629717493 15.618656898711224 2160425.4255784233 3.5677272577965504 0.1711233750220791
0.2536399279959893 15.277430240977054 1723241.922049399 3.7847620394392374 0.17388745551367865
0.2660330400726538 14.981398110739997 1383167.6949401244 4.011280471051527 0.17666519874622474
0.27880488681460064 14.723716755335921 1116591.5177030826 4.2475404340407605 0.17945533624695142
0.2919556148948809 14.49862175968194 906105.9939880219 4.494166224840767 0.18226441810971467
0.30548687430651406 14.30147533499187 725634.3422140775 4.751308999418678 0.18508806349175888
0.3193984983299676 14.12840739398795 605232.9496409271 5.019658284232155 0.18793305041537242
0.33369235282117127 13.976222967679089 497843.58651166497 5.299428164505154 0.19079580711434524
0.3483693872610765 13.842285951280202 411166.3911240668 5.591358674292835 0.19368286175396957
0.36342581125653073 13.724281730086316 340801.53194608743 5.895602630846706 0.19658901054299735
0.3788738224582663 13.620323132447911 283432.59352604183 6.2130299673097005 0.1995220578407345
0.3947015947545543 13.528724972697635 236523.23020382744 6.543908792049977 0.20247837281207282
0.4109214050373743 13.448136198180375 197981.23333295915 6.8889200021944745 0.20546130407963925
0.4275230758555743 13.377301174635328 166191.0241198623 7.248777875984251 0.20847409638174133
0.4445130676060311 13.315134823932155 139889.5036683985 7.623756701836635 0.21151254263333708
0.4618887517220452 13.260761301777253 118058.53688155414 8.014774697355776 0.21458233072771002
0.4796473154234143 13.21334243226935 99880.7661301992 8.422550378641438 0.21768533377677102
0.49779675912157545 13.172162085070912 84707.09507835278 8.847545362635886 0.22081932205250862
0.5163283271864644 13.136558563853441 71994.04749984868 9.290591225293198 0.2239871165389735
0.535238893155336 13.10599222488548 61324.49324938879 9.752591408957288 0.2271919179457357
0.5545390808189014 13.07995396179791 52347.014842690165 10.23435459858867 0.23043507576023384
0.5742141958328593 13.057956112238761 44769.13220897601 10.736381173618184 0.23371366232278037
0.5942614085506907 13.039630693210487 38360.04511529245 11.259857043796103 0.23703313134991041
0.6146932950640234 13.02458311674713 32931.93417269937 11.805746380202683 0.24039545180836283
0.6354868024874067 13.012514801991655 28322.028496975927 12.37502702592731 0.24380225456283644
0.656650616892654 13.003074661849968 24395.418999203164 12.96842788925144 0.24725194550190663
0.6781748380223329 12.996021319704406 21049.857832478243 13.587195277558104 0.2507484152762123
0.7000540331733142 12.991086730271538 18191.42027634193 14.232563513465015 0.2542947331493102
0.7222801297019621 12.988008822806844 15747.421434402939 14.90572076799654 0.2578928808429435
0.744859066134544 12.986645542179057 13649.489578538138 15.607748339156878 0.26154327978706104
0.7677696413372078 12.98676049747423 11849.160432826675 16.33980798393894 0.2652467895268854
0.7910067592257978 12.988121187884364 10301.682645624882 17.10356339969706 0.26900860155698725
0.8145724134434951 12.990644610285711 8967.771896753267 17.90046763265947 0.2728311445175152
0.8384454541276457 12.994087859008692 7816.549179806069 18.731949839273994 0.2767160802763351
0.8626163262253964 12.998363430557495 6823.088614275458 19.59922480213087 0.2806627400949032
0.8870828192107686 13.003298852402104 5962.936870062451 20.504437437892676 0.28467804012953735
0.9118327611125961 13.008799622882394 5217.685435088872 21.449379207170676 0.28876498843016163
0.936844497656045 13.014672853228083 4571.233954381789 22.43561532486689 0.2929241689239073
0.9621140653695311 13.02087521047835 4009.966108664372 23.46500578282475 0.29715806593227667
0.9876287154987634 13.027265652223738 3521.241530349145 24.540048195038302 0.30147341495082663
1.0133669777560526 13.033728434702617 3096.374235934122 25.662780377555706 0.30587256881239483
1.0393163223599544 13.040175697160096 2725.2534188165423 26.834967964895537 0.3103553516702695
1.0654621089357466 13.046515787751604 2401.6236504881513 28.059796509124816 0.31493119109708084
1.0917815398717656 13.0526315267557 2118.758906624448 29.339432333238435 0.31960131195994235
1.118271632039228 13.058476884300475 1871.3379963216512 30.67640208361191 0.32436884410913275
1.1448919011134453 13.063935584889174 1654.4662934758444 32.0743150012285 0.32924327856844426
1.1716472587376714 13.068951817144871 1464.3503123066928 33.53492442324663 0.3342211032904867
1.1984940166154263 13.073408875192344 1297.4061694951824 35.06282014356422 0.33931623913694964
1.2254326665938189 13.077286314940826 1150.8058745728804 36.66019255624837 0.3445264900368964
1.2524201307078155 13.080460183509565 1021.8382078893957 38.33180308781303 0.34986455028804436
1.2794557930500652 13.08290686154471 908.1619172015919 40.080165745227966 0.35532865928656077
1.3064911324815 13.084507305877331 808.0562227125508 41.9106225845285 0.36093262600886167
1.3335197636576666 13.085231206920723 719.7519582365999 43.82645368563443 0.3666772914098182
1.3605181899032894 13.08504729319358 641.7064483025492 45.83270279348739 0.37257240818448345
1.3874470484619963 13.083798176242153 572.7501735813465 47.934515062929556 0.3786269174286131
1.414296228665884 13.081529345036532 511.6575886564789 50.136422685086586 0.38484535800667635
1.4410227182890762 13.078112537902458 457.6234227590859 52.444054298130254 0.39123685363702987
1.4676052515488878 13.073514931451928 409.7123194174134 54.86360766393952 0.3978119971434332
1.494010455679755 13.06766984041811 367.1837813954153 57.40125919750752 0.4045798269887937
1.5202181395222862 13.06055108824883 329.4022284985055 60.06362221869304 0.4115500898711447
1.546198197504929 13.052088007656513 295.8037013848657 62.8577862713123 0.41873329900686307
1.5719122099403957 13.042234828763595 265.9524448117859 65.79136020491474 0.42614079716762493
1.5973294174270474 13.030924835521196 239.3302079472673 68.87251940095419 0.43378482502751037
1.6224208338557733 13.018143408539931 215.60617062878245 72.1100575725022 0.44167859544477933
1.6471728911931012 13.003834308637535 194.44170261835086 75.513443620443 0.44983637437831286
1.6715273655507055 12.987936148156923 175.5513390121415 79.09288409004114 0.4582735692226185
1.695461389978699 12.97042339035181 158.6579495081143 82.85799149803049 0.4670010773387464
1.718925047995217 12.951208450904861 143.54045971458643 86.82171339805038 0.47604142602492366
1.7419393392596951 12.930366571781562 130.01983134742227 90.99597538831964 0.4854104163605178
1.764419522628052 12.90775190990693 117.90000544290803 95.39412899916847 0.49512710432762275
1.7863464594333252 12.88334131838786 107.01662708222922 100.03053719213374 0.5052118321878288
1.80768979924349 12.857122517194142 97.26071152600238 104.92132499912597 0.5156888144374121
1.828418535883227 12.82906627839481 88.49407880037913 110.08268346228623 0.5265793851627145
1.8484958802904319 12.79911781644839 80.61348342748194 115.53269294005196 0.5379087226435619
1.867890397031567 12.767263701472233 73.51469235415452 121.29142035250408 0.5497057306250432
1.8865704909178669 12.733465692970627 67.12897305977883 127.3801271078966 0.5619997415542379
1.9045042468859998 12.697696136419953 61.369388886729496 133.82165560816406 0.5748216068975301
1.921658707022959 12.659938158867496 56.17715139482355 140.64069304499372 0.5882042400067681
1.9379924568111224 12.620128967530574 51.48509814945324 147.86529756198146 0.6021874383768386
1.9534909455669287 12.578286640086928 47.25173665630653 155.52441316534487 0.6168086626706898
1.968128831472636 12.534444922202791 43.41752541085612 163.65071845874525 0.6321123789432351
1.9818628710468036 12.488510635808376 39.95082010045781 172.2784447091441 0.6481419295176117
1.994667665369251 12.44049077522779 36.81050231972477 181.44674236280326 0.66495023608211
2.006519404778225 12.390382504639016 33.96789625529132 191.1973174065259 0.6825909805802787
2.0173917076874384 12.338186113773245 31.384580308263704 201.57605904540304 0.7011232068448535
2.0272503782372784 12.28386608892978 29.0442990704181 212.63337614307872 0.7206114146317595
2.0360826580263467 12.227468364175312 26.917776559889568 224.42335199160655 0.7411216851040696
2.0438513017416318 12.168944813435967 24.984501489021856 237.00820579687914 0.7627350092823867
2.0505369864132357 12.108310687076278 23.228547470544505 250.45337694695715 0.785529775179417
2.056129671656792 12.045605126149436 21.63014010713569 264.83279999515815 0.8095973668244741
2.060608650360461 11.980852879523566 20.176378057820976 280.2278191930979 0.8350367596712935
2.0639501220332406 11.91404222626397 18.85309466167749 296.7275544161074 0.8619535850877627
2.066134058135288 11.845197916176177 17.64778950770192 314.4315722267356 0.8904664099816336
2.067158352209366 11.77438076118733 16.55050675792239 333.45000504669457 0.9207043303110217
