M[M_sun], R[km], Lambda[1], P_c[MeV/fm^3], rho_c[fm^-3]
0.24162668629717493 15.618656898711224 2160425.4255784233 3.5677272577965504 0.1711233750220791
0.25364533509381004 15.277273049151985 1723080.2499825517 3.784845378520755 0.17388849429512568
0.26604246465373094 14.981224071917849 1382940.2456249748 4.011455665583682 0.1766673158687531
0.27881958692505215 14.723426810433459 1116467.1290189524 4.2478134102523 0.1794585023596389
0.2919752926460424 14.498307260517313 905764.0569823981 4.494544144929628 0.1822686263376148
0.3055122733958516 14.301133416991396 738544.9492579665 4.751804694465771 0.1850934179443157
0.3194304253359282 14.128042150267408 605027.0338095427 5.020275404688378 0.18793945327829234
0.33373051056483094 13.97583826183208 497598.808976377 5.300182956191235 0.19080340661419817
0.3484137842656306 13.841920084616193 410943.0462603126 5.592253020743166 0.19369151480190275
0.36347910460738275 13.723850653700309 340616.46588803764 5.896656623260206 0.19659890986279352
0.37893306537316074 13.61991624425502 283247.59945874254 6.21425635898767 0.19953324105616588
0.3947685295795542 13.528343857607524 236358.5414146895 6.545306308695401 0.20249062714510066
0.4109956534290283 13.447772907145595 197826.29098769304 6.8905156207016685 0.20547489303642183
0.4276060192525992 13.376961937949968 166037.04713950743 7.250586567590926 0.20848905922387542
0.4446039182374345 13.314830032101504 139764.34280047333 7.625773466598178 0.21152859737761445
0.46198541622373823 13.260478256726289 117947.00029672432 8.01703470967059 0.2145998137501066
0.4797547514760205 13.213077768570887 99782.608928086 8.425071259491638 0.2177042872766377
0.49791484442973094 13.171907238847224 84614.87244906001 8.85031781639946 0.22083939580233525
0.516455889137455 13.136330713851756 71919.20461951384 9.293660115193545 0.2240087217151949
0.5353764653336298 13.105790219496864 61255.56601044358 9.755977540139916 0.22721510119219565
0.5546868366241259 13.07976557548811 52287.96993442517 10.23807632334692 0.23045983795622113
0.5743710439323976 13.057798271326012 44714.160730256386 10.740429738425469 0.23373965536293156
0.5944311782128856 13.039490001073816 37980.936860218055 11.264289610870808 0.23706082610920623
0.6148716291404928 13.024470960669156 32889.1019164604 11.810589131505646 0.240424903816237
0.6356806174658517 13.01239479920872 28050.221703922754 12.38030777669517 0.24383352227998034
0.6568524077574701 13.00300636369287 24360.570852129124 12.974122389674111 0.24728449293118282
0.6783869889316079 12.995975120882019 21019.22622728677 13.593384383079872 0.2507828745575969
0.7002789264249095 12.991045764360498 18164.989995554948 14.239280404485998 0.25433117261091703
0.7225165874484466 12.98800087537012 15608.339536977808 14.913000756629383 0.2579313728870578
0.745107729791998 12.98664802409357 13627.872384158301 15.615557982027434 0.2615831975010745
0.7680308020376069 12.986762743623887 11830.887169674972 16.348253028934096 0.2652888859580958
0.79127838974359 12.988151291530958 10284.922487221864 17.112686224766538 0.26905296276605234
0.8148567651411169 12.990682082015304 8951.876772077267 17.910313425109816 0.2728778620986842
0.8387442098543297 12.994139100713236 7804.073671240213 18.74247493151518 0.2767644376293543
0.8629270021073091 12.998416676803659 6810.727592740465 19.610566030414606 0.280713621033674
0.8874126599367035 13.003381174697184 5952.405113869126 20.516649379308234 0.28473155475031175
0.9121714344872734 13.008869814858382 5208.5899063416755 21.462520175781194 0.2888212542522983
0.9371960399666455 13.01476326302558 4562.769009063348 22.449630584223858 0.2929823803321976
0.9624819264295642 13.020969989669876 4002.375681882842 23.48007119268583 0.297219251038092
0.9880062289794009 13.027360746631125 3515.0155959472013 24.556234656062017 0.3015377160764
1.013751894015752 13.03381595079174 3090.4127732931534 25.680025239545614 0.30593912005598684
1.0397199298915911 13.040269908602065 2720.0374054128665 26.853482021902664 0.3104252944438246
1.065874644966084 13.046600562997531 2396.8578522559874 28.079666411060288 0.31500469850443574
1.0922091316921119 13.052737693201042 2114.5223713708747 29.360587664607486 0.3196774581634313
1.1187111570223547 13.058564046765891 1867.3234068073834 30.699095381909153 0.32444889618936534
1.14534540566719 13.064017720043564 1651.1042551625062 32.09849472702029 0.3293264260218781
1.1721122537658097 13.069026630152408 1461.2012609513677 33.56082885807428 0.33430840390671485
1.1989714371160167 13.073480860865475 1294.6388790415083 35.09059404855716 0.3394080799112386
1.2259204220967566 13.07735232244365 1148.3801646830332 36.68975534328415 0.34462185501165277
1.2529192488092653 13.080508351301427 1019.6042249694034 38.3634231567307 0.3499645223332509
1.2799636969143873 13.08294596842843 906.1522693204118 40.113903856323006 0.3554330337311141
1.3070178510144475 13.084551206079166 806.2676901059242 41.94654649316231 0.36104122942711
1.3340504513599423 13.085241952832286 718.1119015350416 43.86496609087314 0.366791770195337
1.3610612014941739 13.085028768745573 640.2057874367946 45.873723010311046 0.37269168940283137
1.3880012408459497 13.083780916173108 571.4129412148142 47.978218271376825 0.37875131086755665
1.4148459709424666 13.081450353312112 510.48782270672103 50.18328801973263 0.3849766798390212
1.4415794028065823 13.078012558614876 456.5743986793914 52.49400737287363 0.3913740060644755
1.468174238161526 13.073405884228267 408.74209514934057 54.91686962660907 0.3979553687679845
1.4945857887263228 13.067528419748644 366.28580414034144 57.45806910728658 0.4047298364501186
1.520798487979869 13.060376548862282 328.6321909001066 60.12423864958278 0.41170718831297487
1.5467828089167455 13.051879624565089 295.09173261918795 62.92248907557052 0.4188979727878012
1.5725004604690813 13.041989281407302 265.28386937639823 65.8604524542859 0.4263135708425852
1.5979142809172915 13.030645616684597 238.75068340298193 68.94632952566845 0.43396626462908666
1.6230231584327888 13.017831967611999 215.07907988361146 72.18894172048174 0.4418693120973447
1.6477651059634244 13.003469059594462 193.95188696394027 75.5977882619319 0.4500370282815891
1.6721132216918289 12.98752555135608 175.11821635688426 79.18268857447521 0.45848311892595095
1.696050002557862 12.969961655271865 158.2481275474301 82.95409163744422 0.4672219151792302
1.7195295325053177 12.950738516186513 143.17656758362978 86.92462378290833 0.47627446741375423
1.7425107366694628 12.929789060732062 129.68599309500823 91.10573885823331 0.48565459967859476
1.7649923586044252 12.907123946031337 117.5887969189002 95.51180271176248 0.4953853067283172
1.7869033928045386 12.882642992492727 106.75031996415544 100.15622360206525 0.5054830580077105
1.8082537484900019 12.856403013867206 97.01629724497494 105.05567572004249 0.5159741084748884
1.8289586620920282 12.828247973339838 88.26679925184109 110.22671555347075 0.5268810177392014
1.8490384489360763 12.798267825180442 80.40941668031806 115.68715670371664 0.5382277914779461
1.868411322469445 12.766314030926008 73.33112824105041 121.45690309454612 0.5500425928451813
1.8870850360401594 12.732480554117458 66.95697228113377 127.55739731303679 0.5623552703863299
1.905008104202757 12.696643938104046 61.212364303040324 134.01139843159837 0.5751962181456132
1.9221444769834752 12.658808942098092 56.035206378798314 140.84448940918128 0.5886013128240459
1.9384536541268615 12.61890399960022 51.35391942729572 148.08436760435268 0.6026088305027539
1.9539452399398256 12.57704026800552 47.13096845856805 155.7593756513573 0.6172539401017597
1.9685541825783686 12.533090146401388 43.309570169958405 163.90336821898373 0.6325848941379294
1.9822662587016746 12.487072277289878 39.850576454412476 172.55036138771445 0.6486439939338373
1.9950481928153978 12.43897068173652 36.72020792684306 181.7392827767323 0.6654831025023843
2.006879845499366 12.388792881964314 33.87947553840288 191.51238079609746 0.6831573738143285
2.0177198504279685 12.33649762840283 31.306521530539133 201.91574046373748 0.7017261078555882
2.027549234819197 12.28209767185633 28.971458768694433 212.9991328649818 0.7212512841341994
2.0363515740717104 12.225604881003816 26.850343802282683 224.81856846237014 0.7418048261825542
2.0440882897929256 12.166989346778358 24.924745906745574 237.4348069720574 0.7634624034743172
2.0507407137907534 12.106258572939492 23.172865720445426 250.91502705808122 0.7863074744793921
2.0563038350747784 12.043488682980339 21.57938408506708 265.332583629411 0.810428849981848
2.0607416108112973 11.978617391261832 20.129255796448245 280.76883412713823 0.835924770707503
2.0640383647150133 11.911696799788995 18.808360278832822 297.3140947170262 0.8629038854721961
2.0661865672062345 11.842770024120892 17.608643172128414 315.06872829786187 0.8914863715325526
2.0671724419289474 11.771862005831705 16.5133591905958 334.14197813173547 0.9217972465244239
