M[M_sun], R[km], Lambda[1], P_c[MeV/fm^3], rho_c[fm^-3]
0.24162668629717493 15.618656898711224 2160425.4255784233 3.5677272577965504 0.1711233750220791
0.2536418487125428 15.277350518872028 1723108.618832951 3.784800045512583 0.17388792924104818
0.2660382701801749 14.981280188055452 1383129.6376008778 4.011360366336423 0.17666616423359174
0.2788120786151983 14.723568751821741 1116470.4523316463 4.247664920421219 0.17945678010136776
0.29196467621582134 14.498505867471966 905943.4678170743 4.494338567798359 0.18226633718854615
0.30549818839485576 14.301315047992246 738682.5364273452 4.751535049475463 0.18509050526379517
0.3194133597018713 14.128237216007065 605168.6519665918 5.01993970532987 0.18793597026787978
0.33371023082648243 13.976031723553765 497743.93780945544 5.299772364123006 0.19079927263336655
0.34838946784678837 13.842123532478517 411066.1801118283 5.591766510577321 0.19368680768221386
0.3634493790628518 13.724100387903746 340691.4116604916 5.896083264529764 0.19659352475626157
0.3789026424787371 13.620076181784873 283355.8348861967 6.213589212917795 0.1995271574873048
0.394731526200382 13.528561879855095 236445.23558471547 6.544546067714499 0.20248396085873344
0.4109551844799847 13.447956206259521 197904.80193173423 6.889647607981495 0.20546750067584943
0.42756201969919133 13.37712787456975 166116.63859324218 7.249602637440669 0.20848091942190203
0.44455464431882247 13.314999097495047 139838.85555951868 7.624676338276864 0.2115198635307256
0.46193301983765755 13.260646167936457 118010.7239209398 8.015805246104453 0.2145903028554439
0.4796958888154515 13.213226329579596 99843.28533387926 8.423699873083699 0.21769397636801305
0.4978502573379402 13.1720534185027 84666.05840233223 8.848809563480545 0.22082847540677542
0.5163859704908125 13.136462042929184 71954.95744848099 9.291990586841289 0.22399696813151207
0.5353018130112058 13.105898593962507 61294.061775300994 9.754135416015412 0.22720248903534618
0.5546063181729816 13.079853565337894 52315.01144541031 10.236053312156514 0.23044638852992536
0.5742864346228358 13.05787932401653 44744.69849329782 10.738227212327628 0.23372551446312623
0.5943417110852396 13.039546882630846 38341.359831658745 11.261878163027061 0.23704575933944022
0.614774258217842 13.024532257318604 32635.358075905868 11.807954515595874 0.24040888095574597
0.6355724164212806 13.012457020458825 28307.233735990954 12.377434857580337 0.2438165115127223
0.6567421518973857 13.003040238588676 24379.71714163474 12.97102436029547 0.24726678586566125
0.6782716612132885 12.995996620874518 21035.96465817999 13.590017249371973 0.2507641272592204
0.7001568919163476 12.99107641317211 18179.676992362387 14.235626111601789 0.2543113478936724
0.7223869337747751 12.988003013049717 15734.97414599137 14.909040089629382 0.2579104313476441
0.744972508266302 12.986648431048444 13639.818002318016 15.611309136553785 0.2615614802213838
0.76788969565528 12.986752146553517 11840.659950296757 16.34365846489673 0.265265983208726
0.7911316207271573 12.988132005856922 10293.303690420706 17.107722881922545 0.26902882771053094
0.8147019744408144 12.990663059387549 8960.261269148697 17.904956714305676 0.2728524448889417
0.8385810333171069 12.994110995741169 7810.464927176649 18.73674861227342 0.2767381281553156
0.8627600408701975 12.99838204245398 6817.838741116352 19.60439564421251 0.2806859384022441
0.8872309087660717 13.003327664780604 5957.824841481617 20.5100052268348 0.28470243904398107
0.9119883586945302 13.008820469829644 5213.559467700346 21.45537052392863 0.2887906415135118
0.9370045053175458 13.014724759578213 4567.43629149007 22.442005216429358 0.29295070889560526
0.9622794518701526 13.020916174154685 4006.594781382652 23.471874412778174 0.29718596147938636
0.9878013378901894 13.027306711719637 3518.31502772202 24.54742788078452 0.30150273093899504
1.013541332735644 13.033763833402253 3093.7439055283 25.670642559511762 0.305902910486734
1.0395008100439802 13.040223972141106 2722.8703793543095 26.8434087280239 0.3103872393534441
1.0656503857474677 13.046559488583734 2399.370725912196 28.068855348476173 0.3149647036829268
1.0919767863483258 13.052672024887976 2117.004678934162 29.34907715058984 0.3196360273804594
1.1184720471259757 13.05851366349067 1869.5792801876378 30.686747987879517 0.3244053399568346
1.1450987021161276 13.063970381139256 1652.936859180059 32.0853507533524 0.32928126462298457
1.1718594234207345 13.068987441984081 1462.9620151873523 33.54673412226497 0.3342609031938094
1.1987124781280727 13.07344791492737 1296.1652248757043 35.07548202375986 0.3393581085421131
1.225654970681591 13.077316773412129 1149.6827240758005 36.67366988463377 0.3445699658120221
1.2526465346563493 13.080481864032567 1020.7345690890962 38.34625086818159 0.34991031768898356
1.2796868205367278 13.082928475923365 907.2381241560172 40.09554632685464 0.35537624166779336
1.3067258775255362 13.08452188776614 807.2174765469341 41.92699951964976 0.36098213596482803
1.3337618872845036 13.085233875888642 718.9543573326795 43.84401051168358 0.3667294793765581
1.3607673060150438 13.085036984927232 641.006655569171 45.851402735674675 0.3726267850761689
1.3876971194499372 13.083783755422033 572.145989672232 47.95443796160827 0.3786836244295043
1.414551470190004 13.081499448825191 511.13219602363756 50.157786906773374 0.3849052229102286
1.4412719417851851 13.078055466397238 457.13856882474323 52.46682594031241 0.3912993760346651
1.4678658544351877 13.073462560405305 409.271357786011 54.88788751385805 0.3978773541327781
1.4942726757981086 13.067606267094506 366.76978416147494 57.42715620418445 0.4046482093544169
1.5204825997834024 13.060472239826009 329.04153774835544 60.091254223467054 0.41162170320817104
1.546465812110187 13.051992170315767 295.4760248805683 62.8872808112465 0.4188083649559155
1.5721804927749328 13.042123261235863 265.63325615207174 65.82285539719064 0.4262195547730382
1.5976033758170152 13.030807139918839 239.07701131995813 68.90616491735061 0.4338675322321578
1.6226842367809782 13.017968880204368 215.36934548642006 72.14601571417796 0.44176553073645103
1.6474421073573275 13.003669915741321 194.2280137762394 75.55189050450723 0.4499278386043753
1.6717911379526609 12.987749748715695 175.34356396796167 79.1338303107598 0.45836913315567773
1.6957299554823664 12.970211562191885 158.46375877603546 82.90179616102809 0.467101740326735
1.719192736632355 12.950976689214121 143.3843135714727 86.86862188088314 0.4761476506591272
1.742197370318995 12.930093157413145 129.8691273574138 91.04600722058889 0.48552171877126143
1.764678515072642 12.907456666087558 117.75711365422376 95.44776590045649 0.4952447956655867
1.786607192959192 12.883038148281251 106.8915286352634 100.08782585774938 0.505335458642829
1.807948099642657 12.856796402473678 97.14934438374488 104.98256235352221 0.515818852087831
1.8286606383202666 12.828681347961322 88.38796664453034 110.1484523183947 0.5267173128738358
1.848742537360043 12.798730952827302 80.5185341506179 115.60309641569346 0.5380541519298656
1.8681331460652324 12.76684409983652 73.43244482911605 121.36684544171418 0.5498592684664634
1.8868067401732906 12.733013857958284 67.05456790004428 127.46099704986983 0.5621620468825056
1.9047336315181616 12.697216578932636 61.29962597543477 133.90813644801312 0.5749923469274546
1.921879618009336 12.659424293712767 56.11064968197637 140.7335781677125 0.5883852155482512
1.9381989070095438 12.619553346633898 51.42630306502368 147.96514289092974 0.6023794958346855
1.9537021645773949 12.577741717710602 47.19728075209943 155.6315006473362 0.6170116041686714
1.9683241695466676 12.533832365157561 43.368451602604246 163.7660330392683 0.6323282978879331
1.9820483948378598 12.487856009955896 39.90451127144322 172.4023716657659 0.6483707470931208
1.9948429115966333 12.439801199641702 36.770167397149216 181.580067081174 0.6651930889052743
2.0066814775049084 12.389651786662842 33.92623416298902 191.34090516417368 0.6828491100142783
2.0175414520962303 12.33741705689865 31.348156695832184 201.73086431155423 0.7013979709219915
2.027386853652652 12.283058558646758 29.010625388581694 212.80006286040182 0.7209030230711668
2.0362058706337076 12.226616863224297 26.887387269813846 224.6034619617086 0.7414330094752012
2.0439593069788926 12.16805041762592 24.957681000982188 237.20261599462867 0.7630664965283747
2.050623961853345 12.10737447246102 23.19765308748293 250.6639127824744 0.7858846910088101
2.056206150991777 12.044631801249785 21.60609937054776 265.06060733559036 0.8099764514742809
2.0606708698223124 11.979831666694597 20.154932905163065 280.4745671493851 0.8354421043739487
2.063991862411064 11.912977361812716 18.83292609665357 296.99483626546197 0.8623866295755768
2.066159432820761 11.844091626334604 17.62918010707722 314.7219146132267 0.8909311910364535
2.0671646241273263 11.773229743213173 16.53314881242004 333.7653217137177 0.9212023477992671
