M[M_sun], R[km], Lambda[1], P_c[MeV/fm^3], rho_c[fm^-3]
0.24162668629717493 15.618656898711224 2160425.4255784233 3.5677272577965504 0.1711233750220791
0.25364152489212555 15.27737273186978 1723200.0046509223 3.7847941679739456 0.1738878559803645
0.2660363465202706 14.981325195336481 1383000.5348405172 4.011348010667695 0.17666601492262698
0.27881094559932107 14.72358759030211 1116498.2132212485 4.247645668704101 0.1794565568104609
0.29196396230629545 14.498484476236152 905973.7330447033 4.494311914949532 0.18226604040288866
0.305496601594844 14.30133967234758 738757.9244015622 4.751500090619556 0.1850901276414314
0.31941137584139667 14.1282344052224 605199.7624816267 5.019896183053358 0.18793551870746292
0.3337053280043579 13.976121512110465 497738.9853345005 5.299719132737666 0.19079873668164302
0.3483862544730709 13.84214750821438 411102.20141233195 5.591703437282882 0.19368619743073928
0.36344730350049254 13.724093914562669 340714.14629209775 5.896008932458381 0.1965928266137168
0.3788984469765508 13.620103999288077 283364.25859666255 6.213502722703196 0.19952636880068864
0.3947281581593494 13.52856597339431 236460.65534293948 6.544447509260403 0.20248309663423694
0.4109500345641113 13.448004341279935 197920.6350230621 6.889535078839647 0.20546654233045644
0.4275556620302786 13.3771595326215 166127.90335705868 7.249475081843733 0.2084798641871383
0.4445480793105113 13.315022045134334 139839.37473062467 7.6245341088716625 0.21151873129320697
0.46192625726582875 13.26065878514987 118017.81475316198 8.015645862360328 0.21458906989332688
0.47968831701342635 13.213246300535836 99844.41081508792 8.423522092383566 0.21769263970568092
0.4978418319745202 13.172070562319973 84669.25040657115 8.84861404140834 0.2208270597434325
0.5163771795269269 13.136475824087317 71963.02998369408 9.291774159625078 0.22399544447041728
0.5352925978716649 13.105908090730374 61298.76682158502 9.753896616504145 0.2272008540874881
0.5545956796865862 13.079883021465802 52320.123500214606 10.235790584061427 0.23044463886330263
0.5742736784210996 13.05792020778279 44747.49928729946 10.737941697240927 0.23372368136782812
0.5943280527699352 13.03958820857285 38344.66522755141 11.261565567771985 0.2370438062386297
0.6147625819492588 13.024532387407342 32916.13831838927 11.807612993873072 0.24040680393385494
0.6355606255498865 13.012467111249022 28307.21624553449 12.377062447920098 0.2438143064474901
0.6567288104660158 13.003039829067365 24382.37640145528 12.97062277283782 0.247264490556432
0.6782563414723014 12.995998035881662 21038.207559192753 13.589580782281535 0.25076169712739743
0.7001412109408267 12.99106764369015 18181.361714607217 14.235152425085257 0.25430877812120195
0.7223702596682783 12.98801556646202 15736.76731916719 14.908526693576956 0.2579077168291888
0.7449550454580831 12.986647513281154 13641.12714050486 15.610758389406763 0.26155866516729326
0.767870864410858 12.986752933510054 11841.567342782775 16.343062909516334 0.26526301451452516
0.7911125643980653 12.988123074201416 10225.725831013127 17.107079529956867 0.2690256993077791
0.814680684240532 12.990662097131576 8961.153614721316 17.904262379304484 0.2728491503190084
0.8385601117080625 12.994109904705006 7811.379422957034 18.736006373642 0.2767347179528488
0.8627380030809301 12.998385904544577 6818.608742467852 19.603595852631315 0.2806823502418214
0.8872063262757305 13.003338244299993 5958.860426506289 20.509144033746633 0.2846986651623386
0.9119642128353498 13.00882045906427 5214.294202812775 21.454443817270537 0.28878667362396404
0.9369794961199924 13.014709919039941 4568.0470665084695 22.441016856113105 0.2929466038095386
0.9622550923093457 13.020906451263924 4006.876228575861 23.470811997800663 0.29718164669648844
0.9877747185264251 13.027303980736693 3518.7952212213454 24.546286411566374 0.3014981964236722
1.0135139200227588 13.033764377267282 3094.1238903980416 25.669426453977135 0.3058982173012672
1.0394719691055896 13.040210505776548 2723.2762902253253 26.842103121863616 0.31038230700847047
1.0656225440562852 13.04655093408856 2399.8009565799234 28.06745413159571 0.31495951997239013
1.0919471919810615 13.052664744712379 2117.229543758518 29.3475852884459 0.3196306575927492
1.1184395744242466 13.058507003639479 1869.8093831455656 30.685147672758127 0.3243996947415461
1.1450671155616259 13.063962663721629 1653.1030108364405 32.083647207546996 0.3292754114073897
1.1718268098738598 13.06897623662698 1463.1671275072308 33.54490736761246 0.3342547468422842
1.1986780364532221 13.073438772851546 1296.3179399701726 35.07352344049633 0.33935163203823376
1.2256207324117672 13.077305928151283 1149.8333443113747 36.67158515544925 0.344563240798382
1.2526123713429762 13.080481649060287 1020.8848094311088 38.34401601255308 0.3499032381562815
1.2796525403050445 13.08292363830242 907.4645081205794 40.09316716955351 0.3553688813499288
1.3066912721632369 13.084512514166644 807.3532956625897 41.92446622844205 0.3609744774417152
1.3337241780630753 13.085230885671042 719.1467992736459 43.841294690937886 0.36672140655278285
1.360729649570908 13.085040277684111 641.1110834044847 45.84851007480737 0.37261837361130506
1.3876580782591028 13.083788127357712 572.2539214376753 47.95135610815204 0.378674852479724
1.4145117089900738 13.081503914621928 511.2150906753085 50.15448207573061 0.3848959624094469
1.4412328530508793 13.078060988331428 457.2084825752061 52.46330337687763 0.3912897043952636
1.4678259761888295 13.073469857039665 409.3402362375217 54.88413162439455 0.39786724395382433
1.4942316438894814 13.06761447474977 366.8272345633378 57.42315013214198 0.4046376311170732
1.5204423125683553 13.060483763527769 329.1007240594142 60.086979736328004 0.411610625101801
1.54642382860806 13.05200851611412 295.5259430122277 62.88271817619415 0.4187967526869617
1.5721395969230005 13.04213883420408 265.683597753925 65.81798324424324 0.42620737135482045
1.5975619506629184 13.030826274832503 239.11784156383806 68.90096008855161 0.4338547377535247
1.6226496568698103 13.018024107317267 215.4107949460616 72.14045309726198 0.44175208210697486
1.6474002685707652 13.003697133219013 194.25719102440243 75.54594284926327 0.44991368927349934
1.6717501929327354 12.98777826737877 175.37160963289222 79.12749907275337 0.4583543624498428
1.6956885175935446 12.970246858885124 158.49628827461908 82.89501958726105 0.46708616777995493
1.7191602822588725 12.951044731663826 143.40798097348315 86.86136509771825 0.47613121761566396
1.7421567771789148 12.930132008263845 129.89177809051225 91.03826720705516 0.4855045000901454
1.7646415476493156 12.907508788141541 117.77816000617374 95.43946811738788 0.4952265884767293
1.7865676446372418 12.883085060996088 106.91013921399474 100.07896308074567 0.5053163331545557
1.8079075553124533 12.85684778682036 97.16732268507337 104.97308863789523 0.5157987346328394
1.828621994690576 12.828736164079615 88.40544575319993 110.13827747937813 0.5266959746244025
1.8487048621522184 12.79879082567626 80.532359510308 115.5922044980447 0.5380316529865151
1.8680952361255216 12.766908641484358 73.44344886746437 121.35517656177278 0.5498355149030701
1.8867716875974634 12.73308260030987 67.06704084574721 127.44848571462508 0.5621369367324991
1.904697664107332 12.697290416556456 61.307527629699315 133.8947569655056 0.5749659316746923
1.9218449911451216 12.659503186972962 56.12131651861112 140.71920776349472 0.5883572165360464
1.9381658175574454 12.61963860625914 51.4362146176472 147.94969553708745 0.6023497820810161
1.9536700475333577 12.577832308299568 47.20372235404292 155.6149327157106 0.6169802062797676
1.9682939035035374 12.533924584311231 43.37559046648525 163.74819210627453 0.632294891917873
1.9820192302276394 12.487957852007087 39.91357664824876 172.3831981117138 0.6483353452219566
1.9948160684554403 12.439907467111142 36.775605273298325 181.55943936496286 0.6651555152341762
2.006655932577909 12.389762687422902 33.932501326765156 191.3186893793231 0.6828091724314141
2.0175186772874016 12.337536514011086 31.354177413870815 201.70691274660018 0.7013554592568252
2.0273658890484247 12.28318469007389 29.01567652262998 212.77427276883006 0.7208579048489342
2.03618593346401 12.226749268340027 26.891075362744324 224.57559472777172 0.7413848402979166
2.043942593852465 12.168187681472588 24.962324419651146 237.1725358996166 0.7630152072031745
2.0506142294862273 12.107516632040271 23.20575918312422 250.6313373099369 0.7858297761254359
2.0561938114765725 12.044782630459471 21.61036593369998 265.0253591471301 0.8099177964408064
2.0606607318914603 11.979989454930859 20.15766762299494 280.43644042975836 0.8353795569668637
2.0639860016202785 11.913141303963569 18.83618698748328 296.953479401426 0.8623196240454696
2.066155494001678 11.84426225763352 17.632077308368807 314.6769890505302 0.8908592740467545
2.067163209428323 11.773405894226125 16.535079021547894 333.71653125636715 0.9211252871692361
