M[M_sun], R[km], Lambda[1], P_c[MeV/fm^3], rho_c[fm^-3]
0.24162668629717493 15.618656898711224 2160425.4255784233 3.5677272577965504 0.1711233750220791
0.2536377731883187 15.277450653184298 1723374.8686979255 3.784718290978346 0.1738869102102186
0.2660279212726161 14.981546412763224 1383302.6044464877 4.011188505692385 0.17666408739913375
0.27879712796910205 14.723858212788889 1116798.310536053 4.24739714316638 0.17945367428874334
0.291945058518378 14.49881500204972 906288.6070498476 4.493967851197325 0.1822622091731548
0.3054731581300641 14.301648840685088 738955.4643628442 4.7510488105599356 0.18508525295550657
0.3193832690025962 14.12855431181107 605359.5472339799 5.019334366500838 0.18792968964388926
0.3336723498667787 13.97640484372135 497996.9276234669 5.299031993889603 0.19079181833361256
0.34834564036974064 13.842446665175055 411294.9910843897 5.590889264696359 0.1936783200869935
0.36339988119962857 13.72444521028977 340916.0140946795 5.895049440931457 0.19658381486624585
0.3788448645629778 13.620441020792601 283542.84675917076 6.212386307152567 0.19951618843511873
0.3946664702243197 13.528898114878034 236618.35424364053 6.5431753329627345 0.20247194136673238
0.41088208219731426 13.448298843852697 198054.76256672933 6.888082590897481 0.20545417233362803
0.4274812160300759 13.377440505093176 166256.17376518334 7.247828659711944 0.20846624375878384
0.44446529152183767 13.315305128345404 139965.2368836582 7.622698306911162 0.21150411712918463
0.4618364219171909 13.260924647709952 118115.42985797272 8.013588670942683 0.21457315585454356
0.47958911302522084 13.213491676676137 99934.3597991741 8.421227478794297 0.2176753874193006
0.4977355693644402 13.172285825540282 84751.90198617092 8.846090469377806 0.22080878800369205
0.5162613452636002 13.136686066224769 72040.74561887265 9.288980804619102 0.2239757790770298
0.5351677460516507 13.106097955427378 61362.78881154976 9.750814549630983 0.22717975262624138
0.5544626452539014 13.08004968642709 52379.114856827684 10.23239972670983 0.23042205707611874
0.5741295631488543 13.05804147316114 44796.940163982996 10.734256784239681 0.2337000230849169
0.5941795976416555 13.039705312090126 38388.17525279747 11.257531204617583 0.23701859946463394
0.6145990400475777 13.02467318098056 32955.092268933855 11.80320536137692 0.2403799981743059
0.6353864394794415 13.01256824576165 28340.344851300702 12.372256241466722 0.2437858485424449
0.6565404980169198 13.003107166049618 24414.27851257384 12.965440062368765 0.24723486830866134
0.6780627324195339 12.99606143268251 21066.403588919846 13.583948002445744 0.25073033531838373
0.6999364184777049 12.99111940522883 18206.07066843605 14.229039391850284 0.25427561461755555
0.7221548416067406 12.988038965510524 15758.925450319957 14.90190128428046 0.2578726857927713
0.744727674653796 12.98666240592629 13660.071048613121 15.603651036919317 0.26152233709587064
0.7676337080170906 12.986746119750284 11858.794730256599 16.3353774081554 0.26522470421783123
0.7908630642840943 12.98810988414458 10309.854323217669 17.098777331333313 0.26898532852723306
0.8144217865862774 12.990620503813448 8975.155461087386 17.895302380298514 0.27280663576439573
0.8382888755944353 12.99407906608428 7823.496854877536 18.726428306132743 0.27669071168846904
0.862452871227468 12.998333382558267 6829.213454136492 19.5932752381646 0.28063604815358023
0.8869120035924404 13.003270015360169 5968.669117853568 20.49803123063838 0.2846499671360509
0.9116582128753803 13.008742495166786 5222.864803761956 21.442485785805214 0.28873547279611983
0.936660651477916 13.014636919305305 4575.928444712546 22.428263393753294 0.29289363318761624
0.9619219861483916 13.020829397446258 4013.7623590679955 23.45710314049994 0.2971259709536918
0.9874315643495051 13.02722244268557 3524.818715416245 24.53155767489167 0.3014396861449232
1.0131600531454437 13.033675353770011 3099.331636816978 25.653734830413892 0.3058376603039005
1.0391060061929762 13.040121281410357 2728.107664078366 26.825256883298465 0.31031866495266586
1.065243927626791 13.046461899348992 2404.078228290039 28.049374473999652 0.31489263545730467
1.0915565687145714 13.05258142943824 2120.9891581823113 29.328336263197677 0.3195613729208173
1.1180395750522834 13.05842377421763 1873.3457994908758 30.664499599397505 0.3243268573248047
1.1446544992531213 13.063885809066857 1656.2077090013543 32.061550307435205 0.3291991332917189
1.1714034627614058 13.068902127226588 1465.9295372237195 33.52133825630219 0.3341753165070915
1.1982491918888045 13.073380110063926 1298.942101934604 35.04825381529678 0.33926807223830974
1.2251764408650865 13.077249571020573 1152.1379523355722 36.64468831123494 0.34447647574248863
1.2521581370782988 13.080431089571448 1022.9434396360664 38.31518268417749 0.3498119004928817
1.2791870177081395 13.082883707555851 909.1915379651053 40.06247248100042 0.3552739222379784
1.3062177245472892 13.084495881609794 808.9995701402937 41.89178338191647 0.3608756722452388
1.3332415384324683 13.085228930748265 720.5334927805078 43.80625750442114 0.3666172579145565
1.3602388345101322 13.085050728176899 642.4795687291794 45.81119192141848 0.3725098574905381
1.387159958287538 13.083818779535257 573.4362568880556 47.9115976980599 0.3785616872103077
1.4139972959666471 13.081540551383268 512.327696682699 50.11184775517994 0.38477649634486466
1.4407272662552177 13.07815348154637 458.17872685331645 52.417860785280936 0.39116493606460684
1.467302600840527 13.073561311773764 410.24174725311747 54.83567968826559 0.39773682005565586
1.493709140560251 13.067746288213286 367.6196362565355 57.371471497723995 0.40450117104978567
1.519913482665743 13.060644905177996 329.8103658172356 60.03183931266985 0.4114677187229298
1.5458917308261995 13.052197059125097 296.17972463716313 62.823861532921576 0.41864695785052236
1.571604940939973 13.042359461656144 266.27198800465675 65.75513484785156 0.42605021120286746
1.5970189713942464 13.031072792490987 239.6396310419045 68.83382135908012 0.433689697735332
1.6221124918458183 13.018305306060837 215.88810981829087 72.06870026497855 0.441578606696063
1.6468615462318257 13.00402491541708 194.69556258533305 75.46922458846599 0.44973117834915616
1.6712160084679233 12.988150349463291 175.77735910544618 79.04558349034197 0.4581627920948384
1.6951405033919238 12.970645985161958 158.866573773768 82.80761183875624 0.4668853050284636
1.7186350704337792 12.951512481093841 143.72849906376584 86.76776496852058 0.475919259375171
1.7416341011249474 12.930659155177565 130.19536197113163 90.93843572273163 0.485282411784174
1.764116698569929 12.908072533471415 118.0572640117429 95.33244439864141 0.4949917545405644
1.7860475980883217 12.883696724648717 107.16899615882338 99.96465396463259 0.5050696590411442
1.8073904750360654 12.857498257087093 97.39153157323793 104.8509018514829 0.5155392707357793
1.82812723158182 12.829475761412956 88.61709310986507 110.00705055082258 0.5264207709647357
1.8482109595593992 12.799565565937602 80.71920177407002 115.45173172459933 0.5377414847100045
1.8676121026629746 12.76774030692059 73.61780696221714 121.20468604980564 0.5495291713693252
1.8862988684370234 12.73397939417653 67.22177225675041 127.28713329138358 0.5618131037065069
1.9042393042007937 12.698249656245578 61.45244732815304 133.72220227882033 0.5746252409513086
1.9213919265152446 12.660494699399111 56.2521967433586 140.533886692975 0.5879961406166326
1.9377392593042764 12.620729661186719 51.55706667250971 147.7504902033781 0.6019666007105428
1.9532612859115084 12.578991575011035 47.31320853776125 155.4012807422894 0.6165753144032703
1.967910014133277 12.535172476343083 43.47795014271004 163.51812918361622 0.6318641142725032
1.9816520513367661 12.489270372244356 40.00448589043707 172.13595580232052 0.6478788393305768
1.9944815028693073 12.441324537126102 36.85824766822534 181.29345134932004 0.6646710143755501
2.0063321508425305 12.391219857796637 34.00940478141628 191.03223004361215 0.6822942010480435
2.017216000437452 12.33906325750957 31.428012406680654 201.3980786442285 0.7008073091890875
2.0270888321369895 12.284790021120612 29.07928103917718 212.4414194838084 0.7202751085575175
2.035941038595398 12.228444696145017 26.952243095756415 224.21628828189515 0.7407637705523457
2.04372623572228 12.169968666163793 25.01681884005396 236.7845968919902 0.7623535642469202
2.050428640514635 12.10938334969492 23.25797901579856 250.2113462694537 0.7851217661654947
2.056040780110151 12.046728342492942 21.656505491893274 264.5709208421073 0.8091615846989394
2.0605339486377825 11.98200466464633 20.201928530585093 279.94410276503424 0.8345705692402235
2.063894392201508 11.915245989888241 18.875905773136008 296.42031306317506 0.861455799044164
2.0661047820484 11.846466277263742 17.668796487617588 314.0978323914383 0.8899321581468962
2.0671486852336045 11.775698368648893 16.569599971775016 333.08756838684076 0.9201318905580187
