M[M_sun], R[km], Lambda[1], P_c[MeV/fm^3], rho_c[fm^-3]
0.24162668629717493 15.618656898711224 2160425.4255784233 3.5677272577965504 0.1711233750220791
0.2536442603060998 15.277306690804322 1723175.9724510906 3.7848475765203027 0.17388852169212968
0.26604268988373164 14.981223491298348 1382934.2951323926 4.011460286269086 0.17666737170700927
0.27881944133195846 14.723434127209362 1116373.530641635 4.2478206100017095 0.17945858586588226
0.2919763145098741 14.498287718555542 905763.6523653042 4.494554112724931 0.1822687373313289
0.305512743040607 14.301132570928607 738542.7873619075 4.751817768823369 0.18509355917233056
0.3194306176929701 14.128034819847755 604971.009381753 5.020291681974828 0.18793962216142174
0.33373084723515994 13.97584314279918 497587.09481570026 5.300202865017238 0.1908036070630413
0.34841495773569287 13.841907280391744 410931.670145586 5.592276610875239 0.19369174304291997
0.36348060454238956 13.72384709761159 340606.6760303366 5.8966844247712435 0.1965991709804686
0.3789344597712676 13.619906301219322 283235.94962574134 6.214288708399975 0.19953353604385488
0.39477030804066143 13.528341414514438 236360.48086998364 6.545343172480819 0.20249095039069825
0.41099757398553965 13.447787403277436 197822.05707454224 6.8905577106280305 0.20547525149189708
0.42760835067296216 13.37694968343532 166034.88830994032 7.2506342787259515 0.20848945392586818
0.44460622934306737 13.314852840045498 139770.2063725602 7.625826667127423 0.21152902088803507
0.461987054085526 13.260481469984152 117943.25488265736 8.017094327689048 0.21460027494367845
0.4797575186669492 13.213073459714828 99778.04498451669 8.425137760012436 0.2177047872675881
0.497917749257817 13.171905048829213 84616.28718507542 8.850390954269404 0.22083992535176306
0.5164594693518466 13.136323663779581 71916.82303418085 9.29374107420933 0.22400929167171324
0.5353803578200271 13.105777380130133 61254.573494702214 9.756066869369532 0.2272157127873863
0.5546904752965913 13.079764431642268 52286.1578391804 10.238173649384267 0.2304604801851027
0.5743763040706386 13.057786004033728 44714.033854584435 10.740536545946716 0.2337403411003028
0.5944362008722196 13.039507228478952 38314.87310532816 11.26440655054655 0.23706155675041643
0.614876523954559 13.024465287143846 32888.78370489277 11.810716894345765 0.24042568082747248
0.6356837043650813 13.012419541645446 28280.825821524413 12.380447096827808 0.24383434720482366
0.6568577319791443 13.00299285471506 24359.80333036922 12.974272627306892 0.24728535162788395
0.6783924329762456 12.995967321779728 21018.859791502124 13.593547672024018 0.2507837837066902
0.7002846260238543 12.991041150020346 18163.559520695366 14.23945762051127 0.2543321340165032
0.7225225825521765 12.98800001378648 15721.698493669017 14.913192831785487 0.2579323884608114
0.7451140701100546 12.986638076874952 13627.479348858835 15.61576403385475 0.2615842507013362
0.7680382648610932 12.986750663657986 11830.469270298954 16.348475848369173 0.26528999665709463
0.7912867902352412 12.988146569702616 10284.999434548457 17.112926930409056 0.2690541332360821
0.814864112866703 12.990678103069927 8951.385735675107 17.910573209734366 0.2728790947581522
0.8387530986006644 12.994142480058718 7803.650622024437 18.742752642752556 0.2767657135687984
0.862936004490979 12.998418457305466 6810.506662380755 19.61086527996644 0.2807149635776862
0.8874206429350704 13.003374496745367 5952.23273672776 20.516971607870342 0.28473296680583327
0.9121803227812137 13.008866217932367 5208.349927000713 21.4628669227223 0.2888227389222867
0.937204780142778 13.01476051641109 4563.166874551379 22.45000040492461 0.2929839163568445
0.9624918643838071 13.020974837998123 4002.2656493402033 23.48046872920444 0.29722086555201366
0.9880147692675473 13.02736632286298 3514.8566418791297 24.556661780117132 0.3015394128375057
1.013763139970222 13.033819813316986 3090.2837272467755 25.68048029753463 0.3059408762124057
1.039730019254845 13.040280403722464 2719.8033604853667 26.853970578350562 0.31042714012211065
1.0658842693399164 13.046608033199767 2396.7204087805385 28.080190753568385 0.3150066382753748
1.0922208238108149 13.052736943068252 2114.4557090250655 29.361145934479573 0.31967946759219135
1.1187228464147154 13.058569569051315 1867.2528617258945 30.699694246015014 0.3244510087213042
1.1453573687222234 13.064023838835215 1650.8644958501939 32.09913223041549 0.32932861642075245
1.1721250815727018 13.069031038677473 1461.1085144950366 33.561512480557305 0.3343107077849671
1.198983896448699 13.073482853895827 1294.5836142020362 35.091327017671986 0.33941050364139297
1.2259335056114298 13.077348324004587 1148.2934642882126 36.690535531562396 0.3446243717782678
1.2529326764838866 13.080515967979208 1019.4587973837671 38.36425373122737 0.34996713773271665
1.2799773251478979 13.082950869535887 906.0807636527938 40.11479426002699 0.3554357883427096
1.3070318866524553 13.084545090195723 806.2341293916951 41.94749459576821 0.3610440956849245
1.3340627530492308 13.085241411806019 718.0449848364433 43.86598252524794 0.36679479156396
1.3610737954345713 13.08503032206228 640.1734906094206 45.87480564617002 0.37269483756084426
1.388016090382849 13.08377939309982 571.3829105943583 47.97937173429879 0.3787545939953785
1.414860729602014 13.081452523255617 510.4602567216219 50.184524961638836 0.3849801458865562
1.4415937936736603 13.078007006467358 456.5534224101591 52.49532582964017 0.3913776260527733
1.468189190235994 13.073403130032538 408.7120184010499 54.91827543795991 0.39795915295931134
1.4946013355021857 13.067526020059788 366.26252561823304 57.459568586057074 0.4047337959002129
1.5208137344714407 13.060372042356786 328.61027999809426 60.12583862408682 0.4117113349362231
1.5467987378028505 13.051873948873038 295.0708230671529 62.92419693619669 0.4189023194288758
1.572516396913381 13.041983878532475 265.2745531239989 65.86227620479264 0.42631813135523494
1.5979299496366965 13.030639510152888 238.73604768338518 68.94827783970673 0.4339710539628565
1.6230386138441517 13.017823627207303 215.0658070971917 72.19102400393888 0.4418743463930912
1.6477798599875886 13.003462443096561 193.9320003624706 75.60001472176266 0.4500423249767631
1.6721293356712057 12.987514447871574 175.10915774007674 79.18505866464932 0.45848864831921154
1.6960659333211523 12.969952537149874 158.24218900166784 82.95662848984644 0.4672277448586619
1.7195455218094988 12.950724402129316 143.17038172103221 86.9273404610881 0.4762806193532003
1.7425274600241574 12.929772835787388 129.68221293554416 91.10863649281889 0.48566104584896674
1.7650074331121752 12.907107561618465 117.5838281868892 95.51490922678856 0.49539212311593556
1.7869184241201883 12.882626464387466 106.73889327168462 100.15954170277513 0.5054902183250907
1.808268764882272 12.856383980073739 97.00991979089927 105.05922261823602 0.515981640320637
1.828972718905276 12.82822867875556 88.26851210244837 110.23051002339051 0.5268889509664452
1.8490524614566792 12.798246635555717 80.40184580112083 115.69123475024512 0.5382362153148483
1.868424824804933 12.766290319749434 73.32793277769119 121.46127213936114 0.5500514866193483
1.8871008941427978 12.732451098385168 66.95560957428052 127.56206527675542 0.5623646129461325
1.9050198747083915 12.69661657099516 61.20785744941878 134.01640817331437 0.5752061089312716
1.9221568288982385 12.658779230675998 56.0302636125073 140.8498703161399 0.5886117968770568
1.9384662276650095 12.618871052490512 51.35130724160658 148.0901519123482 0.6026199569069706
1.9539561729490664 12.577007243476993 47.126671455164356 155.76557970557613 0.617265697405539
1.9685662675608553 12.533052898765037 43.30667059886431 163.91002962975298 0.6325973377086066
1.9822764183511874 12.487034732334259 39.84867799732945 172.55754151611586 0.6486572512558715
1.995058557124597 12.438930932147773 36.71771882968472 181.74700765982942 0.6654971734840572
2.0068885955748224 12.388750789829917 33.87770790015083 191.5207006181266 0.6831723304581716
2.017727475330741 12.33645380286826 31.302141844625847 201.9247105850309 0.7017420289360545
2.02755773708089 12.282049409828623 28.969815018232893 213.0087917893096 0.7212681818444359
2.0363583613587264 12.225556386937049 26.84988635566472 224.8290056314066 0.7418228670777075
2.044090608355231 12.166953693639837 24.922661901074967 238.4221190877436 0.7651004220921532
