M[M_sun], R[km], Lambda[1], P_c[MeV/fm^3], rho_c[fm^-3]
0.24162668629717493 15.618656898711224 2160425.4255784233 3.5677272577965504 0.1711233750220791
0.2536417544521194 15.277357042221363 1723114.9746698341 3.784799287766375 0.17388791979610724
0.2660378655696669 14.981304083337443 1383014.800721011 4.0113587734128 0.17666614498404984
0.2788120201909506 14.723555633321359 1116474.5988308764 4.2476624384395425 0.1794567513141206
0.29196451851439986 14.498503452619472 905954.925257652 4.494335131640322 0.18226629892612892
0.3054992716773704 14.301277573410275 738728.4466694403 4.751530542480202 0.18509045657964462
0.3194132002171626 14.128237841610098 605178.0692490748 5.019934094309181 0.18793591205137447
0.3337097175795921 13.976095614068095 497759.47850880254 5.299765501369141 0.1907992035368225
0.34838907343407916 13.842126730026962 411068.4023935496 5.59175837896751 0.19368672900665201
0.3634497761222642 13.724092610917554 340711.81885317987 5.896073681394241 0.19659343474942473
0.3789020667956139 13.620113892759477 283346.34973513475 6.213578062304744 0.19952705580713997
0.39473162567040954 13.5285402473748 236450.8415777521 6.544533361212849 0.2024838494398796
0.4109545189896689 13.44795938171707 197911.62409906051 6.889633100317458 0.2054673771224946
0.42756070043441696 13.377129590378912 166121.16609010872 7.249586192497803 0.20848078337710418
0.4445533226678761 13.315009802587662 139838.21114461363 7.6246580015181 0.21151971755833535
0.46193226371700086 13.260646583530345 118011.56664913175 8.01578469772567 0.21459014389712136
0.47969466116312065 13.213237015791115 99840.50514925671 8.423676952878083 0.21769380404010868
0.49784917712445337 13.172054543683766 84667.38638693388 8.848784355967306 0.22082829289360922
0.5163849499214535 13.136463046867732 71959.2285262514 9.291962684127778 0.22399677169466942
0.535301139089501 13.105894755712352 61296.85411061739 9.754104628945813 0.22720227825077116
0.554605052326162 13.07987387112928 52315.543664822835 10.236019440082574 0.23044616295512646
0.5742857039567602 13.057890154243628 44745.66982569582 10.738190402427804 0.2337252781321671
0.5943370794757131 13.03956776699554 38341.09477498843 11.26183786179676 0.23704550753662398
0.6147725711104349 13.024532236626117 32913.428308696355 11.807910484995835 0.2404086131762343
0.6355718464547732 13.012449850585057 28304.04393943294 12.377386844722448 0.24381622722502802
0.6567401850356686 13.003041342949338 24380.316721473362 12.970972585659643 0.24726648994307404
0.678269477992072 12.995992741452321 21035.773929445975 13.589960977836908 0.25076381395438924
0.7001548558890794 12.991076735864082 18179.934850799047 14.235565041502102 0.25431101658540106
0.7223859356051295 12.987996862111686 15620.570327078663 14.908973899919369 0.25791008137769683
0.7449700528582542 12.986649810558358 13640.025763395268 15.61123813129787 0.26156111728961523
0.7678865831450139 12.986754852276716 11840.563760694942 16.343581682663288 0.26526560046854997
0.7911283475729189 12.988128355156658 10293.271668331095 17.107639937427223 0.26902842437953756
0.8147004731321212 12.990652979693188 8960.509057108813 17.904867196723174 0.2728520201344136
0.8385775135383964 12.994130215139126 7810.532788740003 18.736652918621914 0.2767376884925002
0.8627564923626189 12.998389985598333 6817.96385097969 19.604292530421883 0.280685475795696
0.887227504146437 13.003324393507558 5958.611882145454 20.5098941967138 0.28470195249277536
0.9119851349987547 13.008832481522338 5213.805708261816 21.45525104731177 0.28879012994923725
0.9370011517819348 13.014713457059436 4567.557105719484 22.441877790966124 0.29295017964277603
0.9622772061499983 13.02091259426566 4006.6136020274785 23.4717374396213 0.2971854051906976
0.9877979003812627 13.027311203144912 3499.040286945109 24.547280715339895 0.3015021463205463
1.0135377126820606 13.033760330835987 3093.7019554303474 25.670485771374477 0.30590230541111657
1.0394964276490322 13.040217259840022 2722.874137256064 26.84324040074875 0.3103866034433092
1.0656476105985488 13.046558261137056 2387.2305018149136 28.068674694288244 0.31496403536453116
1.0919728660569723 13.052674693817782 2117.0255433163984 29.34888480967952 0.31963533507128017
1.1184680373166902 13.058512890000248 1869.6184985564764 30.686541664302016 0.3244046121370456
1.14509503045367 13.063969006793608 1652.913914897958 32.085131120413635 0.32928050998583996
1.171854467065377 13.068983379345529 1462.9265925104169 33.54649860417838 0.3342601094735747
1.1987082206238822 13.073440332425122 1296.1766778222416 35.075229509172814 0.33935727354483064
1.2256505871821346 13.077313368293696 1149.7132179544933 36.67340110621382 0.34456909877444536
1.252642933724833 13.080481149916597 1020.7610393248929 38.34596273410567 0.34990940494339634
1.279682759313454 13.082927312104365 907.2581655671718 40.09523958811091 0.35537529272059504
1.306722742058141 13.084513258196525 803.8498446644501 41.92667290856029 0.36098114857002317
1.3337576170350165 13.085229129237351 718.980394312231 43.84366036716837 0.3667284385659775
1.3607628733384485 13.085035755027388 641.0306444044934 45.851029791274115 0.3726257006045128
1.3876923364076728 13.083787424025113 572.1612431935018 47.95404062470254 0.3786824934804075
1.4145459416244763 13.081499902117693 511.13620099872816 50.157360821408226 0.3849040289720799
1.4412679023145087 13.078053848742377 457.14947548645773 52.466371782757335 0.39129812908817696
1.4678607124105385 13.073467486229084 409.27536657757895 54.887403273597265 0.39787605064508474
1.4942669540305986 13.067607043262193 366.7572469936255 57.42663970786971 0.4046468455195816
1.520477516916503 13.060472942960802 329.0489040370726 60.09070312034081 0.4116202749247642
1.546460227533527 13.05199708478695 295.4889274584906 62.88669255711123 0.418806867802373
1.5721748800669075 13.04212568621993 265.63991633289845 65.82222723676107 0.4262179839805561
1.597598407493999 13.030808039260167 239.08178071456373 68.90549386480959 0.43386588265486536
1.6226793475304648 13.017975465896674 215.3757639243208 72.14529853172922 0.4417637968185549
1.6474367075757355 13.003673230015876 194.22798526313696 75.55112367869799 0.44992601434394763
1.6717862155867302 12.987753093536526 175.35364529578055 79.13301402927499 0.45836722878031255
1.6957247661012553 12.97021729842985 158.46867572548322 82.9009224618399 0.4670997325685452
1.7191871588516254 12.95097957729265 143.38952601930163 86.86768626760671 0.47614553195538656
1.742192719556627 12.930099058145123 129.87433683739184 91.04500930373756 0.4855194987735872
1.7646735386830044 12.907463140341934 117.75932659710776 95.44669606939082 0.495242448217347
1.7866018952235176 12.88304316186129 106.89368904242573 100.08668318101897 0.5053329927960184
1.807942392732483 12.856804373863852 97.15042886586374 104.98134090729224 0.5158162583442014
1.828656019222351 12.828687214857853 88.39311933360963 110.14714047471556 0.5267145617298032
1.8487384783610996 12.798736925443754 80.51989272891869 115.60169211740559 0.538051251134189
1.8681281264946994 12.766852240204482 73.43200151151896 121.36534096773333 0.5498562059087666
1.886801111500618 12.73302355431652 67.05310375337916 127.45938395585591 0.5621588094156907
1.9047290357424034 12.697226626334343 61.29920854420367 133.90641142141968 0.5749889411893432
1.921875962909091 12.659434516609457 56.112395739707935 140.73172537853125 0.588381605610346
1.9381941623335681 12.619564838983813 51.4267620134279 147.96315124709056 0.6023756648086704
1.953698066838334 12.577753401324905 47.1985301594771 155.62936452366256 0.6170075560004809
1.968320026465322 12.533841956789734 43.36864209311403 163.76373278280457 0.6323239908094532
1.98204462233709 12.48786845909414 39.90538022046999 172.39989958942886 0.6483661826744557
1.9948396190107307 12.439814155431954 36.77116474978256 181.5774075138849 0.6651882444665802
2.0066787420205436 12.389665114716879 33.92659488975934 191.3380408404678 0.6828439607851998
2.0175384666377867 12.33743244485616 31.34901974520323 201.72777618595396 0.7013924898036695
2.0273842402213207 12.283075517949149 29.011266137637875 212.79673768515383 0.7208972058760094
2.036202906474255 12.226634638568338 26.88784739635942 224.59986897020073 0.7414267989038429
2.0439571634448317 12.16806814305396 24.958195487236775 237.19873768769182 0.76305988365878
2.050626803529094 12.10739134613645 23.20257502490945 250.6597127328618 0.7858776106745379
2.05620424893913 12.044651681192772 21.607198124470823 265.0560626776805 0.8099688888994798
2.060670426110115 11.979851098319461 20.155908463155214 280.4696521959932 0.8354340427064406
2.0639911066554366 11.912998924785636 18.83354062786006 296.9895039794225 0.8623779903167479
2.066158748996126 11.844116254175184 17.629726586953073 314.7161221917827 0.8909219185090033
2.067164767003459 11.773252808551447 16.533319579098084 333.7590309656323 0.9211924120651677
