M[M_sun], R[km], Lambda[1], P_c[MeV/fm^3], rho_c[fm^-3]
0.24162668629717493 15.618656898711224 2160425.4255784233 3.5677272577965504 0.1711233750220791
0.2536422677788552 15.277365870362758 1723207.8250035373 3.7848071801043504 0.17388801817029273
0.26603783863520114 14.981341682871484 1383028.699437726 4.011375364598916 0.17666634547874258
0.2788120516660152 14.72360426803451 1116501.944986797 4.2476882896935555 0.1794570511497101
0.29196624870717197 14.498502608886456 905966.3042837988 4.494370921229898 0.18226669745151516
0.30550058393723817 14.301295056474967 738671.6318050314 4.751577485523954 0.1850909636541093
0.31941629118326376 14.128196840739404 605146.8478255614 5.019992536506812 0.1879365184117315
0.33371245634023455 13.976023921512606 497732.6020960912 5.29983698121901 0.19079992322030415
0.34839308276486436 13.84209096969513 411043.65407684667 5.5918430748395895 0.1936875484625134
0.36345557377381993 13.724032544084777 340700.1678923678 5.896173495948296 0.1965943722288394
0.3789069108847006 13.620066190631682 283328.8182262057 6.213694203291255 0.1995281148730941
0.3947380626212094 13.528508990210051 236435.62005885757 6.544665707950721 0.20248500994197904
0.4109613778241861 13.44793268898557 197888.4281752524 6.8897842075486615 0.2054686640150852
0.4275679245091454 13.377111052906743 166102.73925132898 7.249757478012792 0.20848220037827297
0.4445625998012857 13.314966781628732 139826.5831509358 7.624848991812269 0.21152123796388328
0.4619427059787557 13.26062260927993 118003.05471792683 8.015998723852148 0.21459179956224236
0.479703913724825 13.21321704126918 99827.39593520194 8.423915683559688 0.21769559896109497
0.49786044219221415 13.172027007546944 84657.27631623147 8.849046910894012 0.22083019390345968
0.5163967543799497 13.136445307389865 71951.08858770553 9.292253311892436 0.22399881773225114
0.5353134633295303 13.105886918837436 61289.414433974314 9.75442529981337 0.22720447373327143
0.5546194983935783 13.079838326726282 52310.32564843651 10.236372244027637 0.2304485124917713
0.5742994277877028 13.057867873434502 44740.50097578034 10.738573806481819 0.23372773970495758
0.5943539104058939 13.039547727775686 38337.49392566194 11.262257631273366 0.2370481302639101
0.6147897605064456 13.024521409887594 32908.81870907872 11.808369099347248 0.24041140231667205
0.6355893802608628 13.012445218543402 28300.644547378353 12.377886938072804 0.2438191883148639
0.6567601094670183 13.003028182981026 24377.015417822982 12.971511861523927 0.24726957222277382
0.6782907723733416 12.995987805088294 21033.50862550609 13.590547093295969 0.25076707728823555
0.7001763558370752 12.991067568710298 18040.876527410503 14.23620113876364 0.25431446744408964
0.722407976568547 12.988003156027554 15733.93080335764 14.909663323065073 0.2579137266177482
0.74499353369434 12.986644121946629 13637.811939367086 15.611977713206059 0.26156489754174583
0.7679123880640525 12.98675830731406 11838.823811776036 16.344381437742474 0.2652695870470342
0.7911550571801002 12.988133621237484 10292.051587926626 17.108503878896865 0.26903262543434925
0.8147267760893173 12.990662709810811 8959.039057543827 17.9057996038498 0.27285644433955913
0.838607144691935 12.994120779351235 7809.983266157112 18.737649656045214 0.27674226798523444
0.8627842153999696 12.99840187948679 6816.516694780107 19.605366556632166 0.2806902942739487
0.8872582227807508 13.003331111181813 5956.870399191303 20.51105068019326 0.28470702038269796
0.9120166318555081 13.008828751618646 5212.820641581229 21.45649551043511 0.2887954583799511
0.9370345911046067 13.014718133284683 4566.688730522431 22.44320505014809 0.29295569232179114
0.9623114313335143 13.0209217361144 4006.012611328461 23.473164148891424 0.2971911994809602
0.9878339358158374 13.027312993517869 3517.722595810065 24.54881358902683 0.30150823570001517
1.0135735464764295 13.033770399538973 3076.627751624662 25.672118876459646 0.3059086078781585
1.0395349330630876 13.040226948264882 2722.416330278971 26.844993699547764 0.31039322709045614
1.0656838476379198 13.04655011113678 2399.1607639747235 28.070556392587388 0.31497099658476485
1.0920125776949379 13.052685865713052 2116.4279960884105 29.350888239086306 0.31964254618703264
1.1185094817831043 13.058518940096846 1869.2472627584775 30.68869074024314 0.3244121931416845
1.1451382923992481 13.063978624038748 1652.7148106953323 32.087418829528104 0.32928837032902697
1.1718993107159883 13.068990406152103 1462.8165006638 33.54895177692295 0.3342683769186566
1.198751319708435 13.073449955952876 1295.8814703625637 35.07785972193762 0.33936597094539156
1.2256966175622899 13.077324705365369 1149.4967555394003 36.67620072726231 0.3445781299185758
1.2526902492717262 13.080489052189344 1020.5390733898563 38.34896396931597 0.3499189121986064
1.2797291396443469 13.082929623284565 907.0562391081638 40.09843461488028 0.35538517706603
1.3067724935987852 13.084523003262017 807.0657145481197 41.93007493165254 0.3609914334012353
1.3338075675855687 13.085231453831645 718.8629763373002 43.8473075223118 0.36673927979723353
1.3608148463190526 13.085036514036116 640.8880294843382 45.854914437566364 0.3726369966282413
1.3877441435377162 13.083778548062277 572.0475999466427 47.958179351743055 0.37869427363357494
1.4145979222513034 13.08149432522635 511.03248373427704 50.16179900335693 0.38491646524699796
1.441321055127864 13.07804911156291 457.071355641871 52.47110237522775 0.39131111752270087
1.4679136936886794 13.073456959062716 409.18062963598214 54.892447219335956 0.39788962803987943
1.4943220470906948 13.067594361309052 366.691119223648 57.43201964582682 0.4046610515198735
1.520532654310361 13.060454759849446 328.9747925767458 60.09644353751677 0.41163515225390684
1.5465150705597142 13.051975636311449 295.41396691653483 62.892819955554195 0.4188224625185601
1.5722307120753296 13.042101623693824 265.5771089451163 65.82877031740028 0.4262343457591621
1.5976542464283277 13.030782669083564 239.02166329494128 68.91248373001703 0.43388306509918745
1.6227353915029248 13.017945119691595 215.32989942557708 72.15276890873537 0.44178185780206686
1.6474934027694454 13.003639351786672 194.18082233605512 75.5591111662485 0.44994501638754025
1.671842258807821 12.987712665614964 175.30788973978343 79.1415166720856 0.45838706534871315
1.6957799958150417 12.970174170128832 158.43518247109844 82.9100231986989 0.4671206460353415
1.719244411263303 12.950936357914221 143.3467252358021 86.87743193650401 0.4761676011004786
1.742247583207175 12.930042489160819 129.8364838983372 91.0554039616175 0.485542623061234
1.7647282436067377 12.907405063484308 117.73196805232114 95.45783982896332 0.49526690011412966
1.7866532182599508 12.88298268774853 106.86693243932766 100.09858574476918 0.5053586780122132
1.8079950291665992 12.856735295603201 97.12845704901827 104.99406398296293 0.5158432758220567
1.828708076560042 12.828614270565478 88.36883682722885 110.16080390188512 0.5267432140087468
1.8487896291354076 12.798659966226651 80.49993543142726 115.61631990104785 0.5380814670875338
1.8681777168623597 12.766766193841494 73.41518726048893 121.3810122498658 0.5498881068963041
1.8868510983222513 12.73292894428901 67.03765552172933 127.47618670085754 0.5621925323908376
1.904776341721381 12.697126466643546 61.285399400105206 133.92438013529286 0.5750244170097649
1.9219221384607976 12.659327059232007 56.1002945019821 140.75102496314054 0.5884192085404261
1.9382384043168375 12.619451896506575 51.41574689818105 147.9838972490303 0.6024155707755794
1.9537501331115485 12.577660999455457 47.183130678013995 155.65161553990822 0.6170497239036246
1.9683599402222036 12.533713957459536 43.35778553621424 163.7876652730581 0.6323687600733818
1.9813624516774642 12.488816786180992 40.02919011242565 172.58855056908905 0.8668599903438028
1.9877401350568602 12.444082711191893 37.791763084123126 183.06697505077182 1.3124232771035251
