M[M_sun], R[km], Lambda[1], P_c[MeV/fm^3], rho_c[fm^-3]
0.24162668629717493 15.618656898711224 2160425.4255784233 3.5677272577965504 0.1711233750220791
0.2536459016598369 15.277220698863994 1723077.072934499 3.7848634249944597 0.1738887192357145
0.2660450680526292 14.981149419059612 1382944.2555987807 4.011493603410018 0.17666777432499498
0.2788226079111513 14.723409540454465 1116260.6256514478 4.247872523479629 0.17945918798399418
0.2919796298327933 14.498242983855638 905707.3664729552 4.494625985305549 0.18226953764919485
0.30551801167041753 14.301048236251914 738480.909642878 4.751912041511065 0.18509457749727978
0.31943814725285885 14.127945112096041 604966.1757398614 5.020409049747353 0.18794083989736146
0.33373901116102916 13.975742939430964 497551.2923935353 5.300346418546525 0.19080505240888285
0.34842348333105455 13.841837844544735 410889.08010846976 5.5924467091348085 0.19369338879037373
0.36348997719721826 13.723780019171837 340550.8457774749 5.896884890083341 0.1966010537931028
0.37894769659301436 13.61979808071534 279292.4041734292 6.214521967478059 0.1995356630857848
0.39478240284323884 13.528284232552274 236312.5885478451 6.545608983695477 0.20249328119595744
0.4110117047711171 13.44769216715195 197782.40324013398 6.890861206533687 0.20547783619038676
0.42762342337074444 13.376902057225807 166012.59321651608 7.25097830824723 0.2084922999939305
0.44462324650318163 13.314788483395274 139739.48200936712 7.626210279912175 0.2115320746924639
0.46200700288538665 13.26044407223909 117920.62867245394 8.017524216288583 0.21460360047954585
0.47977857920393974 13.213017726236394 99759.88259091323 8.425617277778489 0.21770839257083527
0.4979392244166249 13.171891160530116 84597.47992074795 8.850918333564685 0.22084374380319272
0.5164832432889439 13.136289219921885 71900.76112932991 9.294324851552625 0.2240134015006043
0.5354066063527789 13.1057380676859 61244.25379889886 9.756711004297086 0.22722012287606083
0.5547184558914935 13.079743442117449 52274.10331284866 10.238875449404533 0.2304651111785594
0.5744062849638502 13.057769983908468 44702.8333878835 10.741306717375139 0.23374528583944254
0.5944676586742905 13.039466597716078 38300.89498176365 11.265249785659122 0.23706682529865925
0.6149106381291933 13.024442054159197 32880.18058314236 11.811638176339548 0.24043128375911976
0.6357199750908473 13.012401665619056 28273.233718811254 12.38145171986418 0.24384029565236803
0.6568958317804429 13.002984834771476 24159.935093573014 12.97535597788156 0.24729154361551994
0.6784332484346327 12.995962420337744 21012.951828725 13.594725137789421 0.25079033952061003
0.7003281004155766 12.991045485940449 18159.78081780946 14.240735517135779 0.2543390666680589
0.7225681930566236 12.987989530693568 15718.483508183943 14.914577880826545 0.25793971173718966
0.7451614393696481 12.986651423880875 13623.37584566426 15.617249871781922 0.26159184531922464
0.7680875495528487 12.986767273153857 11827.30127580394 16.35008260190178 0.265298005920467
0.7913399489213544 12.98814569947911 10281.449982536393 17.11466266650244 0.2690625735329347
0.8149186413065269 12.990691504715704 8948.730149103274 17.91244653029769 0.2728879835302763
0.8388098128250625 12.99414970311953 7801.306102396958 18.744755237709484 0.2767749144564551
0.8629956336134171 12.998431819575728 6808.395477183185 19.613023195358924 0.2807246447831263
0.8874827674545916 13.003398676135701 5950.115247974967 20.519295233636974 0.2847431492942265
0.9122450755134262 13.008887138667003 5206.464155058755 21.46536736044621 0.2888334450725263
0.9372718048342786 13.014795063068833 4561.527031488405 22.452667236802508 0.2929949928582015
0.9625613064790423 13.020993363444891 4000.907719702476 23.483335432311506 0.2972325080851119
0.988087768510733 13.027376212978274 3513.2198155246647 24.559741853007825 0.30155164850492117
1.013837139417632 13.033842551702834 3089.191821620851 25.683761815147875 0.3059535402208598
1.039807826413432 13.040298836424764 2719.002741673007 26.857493670803578 0.3104404497309965
1.0659646059500707 13.046619592067545 2396.031881296503 28.083971918874056 0.3150206264500171
1.092302224111731 13.052748024784787 2113.645991539223 29.36517176832754 0.31969395812216944
1.1188069437847405 13.05858409711799 1866.5024651897609 30.70401282900393 0.3244662428026348
1.145444328769091 13.064047717617884 1650.3034690513018 32.103729463981786 0.32934441206247694
1.172212985011087 13.06904729330857 1460.5028327484997 33.566442308501955 0.3343273218134271
1.1990737369143383 13.07350033492416 1294.065906622883 35.09661271724122 0.33942798201691204
1.2260262878190524 13.077365763880472 1147.8098746215271 36.6961617597607 0.34464252111951416
1.2530273532987966 13.080517775944951 1019.1050054975484 38.370243328911485 0.34998599840162187
1.2800741970564298 13.082957682261013 905.6838714402076 40.121215330611946 0.35545565298995835
1.3071314642168639 13.084551543399115 805.9120292705597 41.9543317755642 0.361064765515276
1.3341652853202317 13.0852415241529 717.772669564035 43.8733124998554 0.36681658003927714
1.3611769172896842 13.08502624075141 639.9150888448015 45.882613051891006 0.37271754043612504
1.3881196999924812 13.08377673609434 571.1172825764719 47.98768993159057 0.3787782702700434
1.4149662692577312 13.081439024006455 510.2273431729019 50.193445199077 0.38500514137488845
1.4417007011909473 13.077988614455961 456.3180192619206 52.50483394166042 0.3914037317659992
1.468298226449564 13.073380172689435 408.53724537445936 54.928413542219324 0.3979864429126794
1.4946894632107706 13.06749700035666 366.13023704745484 57.56008515727958 0.4049097933113917
