M[M_sun], R[km], Lambda[1], P_c[MeV/fm^3], rho_c[fm^-3]
0.24162668629717493 15.618656898711224 2160425.4255784233 3.5677272577965504 0.1711233750220791
0.2536419364638754 15.277368254217759 1723197.1408112124 3.784801826888815 0.17388795144504354
0.26603751110128787 14.98128872123118 1382970.1009752003 4.011364111122719 0.1766662094871241
0.2788111365869549 14.723617145075604 1116526.7190558505 4.247670755286844 0.17945684777701607
0.29196515066418255 14.498490256822866 905951.9685831283 4.494346645831089 0.1822664271393154
0.3054985881707243 14.301316148979247 738752.0309648885 4.7515456449345645 0.1850906197149752
0.31941393080152214 14.128224769632816 605160.5302408743 5.019952896239201 0.18793610712865533
0.3337104076315506 13.976027609261669 497744.2179892525 5.299788497730229 0.1907994350720208
0.348390160516847 13.842064486767367 411046.65208152705 5.591785627138365 0.19368699264020073
0.36345210132840144 13.724057938631152 340694.047881682 5.896105793485112 0.19659373635297783
0.3789033554780225 13.62008227483668 283331.54432290624 6.21361542686116 0.19952739652690463
0.3947338802431309 13.528522696079305 236446.23271936926 6.544575939403454 0.2024842227930909
0.4109567699099434 13.44794889582597 197901.469822574 6.889681714033855 0.20546779113730337
0.42756378767789077 13.377118185749444 166114.32718369263 7.249641297855983 0.20848123924961012
0.44455629951197634 13.315015104589918 139835.15874253787 7.624719446178229 0.21152020669733876
0.4619356656494029 13.260636796652296 118004.23036586052 8.015853553325071 0.2145906765508501
0.4796981214976345 13.213219276269903 99831.12261223358 8.423753756258339 0.21769438149415907
0.4978527589430974 13.17204837265042 84662.33585217803 8.848868823914321 0.22082890447763598
0.516388788326828 13.136457294215004 71957.79092145502 9.292056183457621 0.2239974299357805
0.5353052458663621 13.105888610611448 61287.46916013465 9.754207793506751 0.22720298456996352
0.5546094603795529 13.079868930945938 52314.980217364566 10.236132942233574 0.2304469188351748
0.5742895661448463 13.057890946969046 44743.02827625213 10.738313748988359 0.23372607005529383
0.5943440936584756 13.039570660407714 38336.71841842552 11.261972907519745 0.23704635130474502
0.6147784089199175 13.024527942978834 32912.555195409375 11.80805802753561 0.24040951048104545
0.6355771530859013 13.012451682863377 28303.000015636815 12.377547731491383 0.24381717984752516
0.6567471446668935 13.00303436805569 24379.202922401193 12.971146077848871 0.24726748155328385
0.6782768481228751 12.995988216857418 21035.485315978607 13.590149538786866 0.2507648638112401
0.7001616719362931 12.99107306068807 18178.74982168177 14.23576968207569 0.25431212677050025
0.7223929487547248 12.98799606694873 15735.902579114 14.909195695922117 0.25791125409677
0.7449782456335485 12.986641039172698 13639.245519102446 15.611476063833818 0.2615623334429121
0.7678951280997542 12.986751635628107 11840.142570685042 16.34383897342828 0.26526688299848267
0.7911364541514914 12.988122360279448 10292.935393386926 17.107917877487715 0.2690297759079333
0.8147069456089084 12.990661766434984 8959.670158411269 17.905167162732543 0.27285344345167944
0.8385863749614354 12.99412656052311 7810.175351401015 18.73697358020083 0.2767391617665405
0.8627641764963616 12.99839705092443 6817.416601135507 19.604638056375745 0.2806870259527392
0.8872378066802562 13.003329049944124 5957.642436050653 20.510266249754448 0.2847035828868872
0.9119958740549541 13.008822433267092 5213.428053714129 21.4556514039973 0.28879184416062664
0.937012801888706 13.014709622792681 4567.30139736837 22.442304783705428 0.2929519531275223
0.9622872759880294 13.020912968802639 4006.410287667701 23.472196426065672 0.29718726927102634
0.9878094391529673 13.027323280712903 3518.1679160573567 24.547773855494526 0.301504105332276
1.0135498193162364 13.033762323015734 3093.5079194642108 25.671011156559814 0.30590433297373026
1.039507968031991 13.04023012450324 2722.7650315144265 26.843804452877826 0.31038873433068426
1.0656597885290902 13.04656013631112 2399.260166969723 28.069280053161194 0.31496627485023243
1.0919854468602588 13.052677975378932 2116.7474730014937 29.349529330053294 0.3196376549488882
1.1184814466800828 13.058515527894926 1869.4996855269942 30.687233039783507 0.32440705100885653
1.1451081409053454 13.063973677698476 1652.9087251451858 32.085867094789016 0.3292830387213032
1.171869203988714 13.068988243377612 1462.892544610425 33.54728780879913 0.334262769174517
1.1987222842626712 13.07344516906658 1296.0877126951473 35.07607566814125 0.339360071563145
1.225665680500997 13.07731201111604 1149.6291999417967 36.6743017643944 0.344572004158317
1.2526581121394735 13.0804820332433 1020.6871478425285 38.34692825208028 0.3499124634926773
1.2796973577526753 13.082930224871486 907.1856804413525 40.09626744934968 0.35537847257988153
1.3067389265457792 13.084518669258056 807.1794209580393 41.92776736100734 0.36098445726557943
1.3337723949977867 13.085233391007096 718.9272679323194 43.844833678979676 0.36673192625547285
1.3607787109749783 13.08503680025425 640.9684804121028 45.852279504384214 0.37262933460047626
1.387708833097493 13.083782159436945 572.1209403405633 47.955372075929674 0.3786862832204017
1.414563256000092 13.081498373100017 511.1081642374306 50.15878860742982 0.3849080297858577
1.441284308941664 13.078054114132268 457.11070791847743 52.467893637416545 0.39130230753088147
1.4678768971361673 13.073464680744294 409.24548175631236 54.88902593407785 0.39788041855526934
1.4942847962408528 13.067601158834783 366.7436999768022 57.428370457005975 0.40465141565086027
1.5204952909878449 13.06046691110777 329.02515942358855 60.09254983546493 0.41162506102094715
1.5464782852803727 13.051988200378805 295.4637836662856 62.88866376377271 0.4188118846800443
1.5721931269954224 13.04211851701743 265.61811650076646 65.82433216786292 0.42622324761989794
1.5976160390802483 13.030801512290504 239.05937557435098 68.90774252576833 0.4338714102996162
1.6226973090796522 13.017962398771074 215.36571816487583 72.14770177234378 0.4417696070861062
1.6474548749422944 13.003662195554321 194.21203498935068 75.55369327249417 0.4499321273466937
1.6718044237589547 12.987740108011574 175.33741022837833 79.13574934730524 0.45837361024598305
1.6957412770964722 12.970203158683859 158.45315409753331 82.90385018476428 0.4671064604672985
1.7192070136912299 12.95096930643819 143.3744179378208 86.87082146276406 0.4761526316298726
1.7422103228302948 12.930081959083461 129.86272440379076 91.04835327627198 0.4855269378816042
1.764690907718571 12.907444619978959 117.75142310114954 95.45028102449503 0.4952503144093272
1.7866193637392007 12.88302374171309 106.88622336331402 100.09051223995289 0.5053412557390787
1.8079595137125495 12.856781538310646 97.14509149012292 104.98543392078594 0.5158249498669345
1.8286724804175434 12.82866462514741 88.38305246608762 110.1515364080241 0.5267237806984058
1.8487544297410912 12.798711976259618 80.51468112907187 115.60639786403829 0.5380609715829038
1.868143326177318 12.76682584974911 73.42663904548264 121.37038240104152 0.5498664684195028
1.8868176965725496 12.732993391101473 67.04972942207839 127.46478937283851 0.5621696580444443
1.9047441735534787 12.697194199836549 61.296285559288414 133.91219192237156 0.5750003536930518
1.9218903470031992 12.659399630193064 56.10741502450154 140.73793400993802 0.5883937023853496
1.9382085516929326 12.61952915314111 51.421814004446226 147.9698251785727 0.6023885024479251
1.9537116882556853 12.5777144478555 47.19536439458908 155.63652260517412 0.6170211212814793
1.9683334392491665 12.533800483766829 43.36538648442598 163.77144087169296 0.6323384236973922
1.9820566248455422 12.487826289465907 39.90269775448345 172.4081834451469 0.648381477908301
1.9948510274020288 12.439769047534707 36.767737188737065 181.58631965045353 0.6652044780469136
2.0066887087573555 12.389617096006633 33.92638567242354 191.34763911476475 0.6828612157180174
2.0175485362020913 12.337380925172843 31.346601518799048 201.73812441975852 0.7014108568979035
2.027392675298723 12.283020077796428 29.00860354550672 212.80788027186753 0.7209166991648251
2.036211225920737 12.22657710282638 26.885498992423308 224.61190900960517 0.7414476103985862
2.0439643587136525 12.168008632133082 24.95677259283108 237.21173381985895 0.76308204325797
2.0506336878050626 12.107328918646537 23.2013956450327 250.67378702671456 0.7859013367526357
2.0562097997655084 12.044586591349603 21.60548255782139 265.0712917565402 0.8099942309714931
2.060674242539385 11.979783536649888 20.154272292103975 280.48612213833195 0.8354610572452217
2.0639949494798913 11.912927610574586 18.832692753009844 297.00737240869023 0.8624069403738467
2.0661604679499828 11.844039689010927 17.627834829592906 314.7355325417794 0.8909529906616259
2.0671651784555944 11.773176099266554 16.53237503523175 333.780111216671 0.9212257066378047
