M[M_sun], R[km], Lambda[1], P_c[MeV/fm^3], rho_c[fm^-3]
0.24162668629717493 15.618656898711224 2160425.4255784233 3.5677272577965504 0.1711233750220791
0.2536412845409742 15.277381821903603 1723223.3409993022 3.7847868918225585 0.17388776528664757
0.26603647918467194 14.981323606829987 1383099.0850167556 4.011332714895091 0.17666583008224201
0.27880946119122707 14.723655033108539 1116547.4429545403 4.247621835984657 0.1794562803868305
0.2919617302536531 14.498522017641639 906017.5022612087 4.494278920054098 0.18226567299707028
0.3054942680258424 14.301367776654422 738741.7799909776 4.751456813404103 0.18508966016490871
0.31940859615072265 14.128271670768891 605246.7811342899 5.019842304895805 0.18793495970078325
0.33370373082317834 13.97613059479304 497828.98362439213 5.299653235394645 0.19079807320474226
0.34838277435143844 13.842170666576516 411097.26459689747 5.59162535639877 0.1936854419767062
0.3634427360870863 13.724124874172853 340734.68855724536 5.895916914102755 0.1965919623578476
0.37889341643857577 13.620134956053057 283366.7943818523 6.2133956535812205 0.19952539245921586
0.3947223236465187 13.528594947569172 236479.80296046156 6.544325500710143 0.20248202678407665
0.41094354496298036 13.448033965623512 197933.5928078304 6.889395775847961 0.205465355967723
0.42754840825069024 13.377182169898706 166142.27762044832 7.249317177522855 0.20847855788515907
0.4445407396501311 13.315038168258369 139856.28858635656 7.6243580398117965 0.21151732967027842
0.46191766787374955 13.26070225980679 118031.11247862091 8.015448557969595 0.2145875435843508
0.47967951943393217 13.21325568353167 99851.08192760164 8.423302014492625 0.21769098502760428
0.497831483687859 13.172094231430306 84680.4973421602 8.848372001608885 0.2208253072718688
0.5163658143042188 13.136498864846082 71967.41748764382 9.291506241585555 0.2239935583107163
0.5352805804924309 13.105923425282695 61306.909525371535 9.753601004129614 0.2271988301686953
0.5545824747615462 13.07988917311269 52324.298199256475 10.235465350923851 0.23044247293748024
0.5742605569107363 13.057927318271798 44753.21430136626 10.737588256542471 0.2337214121690618
0.5943138776116899 13.039583670989131 38348.41095571895 11.26117860518256 0.23704138848936837
0.6147460011147332 13.024563877168221 32919.725499390726 11.807190223995336 0.24040423278762232
0.6355435974071149 13.012480573149375 28310.85230834185 12.376601442801821 0.24381157680197685
0.6567108466647301 13.003050082724098 24384.83419666855 12.970125649448358 0.24726164920299287
0.6782377976013603 12.996003783483449 21040.49399453018 13.589040482652365 0.25075868888381714
0.700121464101004 12.991085232023993 18047.382054009257 14.234566052986215 0.25430559702394673
0.7223500552765303 12.9880133950693 15624.175169148448 14.907891166721715 0.2579043565591415
0.7449335561233538 12.986642872671652 13642.681883517056 15.61007662723597 0.2615551804513069
0.7678486059603464 12.986751386977181 11843.375392123426 16.342325681377122 0.2652593396171544
0.7910883009368183 12.988127206998026 10295.91626713823 17.106283136858547 0.26902182671782326
0.814655707106289 12.990647969667773 8962.507887085852 17.903402877059722 0.2728450720423144
0.8385352131142979 12.994114957167083 7812.801758092334 18.735087574085576 0.2767304965442867
0.8627103116510147 12.998382780774744 6819.641099571132 19.602605811705796 0.2806779085525748
0.887179498910758 13.003321500350161 5959.990248905402 20.508077987742244 0.2846939935834543
0.9119343235679528 13.008817995810938 5215.141186958861 21.453296676326254 0.2887817618986377
0.9369489080655805 13.014707219964702 4568.690645968692 22.43979339813701 0.2929415222616372
0.9622228353232481 13.020902989143263 4007.7775207742297 23.46949687284575 0.29717630558328484
0.9877418404461498 13.02729519430322 3519.2878424037003 24.544873431260378 0.3014925833236898
1.0134773179757341 13.033757275423214 3094.3244187582145 25.66792108688999 0.30589240779976057
1.0394364351864969 13.040202846268118 2723.742119294225 26.84048696913792 0.3103762014744927
1.0655858370178144 13.0465384448296 2400.1059821253452 28.065719630346003 0.31495310329804854
1.0919088684155736 13.052659591481802 2117.4453207804336 29.345738584917182 0.3196240105939276
1.118401868266884 13.058497545991182 1870.1913417907185 30.68316672498895 0.3243927068199281
1.1450262813552716 13.063960126668999 1653.4416117101232 32.081538479647634 0.3292681660260289
1.1717856496086114 13.068975749839453 1463.3829262009365 33.54264613124709 0.3342471262425896
1.1986363142232617 13.073435140810508 1296.6193445635574 35.0710990265341 0.3393436151585208
1.2255782997202789 13.077299865298187 1150.051705299654 36.66900459779743 0.344554916318859
1.2525678695314877 13.080477271389604 1021.0182081305405 38.341249629174435 0.3498944748601895
1.279606815108565 13.082916099570614 907.5638991996947 40.09022217016747 0.35535977050568907
1.306645251155467 13.08451162187031 807.492702110289 41.92133044319904 0.36096499748785615
1.333678180736893 13.085229439579708 719.2430350180134 43.83793297332335 0.3667114137894801
1.360683073156386 13.085040480094381 641.2345990629764 45.844929466922856 0.37260796168996574
1.387609580771327 13.083790123327951 572.3459946459254 47.947541320871956 0.3786639943636847
1.4144621714804553 13.081509543086364 511.3170133534453 50.15039129231837 0.3848844995835121
1.4411908210001863 13.078085530452482 457.316104810891 52.458943089522286 0.39127773267984434
1.4677749110505718 13.073481579460985 409.40763023220427 54.879482532443 0.3978547294344117
1.4941826207677815 13.067625137506933 366.90718061501076 57.41819137186827 0.4046245372579139
1.520391605357057 13.06049680540989 329.1686632257184 60.08168874101794 0.41159691253069214
1.546373124173666 13.05202630116646 295.5930849184039 62.877070522271794 0.4187823789587209
1.5720876916942965 13.042161183180266 265.72892270734116 65.81195248188503 0.42619229069114367
1.5975097313466704 13.030851098253251 239.16798025720917 68.8945175550457 0.43383890075667664
1.6225975843702132 13.018050210962304 215.45788189520837 72.13356771115531 0.44173543544445115
1.6473492068312716 13.003728364503512 194.30194973062268 75.538580883096 0.4498961753304536
1.671697660835509 12.98781491582372 175.41668990613042 79.11966232770689 0.45833607941330756
1.6956367680891482 12.970287275330355 158.52772559425057 82.88663163256187 0.46706689228448595
1.7191025352770852 12.951062738574636 143.43589158486347 86.85238277092522 0.4761108770648666
1.7421059383508917 12.930182867582165 129.92306645124572 91.02868676872056 0.4854831871412835
1.7645913620492517 12.907563682519442 117.80079017244266 95.42919731263746 0.4952040520377476
1.7865173631853806 12.88314467958125 106.93562944098092 100.0679929676376 0.5052926601263933
1.8078583723901556 12.856912908364311 97.18510168902576 104.96136235202921 0.5157738338402237
1.8285836606504524 12.828827016820718 88.42820614165016 110.12568340324296 0.5266695628514481
1.8486575129534415 12.798865473047142 80.5506298440404 115.57872288393634 0.5380038046239146
1.8680494142806927 12.766988606799728 73.46264905298068 121.34073329446088 0.54980611370369
1.8867248642965706 12.733170138899721 67.0775984702384 127.4329997368294 0.5621058564986279
1.9046547387450292 12.697382816096637 61.32274737591754 133.87819647849153 0.574933236131341
1.921803428450932 12.659600533679571 56.133887585452385 140.70142081787708 0.5883225608019498
1.9381313286545219 12.619772771272846 51.44754090282428 147.93057566215347 0.6023130040503075
1.9536268579161618 12.577929779889384 47.21437099797703 155.59442591468866 0.6169413438390713
1.9682565007349233 12.534043533693856 43.38486561346133 163.72610973794716 0.6322535441399594
1.9819841136069831 12.488084159678017 39.92081405289169 172.3594663883848 0.6482915271896026
1.9947837463247284 12.440039821638889 36.783230363022255 181.53390786597245 0.6651090092547508
2.0066251867701883 12.389902901321236 33.9414208065298 191.2911923814082 0.6827597407484856
2.0174896297764144 12.337683978520785 31.36101167603705 201.67726744244018 0.7013028417662093
2.0273386933345736 12.28334131156943 29.021441181955964 212.7423519977192 0.7208020613696348
2.0361636919192163 12.226911491785334 26.898046217730283 224.5411031845917 0.7413252208444028
2.0439220688719555 12.168361876989287 24.967904334458847 237.13530561929704 0.7629517261551978
2.050597087854583 12.107695179825571 23.211027739234744 250.59101866108347 0.7857618079970521
2.0561797654240115 12.044969269648123 21.614886974508593 264.9817326595703 0.8098451994308614
2.0606492259176687 11.980184441623418 20.161219171223276 280.38917450757276 0.8353018916699015
2.063978060489284 11.91334478941943 18.839658316433884 296.90229267653257 0.8622366923794478
2.0661506984626383 11.844473550300131 17.63578666941995 314.62138566433754 0.8907702639618044
2.0671621855560116 11.773629398394759 16.53933622409711 333.65614465242766 0.9210299113519617
