M[M_sun], R[km], Lambda[1], P_c[MeV/fm^3], rho_c[fm^-3]
0.24162668629717493 15.618656898711224 2160425.4255784233 3.5677272577965504 0.1711233750220791
0.25364074053872754 15.277374294109292 1723284.2414427272 3.784775954045515 0.1738876289525333
0.26603428791664957 14.981393585446844 1383158.90590871 4.0113097218084315 0.1766655522243593
0.27880714695290393 14.723689146128413 1116585.7721600106 4.247586010009048 0.17945586485950202
0.29195897351532535 14.498568566276425 906055.6169422349 4.494229321412045 0.1822651207046798
0.30549069470038515 14.30140883834679 738800.1540969289 4.751391758367712 0.18508895744635628
0.31940387762461686 14.128351592878554 605247.9170919197 5.019761314594935 0.18793411939515234
0.3336989392030578 13.976178027294148 497814.1043577915 5.29955417802286 0.1907970758613743
0.34837554067732324 13.842251220998365 411134.6468624837 5.591507984985912 0.19368430637599904
0.3634354417951385 13.724188407553978 340758.3962065853 5.895778592271417 0.19659066320993565
0.37888498221249617 13.620224662133097 283415.12463706714 6.213234707960127 0.19952392482894263
0.39471348195126527 13.528638444440512 236487.78452151996 6.544142098751876 0.20248041859666654
0.41093379979095246 13.448078901602415 197954.4146253707 6.889186377701399 0.20546357264523635
0.42753721686059826 13.3772406480837 166156.89361751222 7.249079818852745 0.20847659427771106
0.4445283002641195 13.315090587361956 139873.59387064324 7.624093376974799 0.21151522278391827
0.4619051255313825 13.260720561899642 118037.42994130692 8.015151975562514 0.21458524927965547
0.47966444638318884 13.21330479719486 99862.28300164225 8.422971200573492 0.2176884977694018
0.49781578601428156 13.172126988237066 84688.63707540152 8.848008176203857 0.22082267302048575
0.5163488862065548 13.136535228348755 71981.82924965875 9.291103518121334 0.2239907231124213
0.5352624524220612 13.105957662304142 61314.47216494161 9.753156652956037 0.22719578790535222
0.5545641000091028 13.079922951890623 52337.137455170225 10.234976476566573 0.23043921722497127
0.5742410905697274 13.057932200903098 44761.41260049761 10.737056983290856 0.23371800123021857
0.594290915931138 13.039601016522528 38353.85179850795 11.260596945270404 0.23703775426771131
0.6147224849401767 13.024590725042234 32925.752725723396 11.806554742440378 0.24040036799949063
0.6355185596547082 13.012494384724175 28316.000708951404 12.375908490372556 0.24380747377922404
0.6566847113691089 13.003070114776525 24390.159165960904 12.96937840821365 0.247257378278516
0.6782105519635798 12.996022434831907 21044.767030468767 13.588228344208991 0.25075416711454934
0.7000907104757711 12.991079029875342 18187.146608767347 14.23368466431832 0.25430081544740724
0.722319238880528 12.988015642610614 15743.374383295406 14.906935895188113 0.257899305678451
0.7449005929288343 12.986649431776641 13645.643403456459 15.609051861003605 0.2615499425260813
0.7678137012850661 12.986747781684649 11845.853981458686 16.341217546627558 0.2652538158433576
0.7910520925641843 12.988122564329919 10297.982382852435 17.10508607410392 0.26901600580700696
0.8146181406096866 12.99065315181585 8964.287625558356 17.902110958308537 0.27283894198021663
0.8384951520731065 12.994110236308043 7814.304530391041 18.73370652871519 0.27672415135538186
0.862669213841954 12.998370914488746 6821.004749078262 19.60111768789272 0.28067123227953605
0.8871382581886067 13.003307410246316 5961.496597024074 20.506475625848715 0.28468697178518676
0.9118907927511727 13.00879931793339 5216.143381793119 21.451572426551696 0.28877437916042337
0.936904212322267 13.014685874502208 4569.852341364162 22.43795444175827 0.2929338842837829
0.9621740785047425 13.020899866913341 4008.6128471701345 23.467520139392743 0.29716827748138747
0.9876930873819941 13.027276781675258 3520.2738733879482 24.542749620022242 0.30148414642986116
1.013432671058933 13.033750869313309 3095.368245447101 25.665658417091297 0.3058836757212418
1.0393837366372576 13.040195867772418 2724.4129715905974 26.838057788243407 0.31036702446649467
1.0655307868273878 13.046522738576535 2400.947961384775 28.063112571964993 0.3149434586554613
1.091852215415507 13.052649376787297 2118.035362104451 29.342962886673142 0.3196140197845364
1.1183443797855153 13.058484885198988 1870.7388814210055 30.680189259376927 0.3243822036170467
1.144970254318329 13.06395673332503 1653.8503706969268 32.07836896193421 0.3292572758753505
1.1717255464974652 13.068958588041212 1463.836531432635 33.539247396821736 0.334235672157152
1.1985740548194337 13.073422090076827 1296.9504504323918 35.06745504087812 0.3393315654858432
1.2255137827835114 13.077299920407688 1150.3825709378452 36.665125932395675 0.3445424043446774
1.2525038865579106 13.080469005084021 1021.3655979620277 38.33709167502615 0.3498813033729619
1.2795390921293426 13.082909632419835 907.8270126998297 40.085795762880245 0.35534607668030954
1.306577964094136 13.08451157943506 807.7861414290329 41.916617292881455 0.36095074892040696
1.3336087022996777 13.085230226075064 719.4724945971219 43.83288025916417 0.3666963945099277
1.3606123669361772 13.08503838928218 641.4321168390989 45.83954777244826 0.37259231245348157
1.3875384048590285 13.08379429240541 572.5320017026341 47.94180766857203 0.3786476745383759
1.4143893962469165 13.081519011219829 511.4643839570786 50.144242837773525 0.3848672709363038
1.4411171504399392 13.078101504695669 457.45498631348704 52.452389589644284 0.3912597392245636
1.4676996493787733 13.073496831697955 409.532576582583 54.872494981333475 0.3978359202035085
1.4941057158869753 13.067647624055288 367.03392941379644 57.41073841471641 0.40460485734481466
1.5203151331768585 13.060519241242961 329.27229063272665 60.07373646385637 0.4115763027664294
1.5462959685453241 13.052054398946513 295.6850588532669 62.86858222075962 0.4187607755565225
1.572010254451546 13.042191795738944 265.8231871133851 65.80288840678344 0.4261696248555446
1.597432576724844 13.03088885084125 239.24463477940964 68.88483463176803 0.43381509825331555
1.622524144073619 13.018086772359771 215.41586598486927 72.1232192304496 0.44171041612625
1.6472711961972257 13.003774168954754 194.3676650176967 75.5275161595562 0.4498698526153677
1.6716205667828645 12.98786907537417 175.47402422021494 79.1078840673763 0.4583086008667083
1.6955593629669763 12.970345307687229 158.58712376569636 82.87402497707421 0.46703792222689183
1.7190313592347013 12.951153467374764 143.4798270974379 86.83888285708194 0.4760803064020956
1.742029709538773 12.93025577401634 129.9669447247329 91.01428797605934 0.4854511551276174
1.764515051449394 12.907642796521515 117.84396330017658 95.41376100510007 0.4951701813322506
1.7864155188150836 12.883221866590056 106.98762797855217 99.96001947971807 0.5201341844615232
1.8052724176388848 12.856812713255028 98.07324158004185 105.148777309551 0.7116208887092459
1.8196857343003194 12.825652103805574 91.01332592281751 110.83852343540384 0.8904585966420722
1.8301976969299123 12.788565511376307 85.24626966155176 117.15032033927471 1.0649883182643298
1.837322521071153 12.745190371613985 80.41571937993439 124.11020798319417 1.2358931641731608
1.8415521262653805 12.695594023961508 76.26367222316792 131.74722906730247 1.4039079637928078
1.8432811277197256 12.639965172714168 72.60896573484386 140.09383098904559 1.5699011977261965
