M[M_sun], R[km], Lambda[1], P_c[MeV/fm^3], rho_c[fm^-3]
0.24162668629717493 15.618656898711224 2160425.4255784233 3.5677272577965504 0.1711233750220791
0.25364206402838824 15.27736573084859 1683692.1525183748 3.784801546884578 0.17388794795492582
0.2660382137525047 14.981291300934949 1383034.482178147 4.011363522501237 0.17666620237398087
0.27881103902487 14.723619632967711 1116562.2167204344 4.247669838137524 0.17945683713946606
0.29196449450126355 14.498492008187059 905907.1128214421 4.49434537609076 0.18226641300046217
0.30549871434405346 14.301303864081108 738710.8240380987 4.751543979493755 0.18509060172503594
0.31941391263269475 14.128228826800319 605151.7478536079 5.019950822833596 0.1879360856162719
0.3337103503859177 13.976066187007065 497740.6187135285 5.29978596177766 0.19079940953918634
0.34839014189691137 13.842068270604578 411052.9103169841 5.591782622311034 0.1936869635676697
0.36345178427791625 13.724054621579953 340698.7264957037 5.896102252281338 0.1965937030932426
0.37890338909596605 13.620082794372863 283358.9641009832 6.213611306433144 0.19952735895356244
0.3947335553833926 13.528539510650322 236446.38109233897 6.544571244033125 0.20248418162103624
0.410956520741506 13.44795004525354 197901.99124535578 6.889676353085339 0.20546774548121619
0.4275634976956037 13.377121171641255 166118.81306287984 7.249635221029933 0.20848118897758555
0.44455584651190383 13.315003196477656 139826.8729798071 7.624712670273879 0.21152015275678324
0.4619350000363728 13.260635854920825 118002.85370414029 8.015845960165217 0.21459061781161984
0.47969875711138915 13.213208934717992 99836.1717885128 8.423745286641307 0.2176943178144793
0.49785237480484523 13.172049165624081 84663.0694860353 8.848859509071813 0.2208288370341963
0.5163883828064194 13.136461499323401 71956.74331960175 9.292045872660736 0.22399735734712764
0.5353044453408997 13.105891194621284 61294.79120997993 9.754196416856072 0.22720290667939097
0.5546081960558551 13.07985563922799 52312.200543710234 10.236120425582781 0.23044683547916325
0.574289646130793 13.057874692247914 44744.368209408385 10.738300146723654 0.23372598272454098
0.594343305833923 13.039556783835204 38340.61077334675 11.261958015103515 0.23704625825665893
0.6147776891088168 13.024528863110872 32911.85766623272 11.808041757004071 0.2404094115290669
0.6355767587339023 13.012465770329792 28303.91969006453 12.37752998939357 0.2438170747952475
0.6567462521667582 13.003049265840541 24379.042927838265 12.971126945658373 0.24726737220152847
0.6782760127493833 12.995992206777997 21035.406454304106 13.590128744852038 0.250764748036182
0.7001609197411202 12.991073171168276 18178.861487538026 14.235747114920299 0.2543120043425809
0.7223921614090334 12.988002725335933 15620.941169775784 14.909171236908254 0.2579111247727438
0.7449774594362684 12.986650260221296 13639.606721391632 15.611449825322666 0.2615621993290478
0.7678940162026817 12.98675082084274 11840.157220118921 16.343810600137676 0.2652667415647453
0.7911362972673067 12.988132119120438 10293.07152974739 17.107887227040933 0.2690296268651897
0.8147059628408573 12.990664647141086 8960.025800757867 17.9051340833144 0.27285328649220564
0.8385853039034384 12.99412698276007 7810.036690108811 18.736938218522564 0.2767389992979255
0.8627643832538207 12.998382657154558 6817.517633560837 19.604599952708785 0.28068685500561624
0.8872362778111565 13.003339628196073 5957.648802469814 20.510225220737492 0.28470340309137326
0.911993691222951 13.008824465017051 5213.449577405942 21.455607253713957 0.2887916551218987
0.9370104960290834 13.014718861117007 4567.300057112736 22.44225769605419 0.29295175755222674
0.9622862385920892 13.0209115919018 4006.5196393586593 23.47214581021321 0.2971870637050101
0.9878080442914394 13.02731538459946 3518.216719889228 24.547719473238132 0.3015038892973878
1.013548151518268 13.033763327422854 3093.616200821401 25.67095321838528 0.30590410937915646
1.0395075661576285 13.040221793162539 2722.6954275565804 26.843742250585546 0.3103884993416247
1.0656584474231114 13.04655998192482 2399.3423651114163 28.0692132956369 0.3149660278851216
1.09198417072387 13.05267886614698 2116.715587374219 29.349458253870917 0.31963739911827266
1.1184799767540308 13.05851526863874 1869.5133828238693 30.687156796501377 0.32440678205573836
1.1451072612897415 13.063970501324649 1652.9358378344816 32.08578593321916 0.32928275985814326
1.171867618983892 13.06898534229949 1462.9060350407385 33.547200777085656 0.33426247586866925
1.1987207621123506 13.073448048391029 1296.0996712738936 35.07598235559318 0.3393597630038457
1.2256639903035405 13.077312086661767 1149.6430220629688 36.674202441761125 0.34457168375887687
1.252656837476739 13.080478969815074 1020.722626854097 38.34682177680613 0.3499121262023505
1.2796956616884003 13.082929965737074 907.2061332019371 40.09615409895494 0.35537812191162815
1.3067374870095736 13.084513313066351 807.1937569434697 41.92764666703212 0.3609840923894073
1.3337719952461982 13.08523308099576 718.9262378457777 43.84470428850066 0.3667315416400534
1.3607764929057486 13.085037690723286 640.9710783704754 45.85214168847449 0.37262893385053164
1.3877070401839064 13.08378102538013 572.1290856213215 47.955225246048364 0.3786858652951618
1.4145615989096691 13.081501074137572 511.105429573168 50.158631153863105 0.384907588583612
1.4412834475760996 13.078053052660941 457.12378814289514 52.46772581007467 0.39130184673988017
1.4678752410643918 13.073463406141656 409.25235043525396 54.888846989987144 0.3978799368699596
1.4942827022012874 13.067602553138471 366.74608289312334 57.428179593018434 0.40465091166477635
1.5204933526551472 13.060467144877778 329.03386155451346 60.09234618287085 0.4116245332184234
1.5464763309381384 13.051989352024101 295.4691191041928 62.888446382376614 0.41881133142710864
1.5721916331475365 13.042118297175135 265.6248230143272 65.82410003946204 0.426222667154256
1.5976140462433013 13.030800603491258 239.06133198130064 68.90749454696667 0.43387080071962775
1.6226947612895306 13.01796293937094 215.36809788117745 72.14743674662601 0.4417689663386426
1.6474520584373966 13.003663268588145 194.21253457017212 75.55340990147556 0.4499314532137558
1.6718019625042388 12.987741684954601 175.3391839339977 79.13544770034858 0.45837290650708423
1.6957406819091532 12.970203796051337 158.45849281396042 82.90352731952169 0.46710571852391136
1.7192043926098528 12.950971688410727 143.3792606955721 86.87047571760574 0.47615184868719884
1.742208310269442 12.930083540818485 129.8620699237 91.04798450726935 0.48552611750631236
1.7646898566429658 12.907445750253707 117.75323816842946 95.44988568004608 0.4952494469353301
1.7866170368530743 12.88302525589291 106.88109844811746 100.09008997584723 0.5053403445114582
1.8079579739873253 12.856783251313098 97.1471566920397 104.9849825478775 0.5158239913756173
1.8286706192114692 12.828667416581506 88.38378387160834 110.1510516291985 0.5267227640404043
1.8487522544322617 12.798716236705683 80.51230305300464 115.6058789190791 0.5380598996216922
1.8681425509434184 12.766828102104041 73.42979682952176 121.36982643661848 0.5498653366796757
1.8868159293674112 12.732996142136592 67.05060721492048 127.46419326833731 0.5621684616674667
1.9047426979852984 12.697197578710501 61.29682778743172 133.91155445365104 0.5749990951318652
1.9218884240964376 12.65940351861681 56.10916093839407 140.737249326978 0.5883923683625718
1.9382077629612116 12.619532000571535 51.4236228146371 147.96908918226896 0.6023870867224167
1.953709904555088 12.577718808622077 47.194711511580024 155.635733216743 0.6170196253113834
1.9683311383011297 12.533805630761389 43.365788264317935 163.7705908283005 0.6323368320472175
1.9820547419000172 12.487830943169563 39.90203067404658 172.407269906018 0.6483797911581838
1.9948494497031766 12.439773500751986 36.76731532788299 181.58533682427355 0.6652026878153992
2.0066870760499014 12.389621787115976 33.92680450425466 191.34658062099552 0.6828593128510737
2.0175479225319193 12.33738679811577 31.347952750814265 201.736983220037 0.7014088313809679
2.027391127578786 12.283026234289858 29.008406999669084 212.8066514704346 0.7209145494502351
2.0362104377015333 12.226583871529508 26.886343579285853 224.61058123642607 0.7414453153110363
2.0439635331646557 12.16801488052101 24.956736057670444 237.2103006080171 0.7630795995001225
2.0506322281065996 12.10733615947336 23.201179949025747 250.672234914196 0.7858987202417672
2.05620923551785 12.044593783668798 21.605622189845548 265.0696122931863 0.8099914362468975
2.060673947850977 11.979790776898996 20.15395449142672 280.4843058312504 0.8354580780788662
2.0639938886822455 11.91293620346937 18.832728717805644 297.0054018747934 0.8624037477558514
2.0661603594890225 11.844048323005092 17.628437929033364 314.7333919628446 0.8909495640157709
2.0671651696133275 11.773184490240942 16.532193361546863 333.77778647873583 0.9212220348999348
