M[M_sun], R[km], Lambda[1], P_c[MeV/fm^3], rho_c[fm^-3]
0.24162668629717493 15.618656898711224 2160425.4255784233 3.5677272577965504 0.1711233750220791
0.2536464419775591 15.277230343675235 1723153.8567624784 3.7848669699816018 0.17388876342226905
0.26604549745127104 14.981153279379848 1382851.8743227094 4.01150105581612 0.17666786438292462
0.2788225839473544 14.723403380833458 1116307.5800848275 4.247884135570797 0.17945932266675269
0.2919804873652252 14.498245509735105 905737.135406004 4.4946420619362835 0.18226971666620925
0.3055197812620925 14.301027037080344 738504.9133924069 4.751933128724494 0.18509480527943037
0.3194385208496913 14.127953027053383 604971.9173320428 5.020435303028666 0.18794111228528793
0.33374101225311364 13.9757178602602 497549.50765102735 5.300378529268694 0.19080537571057377
0.34842539069757866 13.841821737363967 410879.097150784 5.592484757625917 0.19369375691999197
0.3634907078309498 13.723870966557513 340529.3692766828 5.896929731387878 0.19660147495212446
0.37894851062187496 13.619826786098695 283204.75781751826 6.214574144463504 0.19953613887706687
0.3947855928474393 13.528247246075862 236301.82662893922 6.545668442343586 0.20249380256797667
0.4110149074197061 13.447678162233151 197781.3351587498 6.890929094994787 0.20547841435700978
0.427627562463155 13.376894538350529 166008.09233773706 7.25105526384702 0.20849293662788554
0.4446265052584246 13.314763772278384 139733.16678045562 7.62629609009597 0.2115327577967027
0.4620114938410845 13.260399855463552 117915.4082143458 8.017620378192513 0.2146043443696163
0.47978314980739223 13.21301053993655 99759.60570564264 8.425724541580655 0.2177091990446755
0.4979446624103651 13.171851960796307 83718.96929158864 8.851036303884078 0.22084459795870998
0.5164890834937216 13.13627394087742 71898.41676879163 9.2944554380451 0.22401432083765244
0.5354116513889008 13.105740872572266 61241.90702947581 9.756855092759706 0.2272211093819464
0.5547246721728041 13.079723487844037 52269.47918744397 10.239032437561137 0.23046614710204902
0.5744126172613778 13.057754550240894 44701.18843656646 10.741479000301759 0.233746391949198
0.5944753785595218 13.039447643038283 38301.32012631094 11.265438413086482 0.23706800384623883
0.6149182157303377 13.02443460818522 32878.07156775243 11.811844263085735 0.24043253711038473
0.6357280245764236 13.01240694701809 28271.46047511279 12.38167645031917 0.2438416262980677
0.656904635342953 13.002972174127848 24352.29647612032 12.975598320014823 0.24729292874377662
0.6784425356077536 12.995947992792738 21014.226225581853 13.59498853399283 0.25079180604010254
0.7003368400132899 12.99104445877322 18157.900059311363 14.241021380341175 0.2543406174898997
0.7225776034431514 12.987998176477541 15717.53699023682 14.91488771477627 0.25794134994607465
0.745172501332883 12.986634565479498 13622.775538177673 15.617582252928335 0.261593544231168
0.7680998067820968 12.986759266820888 11826.342420986723 16.350442032893742 0.2652997975938135
0.791351563787648 12.988152705714763 10280.815283097581 17.115050952092076 0.2690644616342726
0.8149316851083643 12.990692098544491 8948.249332651863 17.912865594925062 0.2728899719619687
0.8388210487084717 12.99414912421153 7750.939423766584 18.745203222330368 0.27677697271399454
0.8630083490815273 12.99842538540728 6765.690654795008 19.61350592696215 0.28072681049538706
0.8874952886800628 13.003393492870288 5949.694147540216 20.519815036709154 0.28474542715188556
0.9122592823134327 13.008898181552004 5206.096207305877 21.465926718696057 0.2888358400825693
0.9372865232122114 13.014786067967334 4561.118175885411 22.45326381961297 0.2929974707235534
0.9625763951621458 13.020999562282164 4000.4001726437086 23.483976729263873 0.2972351125825834
0.9881049014365018 13.027381701732965 3512.979188884536 24.560430884107753 0.3015543856983827
1.0138533278211594 13.033839736417237 3088.9462028269813 25.68449591253803 0.30595637324406755
1.0398224741751116 13.040303814395827 2718.71186245731 26.85828181262187 0.31044342718886564
1.065981797333792 13.046630831398353 2395.80941446469 28.08481779623146 0.3150237557181778
1.0923200333898815 13.052755280964845 2102.9523088394462 29.366072382382008 0.31969719977978567
1.1188254698625084 13.058585784283803 1857.219563562098 30.704978936768192 0.3244696508103755
1.1414346358769265 13.061686701045428 1679.124004058293 32.22303208237785 0.9148757517410615
