M[M_sun], R[km], Lambda[1], P_c[MeV/fm^3], rho_c[fm^-3]
0.24162668629717493 15.618656898711224 2160425.4255784233 3.5677272577965504 0.1711233750220791
0.25363680777343944 15.277462902191445 1723419.2472055927 3.784700679960116 0.1738866906973722
0.2660261336045073 14.98158930134533 1383287.4540971036 4.011151485304585 0.17666364002959511
0.27879333474860163 14.723954061016252 1116881.9844030826 4.2473394624825085 0.17945300527973337
0.29194053589038094 14.498872780030945 906270.1983610566 4.493887998215868 0.18226131999167336
0.3054677521726456 14.301719365762507 725831.9428878903 4.750944075739016 0.1850841216195512
0.31937563484110393 14.128664810042514 605443.1179573811 5.019203980005437 0.1879283368336749
0.3336648448591351 13.9764789162842 498092.7426135845 5.298872525171673 0.19079021274822944
0.3483360791903519 13.84251856449359 411319.1322656569 5.590700317317011 0.19367649196912068
0.3633879600969143 13.724542693154856 340946.9527104931 5.894826772514541 0.19658172351735254
0.37883241273544416 13.620524643525627 283586.6152559781 6.212127225602766 0.19951382592333905
0.3946532388831427 13.52896758148596 236665.40406312305 6.542880108979195 0.20246935265122482
0.410867061956088 13.448360972197056 198097.88925266176 6.887745528629677 0.20545130176991272
0.427463101624626 13.377541829741244 166295.25063618392 7.247446599242483 0.2084630830704337
0.44444597328245183 13.31536718075083 139983.57894449626 7.622272305785959 0.21150072588631016
0.4618136442867039 13.26099845442977 118143.3703800308 8.013111303234144 0.2145694630293828
0.47956665151331096 13.213552006571687 99951.29145566875 8.420695025715473 0.21767138411650358
0.49771010617507344 13.172343108406425 84772.79450078725 8.845504895454138 0.2208045481982882
0.5162354873810685 13.13671653797444 72056.4451597917 9.288332639447022 0.22397121595380998
0.5351383244860607 13.106139883122298 61377.443647187385 9.750099402879602 0.2271748563530322
0.5544305198862521 13.080102200236336 52391.6078649173 10.231612941468644 0.23041681739333836
0.5740960203761775 13.058077450130078 44810.700651701016 10.733401779730658 0.23369453369112175
0.5941431495892124 13.039753825073591 38397.8626257262 11.256595131474471 0.23701275086269633
0.6145609072912842 13.024672761992534 32963.53916251732 11.802182695393718 0.2403737786588475
0.6353468686515044 13.012567962556373 28350.1518576877 12.371141114037464 0.24377924579019047
0.6564988379492787 13.003110925021508 24420.639300534756 12.964237593959762 0.24722799549233085
0.678018025613723 12.99606812769708 21072.318577451115 13.582641130077423 0.250723059003169
0.6998895346230566 12.991116165088647 18211.777246623304 14.227621115628615 0.254267920399834
0.7221055595699594 12.988045714692092 15764.815523869554 14.900364154861096 0.2578645584101058
0.7446761461245686 12.986664986959184 13664.94393314482 15.602002114098639 0.2615139088961851
0.7675778997630985 12.986750412440758 11862.433334855814 16.333594379455153 0.26521581626695956
0.7908034379238073 12.988121000406586 10313.096941155802 17.096851257699768 0.2689759626833764
0.8143612823854467 12.990603501028849 8978.336200773503 17.89322373042882 0.2727967727193946
0.8382258086861525 12.994060751026465 7826.534876068448 18.724206295894458 0.2766805027011231
0.862387666191904 12.998317645523565 6831.693391735715 19.590881000280973 0.2806253067181632
0.8868434344628024 13.003246751527701 5970.787522933003 20.495453254398804 0.28463867004444754
0.9115849314754821 13.008734069160157 5224.967895452876 21.439711772807353 0.28872359527578106
0.9365868005273199 13.01461380296258 4577.694224200974 22.425304893300925 0.2928813452610518
0.9618460485319232 13.020810528131076 4015.179655193324 23.453923059121657 0.29711305569832036
0.9873521496395002 13.027194521131486 3526.2109762181017 24.52814106126923 0.3014261135609439
1.013077976361046 13.033652471969932 3100.5299165785023 25.65009490149842 0.305823613117205
1.0390211533248053 13.040106055694306 2729.3236831915556 26.821349182835274 0.31030390236397376
1.0651567521673682 13.046432787237679 2405.130042497254 28.045180731545248 0.31487712098038684
1.0914664064367237 13.052565007130447 2121.869248799747 29.323871331533496 0.3195453019083083
1.1179459285829394 13.058402619339352 1874.1084550427777 30.659710225740604 0.32430996249888633
1.1445601364613602 13.063865861946587 1656.9689680597219 32.05641404817335 0.3291813701091374
1.1713053473951585 13.068891417901508 1466.583924520952 33.51587149932262 0.3341568929724241
1.1981485097540787 13.073364034205872 1299.4301472228888 35.04239272728073 0.33924869120918516
1.2250736029346458 13.077237064669163 1152.651872255747 36.63844988620116 0.3444563515490171
1.2520529415809443 13.080422903050572 1023.3918526384414 38.30849522538477 0.34979071608946305
1.2790792387111385 13.082876724296122 909.695156207649 40.055353405647175 0.35525189819716485
1.3061080816959443 13.084480841007876 809.3867225997332 41.884203295543486 0.3608527564957552
1.333130338394502 13.085231100790537 720.9325692248597 43.798131521287196 0.3665931032902334
1.3601244594161614 13.085056954575762 642.7919668287415 45.80253705142553 0.3724846903042739
1.387045086950477 13.083832153565929 573.6995898410106 47.902377016840425 0.3785354421750564
1.413880628410643 13.081551314912355 512.5988475717202 50.101960279970164 0.3847487905497046
1.440608805122896 13.078172170414469 458.4255983671514 52.40732219546894 0.3911360010454515
1.4671813697272542 13.073589733674732 410.43732600606546 54.8244433770817 0.39770657392675535
1.4935877670210942 13.067773633839824 367.8100867211011 57.359487085987816 0.40446952559997185
1.5197910474397083 13.06068103250736 329.9882106797706 60.019052311315164 0.41143457889666457
1.54576846740178 13.05223827207762 296.3362667677962 62.8102129718758 0.41861222117755215
1.5714796156451343 13.042415085921265 266.40653966034415 65.74056086752572 0.4260137671709737
1.5968935724278812 13.031130783170704 239.75148898227488 68.81825276026946 0.4336514271000195
1.6219870935297793 13.018372598020516 216.0022782127525 72.05206201246101 0.4415383807203003
1.6467261603374093 13.004097619629677 194.79630490632164 75.45143526299773 0.4496888579654442
1.6710913365595927 12.988238054065159 175.86977501923909 79.0265546830888 0.45811822698094995
1.6950225200169977 12.970755656313468 158.94850487593968 82.78734455395299 0.4668387308670136
1.7185110290229932 12.951618175352182 143.80395810666454 86.7460622793094 0.4758701134620339
1.7415109868098655 12.93077630558981 130.26448237366648 90.9152885898486 0.4852309179336626
1.7639941939423736 12.908196594834392 118.11437069259138 95.3076301723626 0.4949373065873612
1.7859267289820224 12.883830995721073 107.21565098066618 99.9381510487888 0.5050124668985498
1.8072639873260956 12.857633604819064 97.44917184020035 104.82257300697596 0.5154791143750892
1.8280097796261447 12.829640907098513 88.65965383696468 109.97662644087204 0.5263569667860305
1.8480857419772183 12.799716685404004 80.76213632400022 115.419164678275 0.5376742124303221
1.867498914965991 12.76793396701343 73.65905424948848 121.16979722467404 0.5494581505066853
1.8861902805497484 12.734187561363974 67.25732246440072 127.24972710500576 0.5617380297889158
1.9041213132709682 12.698437449226232 61.486250738483584 133.68206463889265 0.5745457830555225
1.9212900967492892 12.66073426352139 56.28132522907715 140.49092568875602 0.5879124362431699
1.9376470350506994 12.621012879437513 51.582892801610946 147.7043116469934 0.6018777739598103
1.9531592086474112 12.579229459033 47.336261223809046 155.35175433109478 0.6164814568963929
1.9678101710441884 12.535440684539005 43.49977840057629 163.46479991023187 0.6317642587262364
1.9815660944872855 12.489567945260053 40.02614397274208 172.07864563922854 0.6477730223805911
1.994401145279218 12.441648372088343 36.878249693775224 181.23179747896714 0.664558710995823
2.0062567878521196 12.391558954020407 34.027824755685785 190.96583276597588 0.6821748378657212
2.0171420907416135 12.339410801087118 31.44063271687339 201.32649708631504 0.7006802589847296
2.027025373828395 12.285164024239704 29.095516708203945 212.36416675165435 0.7201396840908103
2.035884435017251 12.22883846982439 26.966292539418525 224.13301267872254 0.7406198266897508
2.043676768473223 12.170379824580142 25.029567025744253 236.69452275514664 0.7621996835240711
2.0503878589567095 12.109814136673114 23.270647795126965 250.11401154157028 0.7849576818157182
2.05601090811313 12.047202411915258 21.668023299131317 264.4656059116445 0.8089863345359809
2.0605045015150183 11.982476525516866 20.21188657939548 279.8300082483259 0.8343830941183563
2.0638730589365935 11.915741663427522 18.884540212232345 296.29676059694475 0.8612556219106023
2.0660924601358808 11.846977783622505 17.67665506643725 313.96362688184377 0.8897173215222275
2.0671455311623728 11.776230758867397 16.576952138184357 332.9418262598708 0.9199017025102687
