M[M_sun], R[km], Lambda[1], P_c[MeV/fm^3], rho_c[fm^-3]
0.24162668629717493 15.618656898711224 2160425.4255784233 3.5677272577965504 0.1711233750220791
0.2536371604746888 15.27745105716151 1723240.8268246343 3.7847080381786373 0.17388678241401634
0.26602652143800165 14.981574747291694 1383538.177804333 4.011166953097311 0.17666382694874175
0.27879512145827967 14.723893435673142 1116765.7441130404 4.247363562478739 0.17945328480337172
0.2919431004748054 14.498815614353473 906245.853102279 4.493921362124557 0.18226169150653998
0.3054709045135846 14.301657187261702 739008.4414881134 4.75098783561534 0.1850845943097325
0.31937763111122314 14.128660407891577 605413.1266030816 5.0192584574654315 0.18792890205834872
0.3336672533910549 13.97647452620069 498054.48936610133 5.298939153507216 0.19079088358501198
0.3483400942505236 13.842531422537926 411304.7081833572 5.590779262131795 0.1936772557819207
0.36339316627542617 13.724537398883625 335993.4386946566 5.894919806280224 0.19658259731016786
0.3788375460841443 13.620484682595237 283577.90165896044 6.212235473062032 0.19951481300982912
0.39465906256187544 13.528958179834358 236647.30373742516 6.543003456996606 0.2024704342467025
0.41087338863946204 13.448332670833576 198077.69345316626 6.887886356929908 0.2054525011228138
0.42747071752893373 13.37748289921026 166265.58075770305 7.247606228013505 0.208464403638347
0.44445398406025016 13.315342880701644 139972.53457691317 7.622450293142933 0.2115021427801172
0.46182299926167253 13.260981925011649 118134.89475734961 8.013310751710904 0.2145710059245977
0.4795760873593333 13.213524405228842 99956.44619281856 8.420917488982063 0.2176730567292704
0.4977202249335126 13.172325807915273 84764.95692533746 8.845749552690018 0.22080631962120997
0.5162465213250996 13.1366995943542 72049.16704388273 9.28860344734008 0.22397312245826
0.5351508022471823 13.10611775848874 61372.30167466542 9.750398195653643 0.2271769020465235
0.5544446484124761 13.080052073831753 52385.809369247116 10.23194166471711 0.2304190065619378
0.5741106906154875 13.0580464681645 44804.383327599135 10.73375900487078 0.23369682718717583
0.5941586389121072 13.039716803329819 38393.972828903505 11.256986226864464 0.23701519443377037
0.6145773036150826 13.024659470937642 32683.268475444398 11.802609968958789 0.24037637719501334
0.6353633324016348 13.012578998549435 28348.103215693758 12.371607017582866 0.24378200443965423
0.6565160764333613 13.00311077744627 24420.292809452894 12.964739988146947 0.24723086697148836
0.6780365661154831 12.996073289164778 21070.459420532432 13.583187143616897 0.250726099060271
0.6999093472460827 12.99110953655528 18209.301318184396 14.228213672943335 0.2542711350521861
0.7221270703246931 12.988034434281134 15763.221557666297 14.901006368139798 0.2578679540337944
0.7446972475821317 12.986661148822293 13662.781542846253 15.60269103379176 0.26151743019667784
0.7676010631772456 12.98674740432891 11861.410763578431 16.33433932737028 0.26521952964547707
0.7908291409926022 12.988108139429942 10311.727231240733 17.09765596837679 0.26897987571890086
0.8143870751275649 12.990618357722688 8977.535665729343 17.894092185828395 0.27280089347816805
0.8382516120012196 12.994066052255286 7824.99440061557 18.725134645721297 0.2766847679882363
0.86241514950397 12.998322892529394 6830.645586998143 19.591881304727995 0.280629794453358
0.8868723855269067 13.003261869417067 5969.916484963912 20.496530322351486 0.2846433899232182
0.9116148657139963 13.008737713751717 5224.009091988906 21.44087074221842 0.2887285576471768
0.9366163642104341 13.014630248530766 4576.895035457097 22.426540939048465 0.2928864790913894
0.9618780328303018 13.02081928006113 4014.585001905946 23.45525167800146 0.2971184516143624
0.9873857139042393 13.027203025204297 3525.6764258520416 24.529568499517225 0.30143178409546645
1.0131122555850611 13.033662533694807 3099.987785567732 25.65161563732388 0.30582948192963266
1.0390550292928102 13.040110618338579 2728.7752327705634 26.822981788903537 0.31031007005571704
1.0651940197694216 13.046443425913155 2404.7129187608357 28.04693284068218 0.3148836027939598
1.0915048210997376 13.052573822771123 2121.4590860447834 29.3257367385835 0.3195520162283226
1.1179852324259774 13.058413591399678 1873.8291200410506 30.661711178167522 0.32431702098823073
1.1446004624014965 13.063867016943103 1656.795052525058 32.058559922164356 0.3291887913761638
1.1713463044290953 13.068892307472723 1466.3190021666842 33.51815544844869 0.334164590116464
1.1981906120237387 13.073374088827352 1299.1754195386486 35.044841419045675 0.33925678836901
1.2251168803016408 13.07724347746052 1152.4417156735217 36.64105622099089 0.3444647591815968
1.252097374222618 13.080428908425883 1023.2013097551079 38.31128915563549 0.349799566648007
1.2791248894040934 13.082882785438258 909.5453196462246 40.05832765499434 0.3552610995310125
1.3061542013666814 13.084487743174936 809.2847109333361 41.88737014393732 0.3608623303582252
1.3331763988017489 13.085224052153592 720.8118973099881 43.801526430800465 0.3666031947170248
1.3601715930320415 13.08505376819853 642.6587586412676 45.80615291591193 0.37249520474702225
1.387092692781891 13.083826641324762 573.5688437107526 47.90622926186372 0.37854640690792446
1.413929388964581 13.081546378869657 512.4984148279867 50.106091091994 0.3847603655402203
1.4406584713696087 13.078164766563214 458.3420013422428 52.4117250242484 0.39114808956368247
1.467231129759439 13.07357929191365 410.35523888083986 54.8291376929599 0.3977192101808451
1.493637124290916 13.067763084225922 367.73161904766846 57.36449393520741 0.40448274644044296
1.519841811312829 13.060666971308557 329.9268819270267 60.02439445699121 0.41144842403319637
1.545820053541741 13.052220535267043 296.26978747213565 62.81591504902213 0.4186267334172248
1.571531886549364 13.042392078091071 266.34821774354907 65.74664955369963 0.4260289926802822
1.5969462035088697 13.031108929242192 239.7099415626904 68.8247569635884 0.4336674156932285
1.622039719608337 13.018345011098285 215.95388732959742 72.05901307896043 0.4415551861770174
1.6467883917835924 13.004067867985704 194.74867668159507 75.45886720554269 0.4497065383806341
1.671143493734947 12.988200452736162 175.83298497784932 79.03450443433157 0.45813684515101205
1.6950734897092858 12.970712711798946 158.913590056326 82.79581169468388 0.46685818833175285
1.7185631058982984 12.951574899318382 143.77516458214282 86.755129074873 0.47589064529303715
1.7415622658131338 12.930728732769127 130.2327716036719 90.92495881671574 0.48525243062895945
1.7640453919967856 12.908142753897788 118.08942516528754 95.31799684089104 0.4949600533728772
1.7859766780960542 12.88377791868381 107.19816003842587 99.94922318103785 0.5050363600795924
1.807313114214829 12.85757322065856 97.42276680843669 104.83440793365327 0.5155042458666954
1.8280590206440563 12.829573046080904 88.64091174968765 109.98933667438632 0.526383622159412
1.8481431416657614 12.799670520790384 80.74378077134355 115.43277013312624 0.5377023166051632
1.8675463693072598 12.76785380553729 73.64058559792417 121.18437261027438 0.5494878206504846
1.8862351724406097 12.734100863916558 67.2406064882497 127.26535412341563 0.5617693930901743
1.9041670119786327 12.698342818690682 61.471142916255864 133.69883272409476 0.5745789777517957
1.921331666250389 12.660634936962477 56.26874780217674 140.50887323607094 0.5879474048904466
1.9376812680577438 12.620877042067782 51.57156783357879 147.72360332091213 0.6019148824544137
1.9531990925527336 12.579114710967623 47.327834445315396 155.3724445642586 0.6165206669593598
1.9678574456579558 12.535339405969818 43.49075771905006 163.48707877182903 0.6318059744248351
1.9816014019210593 12.48944272852521 40.01666546444286 172.10258749760376 0.6478172284043322
1.9944366481530584 12.441513771472092 36.87039753461594 181.25755389304317 0.6646056266611954
2.006288748399178 12.391417991047419 34.01978979854381 190.99357070077082 0.6822247026837686
2.017173262722573 12.339263093204774 31.43495229340909 201.35640070503416 0.7007333349582073
2.0270517992911 12.285006974928159 29.090297614237123 212.3964394406314 0.720196258293069
2.0359082755342754 12.228673611250986 26.961027131724073 224.16780135095362 0.7406799597379031
2.043696941898741 12.17020863773999 25.02430691992386 236.7321514176116 0.762263967523706
2.050404365416546 12.109634591389579 23.264957848853747 250.1546732055205 0.7850262281900204
2.05601945312673 12.046991608517516 21.662726615908973 264.50960116999335 0.809059545201944
2.0605164256917083 11.982278952130114 20.207791029995935 279.8776710143178 0.8344614114917118
2.063881976925481 11.915533458325243 18.880652070968598 296.34837423370493 0.8613392452503428
2.066097656808758 11.846764135040031 17.67336047232845 314.0196905886307 0.8898070684899109
2.067146727131591 11.776007513373417 16.573708573687586 333.00270911500286 0.9199978621166616
