M[M_sun], R[km], Lambda[1], P_c[MeV/fm^3], rho_c[fm^-3]
0.24162668629717493 15.618656898711224 2160425.4255784233 3.5677272577965504 0.1711233750220791
0.253644301277759 15.277265704076525 1723205.8974797905 3.7848244744276514 0.1738882337356896
0.26604041340748086 14.981270453952584 1382998.384417224 4.011411720706875 0.17666678482085138
0.2788156241297917 14.72349080739705 1116398.5414488788 4.247744937558319 0.17945770817957488
0.29197069532571984 14.498397242569999 905857.9615555198 4.494449347322447 0.18226757074425745
0.3055061463931774 14.301211433678633 738603.4511968351 4.751680352757948 0.18509207481656148
0.31942334219958546 14.128103854877077 605123.4619185522 5.020120602613213 0.1879378471470144
0.3337208538841478 13.975969101198501 497668.7938357988 5.299993617804298 0.19080150029081092
0.34840253319984527 13.842014719456772 410998.8812980402 5.592028672970475 0.193689344175486
0.36346618127368874 13.723960612741086 340632.25599206553 5.896392225311854 0.19659642658131002
0.37891918200716757 13.619988857900236 283298.66653736075 6.2139487107881415 0.19953043567501874
0.394751609226313 13.528433226528989 236393.44243489456 6.544955729321058 0.20248755303759722
0.41097720802470256 13.447850501719953 197859.17534772953 6.890115341583678 0.20547148409148241
0.42758486779894866 13.377051512631416 166074.54166222556 7.2501328319834935 0.2084853055854776
0.44458072732228177 13.314929839594546 139793.4343353825 7.625267528264832 0.21152456978316372
0.46196239709254416 13.26056341516721 117974.18052470958 8.016467742981884 0.21459542780439655
0.4797274117492826 13.213177370120661 99805.66733493454 8.42443884264107 0.217699532386024
0.4978847339943854 13.171976205710203 84639.90805997653 8.849622280947083 0.2208343598284806
0.5164239881667841 13.136388197580768 71933.89226073769 9.292890204085849 0.22400330149299835
0.5353428643576692 13.105834204474045 61272.65118240939 9.75512803235897 0.22720928501225662
0.5546500627999519 13.079798545399187 52301.48636767638 10.237145397526302 0.23045366139246426
0.5743315539376006 13.05783832078518 44728.19281885895 10.73941402157809 0.2337331341461417
0.5943889789250445 13.039523346999141 37990.16092940916 11.263177543416829 0.23705387789162946
0.61482671722405 13.02449957318172 32900.786880824664 11.809374142829178 0.24041751465792022
0.6356311945771633 13.012429718810996 28290.906506601226 12.378982886211476 0.24382567750511558
0.6568019209784624 13.003011157377236 24369.504159549157 12.97269368155932 0.247276327021468
0.6783341891192525 12.99598771698619 21026.734116486576 13.591831567084617 0.2507742288941596
0.7002237295243106 12.991058779553695 18171.69495341848 14.237595153301063 0.2543220300409901
0.722457498197006 12.987996074393184 15729.068424861294 14.911174207843295 0.257921715235103
0.7450448078984663 12.986650077855877 13633.558268604227 15.61359852720536 0.2615731820677818
0.7679656958997685 12.986758360988887 11835.435462631285 16.346134129792425 0.26527832377731286
0.7912115992462156 12.988139681364723 10288.420934410646 17.110397245207793 0.2690418322335717
0.8147865207546888 12.990669558928934 8955.678137701127 17.90784302380211 0.2728661402211213
0.8386673289504871 12.994141582336136 7806.910321323868 18.739834066348013 0.27675230422033154
0.8628504224799983 12.998405049990687 6814.359076997883 19.607720359357202 0.28070085430231023
0.8873297428332885 13.003356411812007 5955.052945656003 20.51358520387495 0.28471812705845523
0.9120872637865268 13.00884828832646 5210.865402143738 21.45922285934792 0.288807136098191
0.9371077221253787 13.014735873434795 4565.040683574984 22.446113863309705 0.29296777387563744
0.9623913713223344 13.02095465667456 4004.2432686990833 23.47629092898467 0.29720389826397575
0.9879123396565502 13.027335849248773 3516.3759105598906 24.552173053131977 0.3015215812560924
1.0136530877180823 13.033803307290633 3091.661477311852 25.67569802076313 0.3059224204853299
1.0396194341905902 13.040248548590547 2721.2538525996665 26.8488362786699 0.3104077436624481
1.0657700692611376 13.04657311744751 2398.166496539356 28.074680392989006 0.3149862530555032
1.0921026665368754 13.052703200447452 2115.675545477292 29.35527904487151 0.3196583503918909
1.1186017742922671 13.058537352396502 1868.5049679186739 30.693400771639347 0.3244288080826371
1.1452309079189675 13.06399517045756 1651.95418123658 32.09243271431518 0.32930559754330757
1.1719955305098033 13.069010271260682 1461.997617249326 33.55432832549264 0.3342864964416818
1.1988513821080466 13.073463116837324 1295.4034751693582 35.08362430952029 0.3393850328737442
1.225797746732832 13.077332236504418 1148.9862232818182 36.68233662589938 0.34459792337776224
1.2527937873637074 13.080491935688165 1020.1029168336953 38.35552534929732 0.34993965289477874
1.2798352721926722 13.082941274844435 906.5564832158823 40.10543717756759 0.3554068406555795
1.3068809496827183 13.084526521199159 806.6859393973539 41.93753119776817 0.3610139748233222
1.3339184238447535 13.085233285562056 718.53928765678 43.85530108574028 0.3667630408017095
1.3609250178721182 13.085034451771575 640.5596498446488 45.86342854966049 0.37266175450965633
1.387856768531009 13.083771818833611 571.7546928848716 47.967250377353366 0.37872009270065266
1.414714169240262 13.081481700101996 510.79073055812967 50.17152640505089 0.38494372249852626
1.4414368478706396 13.078028787732094 456.8212383129177 52.4814707115651 0.3913395850896033
1.4680319927827223 13.073430161135972 408.9882773061163 54.903502398261224 0.3979193865933157
1.4944411095243748 13.06756744398003 366.4995261486944 57.443811293795086 0.4046921879671366
1.5206532106054442 13.060419427815262 328.818367122493 60.109025332413054 0.4116677602505279
1.5466368856087884 13.051933862093085 295.2675731403646 62.906249992830595 0.4188566430311638
1.572353415061313 13.042050882649663 265.4419359503191 65.84311151313163 0.426270207684521
1.597777117270491 13.030723023124473 238.90303012542256 68.92780426502148 0.4339207259455538
1.622864364657171 13.017898632807793 215.21712052491748 72.16914271842211 0.44182144443960025
1.6476158436795725 13.00356154530523 194.08365526362007 75.57661848142787 0.4499866658754581
1.671965376788122 12.987626459402357 175.22511533866665 79.16015320477302 0.4584305441662571
1.695902188836888 12.970074661244148 158.3472602402074 82.92997076797792 0.46716648549144796
1.7193826222797093 12.950865724500572 143.26674692878757 86.89879322165586 0.4762159739013953
1.7423638736392388 12.929917991618565 129.77732648071387 91.0781878543234 0.4855933088360552
1.764847194053717 12.90727770039295 117.67073619414157 95.48226580235813 0.4953204961538127
1.7867743454984677 12.882841107388101 106.81638391718973 100.12467506686275 0.5054149776374379
1.8081130412579391 12.856583114084437 97.07828609259698 105.02195193298671 0.5159024959423877
1.8288226744968585 12.828449220787748 88.325394915474 110.19063803633455 0.5268055892477692
1.8489023504974618 12.798483824337083 80.45538315845293 115.64838318269886 0.5381476987632369
1.8682783078577343 12.766544244621658 73.38235503069582 121.41536301336647 0.549958032462641
1.8869577064840475 12.732724386148288 67.00303350764682 127.5130153696959 0.562266443440618
1.903673379103691 12.69779971070367 61.55265275545554 134.1326066297082 0.8358133801013105
1.9107559034260435 12.66148477865687 58.3866504521859 142.38288096861973 1.361566179185845
