M[M_sun], R[km], Lambda[1], P_c[MeV/fm^3], rho_c[fm^-3]
0.24162668629717493 15.618656898711224 2160425.4255784233 3.5677272577965504 0.1711233750220791
0.25364528754744525 15.27726014115956 1723107.7963102115 3.7848495781766434 0.17388854664181033
0.26604282571212307 14.981221060539081 1382956.4915857485 4.0114644942005535 0.1766674225573777
0.27881975384269225 14.723436376103301 1116345.7534261704 4.247827166621037 0.17945866191278584
0.29197686693935615 14.498286610621848 905754.6494418386 4.494563190136404 0.18226883841041241
0.3055132706297681 14.301144550068967 738574.5865008786 4.751829675309107 0.18509368778510038
0.31943248645000005 14.128012493978497 605005.2922731388 5.0203065052971585 0.18793977595911218
0.33373229929423026 13.975876590790964 497587.218170383 5.30022099550614 0.19080378960698063
0.34841601869580063 13.84190311695872 410930.5879819883 5.592298093855666 0.19369195089666535
0.36348178188993935 13.723836933348725 340592.5375864104 5.896709742973931 0.19659940877438614
0.3789364815349077 13.619883765080935 279324.55206127866 6.214318168293672 0.1995338046826134
0.3947714158653754 13.528335709073975 236355.8636089448 6.545376743535958 0.20249124476349956
0.4109994224294643 13.447774258903847 197814.2878096464 6.89059604104383 0.20547557792980276
0.42760890116709876 13.37696811220854 166037.46172959887 7.250677728289022 0.2084898133729683
0.444607889099643 13.3148224487921 139760.86751537418 7.625875115800521 0.21152940657062533
0.4619898904830676 13.260486965724002 117942.32205367381 8.017148620680016 0.21460069494385758
0.4797601134720497 13.21306688939786 99777.76466350978 8.425198320807912 0.21770524260010765
0.49791973074296053 13.17190912797025 84610.4539962298 8.850457559615798 0.22084040760292922
0.5164627852001631 13.13631583798458 71915.12540529732 9.293814802182242 0.22400981072123893
0.5353830028024253 13.105783155063765 61254.64684610342 9.756148220005393 0.22721626975690082
0.5546939374524174 13.079760403964611 52284.35881859001 10.23826228263027 0.23046106505254418
0.5743796894734181 13.057787940277821 44710.98993153531 10.740633813890756 0.2337409655906334
0.5944397305111941 13.039472896985176 38312.05092048422 11.264513045755935 0.23706222213441186
0.614880034988189 13.02446825316548 32610.814458687117 11.810833246125247 0.2404263884404204
0.6356885131230208 13.012401922077645 28278.8274965853 12.38057397375065 0.24383509845249846
0.65686233696079 13.002990162379803 24359.27440573722 12.974409446722218 0.24728613363155652
0.6783977549219335 12.995958181336444 21017.451080445087 13.59369637719253 0.250784611657228
0.7002899896057099 12.99105212888104 18163.503096557488 14.239619009001554 0.25433300955693955
0.7225277386588794 12.988011876382961 15721.524580870035 14.91336775242127 0.25793331333214964
0.7451201067649743 12.986644183316095 13627.03036200281 15.61595168298615 0.2615852098392233
0.7680440480844394 12.986767733813782 11829.779727300853 16.34867876770958 0.2652910081591126
0.7912927359221318 12.988150723070722 10284.559749093585 17.1131461386768 0.26905519917165804
0.8148708939561281 12.990674923318672 8951.12836210487 17.910809793200315 0.2728802173297816
0.8387576609639131 12.994142785755672 7803.167299106931 18.74300555195632 0.276766875555731
0.862943752829846 12.998427812494164 6810.302536092149 19.611137804106445 0.28071618622163047
0.8874285709630829 13.003383116558195 5951.732049835207 20.517265059004572 0.2847342527542038
0.9121885029850905 13.00887869048795 5208.159145178716 21.46318270277251 0.28882409100101597
0.9372125607567534 13.014774064684547 4562.80362870323 22.450337198272177 0.29298531520466925
0.9624999067117818 13.02097644597124 4001.987075228573 23.480830763415696 0.2972223358805164
0.9880254352332165 13.027370545546072 3514.345763059484 24.55705075979308 0.3015409580691009
1.0137721301456517 13.033826114205956 3090.2010937544487 25.68089471672967 0.30594247553589193
1.0397399379535108 13.040280681313307 2719.7421944759826 26.85441550474482 0.31042882097391045
1.0658949798642878 13.046603475913184 2396.7699355431278 28.08066827051824 0.3150084048182126
1.0922322079297866 13.052738102785314 2114.324394516258 29.36165434925355 0.3196812975732094
1.1187335025162761 13.058567591238404 1867.1287156655817 30.700239630230193 0.3244529325994633
1.1453683639766439 13.064022078921726 1650.9153689913283 32.0997128036821 0.32933061121331236
1.1721357108418613 13.069033317979093 1461.1120671123028 33.56213505485236 0.33431280592453155
1.1989945282256926 13.073488387593978 1294.4934708234127 35.09199453238583 0.33941271093158804
1.225943246638542 13.077355015762379 1148.2111819041577 36.69124604917886 0.3446266637981128
1.2529447543639092 13.080517270377749 1019.396819061607 38.365010136044354 0.34996951957897143
1.2799905529033686 13.082949997833367 906.0337014201534 40.11560515196715 0.35543829697147095
1.3070435167958325 13.084546313549744 806.1729785470728 41.948358034725054 0.36104670599170147
1.334077726509894 13.08524111362067 718.0093194048001 43.86690819481159 0.36679754313262425
1.3610878106947368 13.085030207286293 640.1349276172906 45.87579160624815 0.37269770459881896
1.3880294974174112 13.08378019393201 571.343507044369 47.98042219751509 0.378757583952789
1.4148740095443457 13.081450852714843 510.43554350630444 50.18565145041967 0.38498330243226175
1.441607281482904 13.078009079759703 456.5137319769892 52.496526555212256 0.3913809227953213
1.4682031119885215 13.07339913482319 408.68324830683315 54.91955571871481 0.39796259924485
1.4946144975709768 13.067523378271822 366.2450592321347 57.460934171267475 0.40473740179753964
1.520827630142394 13.060366782620019 328.5869349915862 60.127295732492726 0.41171511129614374
1.5468124421533682 13.051869992284107 295.0542943120118 62.92575229844283 0.418906277949449
1.5725305371902414 13.041977250288129 265.2479923403579 65.86393711014611 0.4263222846535324
1.5979442633362295 13.030631961184376 238.71501640863806 68.95005218753546 0.4339754156539436
1.6230539012468423 13.017815632001737 215.05376548151412 72.19292036049161 0.44187893117701893
1.6477949348923924 13.003452041188268 193.92804849340413 75.60204238285807 0.45004714873445695
1.6721431383246137 12.987503709578466 175.09434568779122 79.1872171329673 0.45849368400110296
1.6960799629273131 12.969942062955221 158.23214620853 82.95893883243066 0.4672330540191917
1.719559339082625 12.950712434596753 143.15915799701162 86.92981457539805 0.47628622200482496
1.7425407393321886 12.92975953708051 129.66608707392035 91.11127540852063 0.48566691646505317
1.7650212355387938 12.907092728169433 117.57618126850144 95.51773837541127 0.49539833089973195
1.7869319231623657 12.882610667164213 106.73294275333076 100.16256354804602 0.5054967393360862
1.8082821127397006 12.856365982399602 97.00355922501059 105.0624528356216 0.515988499694026
1.8289859374200925 12.828206607022896 88.26419183613379 110.23396571136067 0.526896175890751
1.8490651618316765 12.798226184926683 80.39920923476068 115.69494870006093 0.5382438870535822
1.8684374752614505 12.766267278047854 73.32205672731142 121.46525111021741 0.5500595863458816
1.8871137015401 12.732426503229012 66.9535971532732 127.56631648220716 0.5623731213972604
1.905031813994699 12.696591290205797 61.20333883207092 134.02097064717987 0.5752151166713176
1.9221689843236927 12.658752137392113 56.02765386298753 140.8547708227853 0.5886213449275706
1.938477188828524 12.618854077438447 51.35295786472053 148.0954198104972 0.6026300899711544
1.953966655833575 12.576976605673163 47.12333859780908 155.77122988148258 0.6172764050544723
1.9685760673175645 12.5330208292553 43.30344734793467 163.91609633703317 0.6326086703682238
1.9822865393646827 12.4869998150632 39.84591257434296 172.56408063967706 0.6486693250325543
1.9950675049235835 12.438894727541566 36.71608918936403 181.7540429129005 0.6655099882950756
2.0068972112204655 12.388712018468114 33.87525764775016 191.52827770625842 0.6831859518803797
2.0177359524461034 12.33641319227912 31.30294216609781 201.9328799280239 0.7017565287140278
2.027566798800246 12.282005565953853 28.96902891306639 213.01758845456874 0.721283571084019
2.0363652267871983 12.225511543407254 26.84791913516368 224.83851107899486 0.7418392974701564
2.044100224338941 12.166890710684301 24.922623956582054 237.45633380775627 0.7634991087066726
2.0507497124458385 12.106156527280358 23.169529708985564 250.93829370676448 0.786346623387081
2.056312032580442 12.04338092104893 21.576224499117146 265.3577627071391 0.8104706730325402
2.0607481592528307 11.97850452767041 20.12586709307938 280.79611741834475 0.8359695216552121
2.06404282321868 11.91158008193032 18.80676283222067 297.34369562146935 0.8629518442413171
2.0661893205866577 11.842648159119396 17.606304600676594 315.1008846251657 0.8915378474879032
2.0671733785067876 11.771734436122708 16.511345766146533 334.1769020620295 0.9218524060826194
