M[M_sun], R[km], Lambda[1], P_c[MeV/fm^3], rho_c[fm^-3]
0.24162668629717493 15.618656898711224 2160425.4255784233 3.5677272577965504 0.1711233750220791
0.25363996291830204 15.277427641011087 1723277.129249385 3.7847623851568657 0.17388745982288212
0.26603322157119896 14.981426121503333 1383177.365990072 4.011281197804162 0.17666520752860143
0.2788042654127328 14.723722038883956 1116665.5864983967 4.247541566400291 0.17945534938061555
0.2919559962022757 14.498601047775239 906096.055995264 4.49416779250539 0.18226443556602406
0.30548693844398017 14.301475014252995 725652.4063093648 4.75131105559954 0.18508808570243648
0.31939854772403314 14.128402320150787 605233.1003138511 5.019660844058912 0.18793307697456302
0.33369270895757686 13.976217580127054 497855.9287530799 5.299431295349342 0.19079583863675117
0.34836997188819635 13.842276771315074 411163.536021156 5.591362383954243 0.19368289764596416
0.36342598678440013 13.724278705764334 340800.22892099724 5.895607002642058 0.19658905160382448
0.3788740717290901 13.620291169598984 283433.38678132766 6.213035054118771 0.19952210422630834
0.3947018310891211 13.52870673131915 236518.4633967388 6.5439145885742915 0.20247842363976032
0.4109217167760429 13.448134806077935 197980.8010045453 6.888926620301107 0.2054613604422125
0.4275235210734619 13.377295158311924 166191.75297764328 7.248785377746144 0.20847415844189496
0.44451365515131674 13.315141218757025 139899.70293236553 7.62376506650403 0.21151260922146803
0.4618890717951617 13.260762522350378 118056.51660849439 8.014784070782602 0.2145824032387446
0.47964661065115105 13.21334618279071 99882.79437496238 8.42256083388343 0.21768541238557465
0.4977973321837828 13.172158759065203 83829.97927112077 8.847556861130064 0.2208194053065194
0.5163286203694093 13.136560235560854 71994.14152947292 9.290603953060453 0.22398720614324844
0.5352407396684058 13.105984057914174 61325.792161507066 9.75260545225082 0.22719201409355677
0.5545410020149025 13.079927435638657 52344.830091579264 10.234370048900802 0.23043517865328544
0.5742151198175911 13.057956168384862 44770.10793465541 10.736397963810962 0.23371377012101896
0.5942633498396549 13.039648367010575 38361.77433753721 11.25987542628227 0.23703324620401664
0.6146936919015515 13.024583184463431 32932.22292339555 11.805766463519957 0.24039557394844013
0.6354868024824921 13.012501193633495 28321.31514296511 12.37504892538233 0.24380238423113462
0.6566517534117444 13.003072065145286 24395.466863043224 12.968451504282307 0.24725208047573927
0.678175794618624 12.996025899873567 21049.218670206497 13.587220943378776 0.2507485581766255
0.7000549646570516 12.991092858255358 18191.556228453424 14.232591367617333 0.254294884259446
0.7222813080951487 12.988017516579452 15746.206785808918 14.90575095685651 0.25789304046282596
0.7448601052341296 12.986646309300795 13649.33348887431 15.607780724054361 0.26154344531717527
0.7677713533660798 12.986745395521911 11849.178956790654 16.339843003257098 0.26524696408940324
0.7910062880034292 12.988132376466842 10301.35898696917 17.103601229093776 0.26900878550853335
0.8145741026319452 12.990640126874876 8967.853190819758 17.900508459434405 0.27283133823764305
0.8384462820036512 12.9940932571389 7766.917430465696 18.73199348238232 0.2767162807938363
0.8626171082830075 12.998362004364193 6822.934282321317 19.599271828793153 0.28066295107387873
0.8870838168229096 13.003307393807823 5962.989725882541 20.50448807431878 0.28467826202620783
0.9118344627119884 13.008800806506795 5217.691545523643 21.4494336950553 0.2887652217315046
0.9368464582386826 13.014676740685546 4571.289970903154 22.435673437296575 0.29292441028985605
0.9621149424742593 13.02086608656706 4009.9878308457337 23.46506824872777 0.29715831962486927
0.9876303143362264 13.02727327525637 3521.3315236567787 24.54011530826348 0.30147368155981014
1.0133686545656873 13.03373253583198 3096.3823469704307 25.662851878401135 0.30587284474792764
1.0393181517794186 13.040181709240114 2725.290902744591 26.835044727040028 0.3103556416638289
1.0654637980518866 13.046516887749467 2401.6093905740277 28.059878891672543 0.3149314958659476
1.0917843165228724 13.052635969767872 2118.882746150155 29.33952004431871 0.31960162766597644
1.1182724268390372 13.058472995167742 1871.289888779171 30.676496169856147 0.324369176004456
1.1448951082913494 13.063934483056727 1654.4773573547998 32.074415903792996 0.32924362752876435
1.1716498077751156 13.068945936470284 1464.3499966997092 33.53503182006596 0.3342214652288409
1.1984960375776792 13.073411809994656 1297.3890159455848 35.0629352893167 0.339316619892737
1.2254343367911762 13.07729189738914 1150.7397494478432 36.66031511693686 0.34452688539870546
1.2524224453351918 13.080461015363749 1021.7949116275685 38.33193447274909 0.34986496648671933
1.2794577805188678 13.082903701557308 908.1346654792977 40.08030561207733 0.3553290919878662
1.3064926236545056 13.08450562695845 808.0377045498756 41.910771511107065 0.3609330762364709
1.3335227989637437 13.085226250711184 719.7658205061745 43.82661334063743 0.3666777659870546
1.3605221373505147 13.085045126999788 641.7222914416151 45.83287284255555 0.3725729026640742
1.3874494697946893 13.083800791701222 572.7548965608394 47.93469623195094 0.3786274330941306
1.4142983665213427 13.081526599888432 511.6509510306276 50.13661695935839 0.38484590238459543
1.4410249172164848 13.078109990122753 457.63106935805297 52.444261369418214 0.3912374221772037
1.4676075373248594 13.07351526215147 409.6955514646457 54.86382844854935 0.3978125914558956
1.4940121751632884 13.067669009353553 367.1807782691943 57.40149468593798 0.4045804488079929
1.5202209602847438 13.060548468047267 329.40343939137887 60.06387348227643 0.4115507410661567
1.5462006386457015 13.052087898625857 295.8014013162116 62.858054469515785 0.4187339815926136
1.571914681753557 13.042233516334369 265.9506249909602 65.7916465933794 0.4261415133172359
1.5973315390077467 13.030926228293838 239.32866159494776 68.8728253403506 0.43378557708588183
1.622423108688535 13.018142848389012 215.60222284852472 72.11038453829977 0.4416793859435552
1.6471751571856663 13.00383223236508 194.4350433939133 75.51379321369303 0.44983720605236993
1.6715297599931533 12.987934394750894 175.54550941297563 79.0932580492949 0.45827444502825954
1.6954638348998738 12.970422345600578 158.65799561112763 82.85838980339122 0.46700199264330533
1.7189286697189405 12.95121066703031 143.54416393824073 86.8221399223279 0.4760423918925583
1.7419420641653418 12.930363994085045 130.01738862899464 90.99643030910971 0.4854114283918254
1.7644222295628227 12.907745222031533 117.89597040047335 95.39461669544521 0.4951281744421512
1.7863489780041044 12.883338042763105 107.01614583301121 100.03105808844214 0.5052129562594639
1.8076923201831177 12.857119404194796 97.26112715375682 104.92188179460369 0.515689996793776
1.828420732938968 12.82906176306398 88.49615270019905 110.0832814546791 0.5265806392475032
1.8484976270554676 12.79911503446502 80.6128501081222 115.53333306678356 0.5379100449244987
1.867892549778296 12.767259625898449 73.51674358523773 121.29210613133365 0.5497071266194303
1.886572654583764 12.733461699276798 67.12809087956806 127.38086238599851 0.5620012172515215
1.904506355407527 12.697692011609986 61.36891742155969 133.82244189501563 0.574823159271915
1.9216604997539837 12.65993240710911 56.17582781883979 140.64153755204237 0.5882058854276486
1.937994265591274 12.620124685945123 51.48546149297259 147.86620534226827 0.6021891845373852
1.953491492075355 12.578284070186811 47.250736124370036 155.52538678178485 0.6168105077713039
1.9681304103929333 12.534438979457478 43.41786405752248 163.651766863583 0.6321143420121302
1.9818655867116362 12.48850296177551 39.9512034461485 172.2795714044232 0.6481440098372543
1.9945677964273216 12.440722924021058 36.829812281804955 181.47873048565017 0.7394977279209233
2.0040349505607042 12.392416520383325 34.305969932265704 191.73812481266498 0.9943133728251687
2.009390483961017 12.341238706823248 32.320329177533466 203.29046927044172 1.251768143139026
2.0108503016524923 12.285716689896224 30.738137815577627 216.23326301239058 1.5127742478428234
