M[M_sun], R[km], Lambda[1], P_c[MeV/fm^3], rho_c[fm^-3]
0.24162668629717493 15.618656898711224 2160425.4255784233 3.5677272577965504 0.1711233750220791
0.2536433826116226 15.277291156545765 1723235.2629235385 3.784807492156218 0.1738880220598687
0.2660378254748739 14.981341196094709 1383001.4332468843 4.011376020591938 0.17666635340603112
0.2788122974859051 14.723590413904974 1116505.7751417474 4.247689311818622 0.1794570630048206
0.29196627256051355 14.498466235849488 905974.6138375012 4.4943723363059185 0.1822667132087151
0.3055006847943181 14.301293725244442 738670.4016974692 4.751579341596463 0.18509098370323476
0.3194172976236255 14.12817882633068 594924.6320147904 5.019994847245492 0.18793654238653718
0.33371379076326885 13.9760088682028 497700.2658359502 5.299839807455814 0.1907999516758192
0.3483932437439399 13.842089410505501 411029.650606182 5.591846423628245 0.19368758086296486
0.36345517418776513 13.724044110400419 340688.68824237713 5.896177442519796 0.19659440929587413
0.3789074826209652 13.620059318491112 283339.33516878076 6.21369879540056 0.19952815674760171
0.39473790653077284 13.528531768840415 236440.58072363932 6.544670940827365 0.20248505582723794
0.41096223995015424 13.44791829008785 197882.8177978605 6.889790182207267 0.20546871489778507
0.4275683178602875 13.377117578880734 166107.4838867366 7.249764250513707 0.2084822564054374
0.44456301743444454 13.314985639327372 139824.9575213853 7.624856543434541 0.21152129807965225
0.4619429676582413 13.260606666034631 117999.44938817763 8.016007186306329 0.21459186502616706
0.47970523884268795 13.213212983732134 98758.60364780268 8.42392512282844 0.21769566993120013
0.4978611961315289 13.17202088956346 84655.84129508655 8.849057292171292 0.22083026906834274
0.5163983983687498 13.136433467918653 71950.33430523216 9.292264803169306 0.2239988986315567
0.5353152005560318 13.10586960055956 61288.03229703964 9.754437978996059 0.2272045605416676
0.5546191302135507 13.07985246578544 52310.256669491886 10.236386193755935 0.23044860539151998
0.5743000377556167 13.057881140161179 44739.60891973353 10.738588966143203 0.23372783703467953
0.5943553351174351 13.039545125910161 38336.87600571163 11.262274228832165 0.23704823396575783
0.6147899695143313 13.024523239643356 32909.522809376846 11.808387232844016 0.24041151259858748
0.6355898087254366 13.012444835005141 28300.359905433696 12.377906711664245 0.24381930539576607
0.6567608900208093 13.003034248561223 24376.57572488287 12.971533184407209 0.2472696940956308
0.6782906352664432 12.99598497381855 21033.135702252668 13.590570268239128 0.2507672063201101
0.700177199249205 12.991067457730221 18040.826949700662 14.236226290014168 0.25431460389085125
0.7224090002773884 12.988008308105497 15734.021213750302 14.909690582853036 0.2579138707505228
0.7449945821839348 12.986642170039941 13637.86027515029 15.612006956302293 0.26156504701305605
0.7679132961627863 12.986745922670352 11838.771799546928 16.34441306012868 0.2652697446766982
0.791154870447906 12.988134003602244 10291.401631196932 17.10853803926252 0.26903279154463977
0.8147278769520674 12.99065252086025 8959.036947480483 17.905836471404637 0.27285661927347066
0.838608128673916 12.994125941742798 7809.864142147791 18.737689067273728 0.27674244905943757
0.8627854313822563 12.998399669457797 6816.565696803541 19.60540902393231 0.2806904847979417
0.8872579400754218 13.003336112071745 5920.720094436799 20.5110964079368 0.2847072207687603
0.9120186978234609 13.008831586866716 5212.854778502686 21.456544716987775 0.28879566906816
0.9370366701776024 13.014723681230791 4566.696313890464 22.443257530544706 0.2929559102954809
0.9623118018174693 13.020924059263557 4005.9392769074466 23.473220561661893 0.29719142858998293
0.9878362799420868 13.027316114298143 3517.787863452087 24.54887419967033 0.30150847647732854
1.0135759013398167 13.033775959439144 3093.2086246772014 25.67218345037598 0.30590885708133786
1.0395361156236897 13.040225853294116 2722.327711848298 26.845063026086713 0.3103934889936367
1.0656856205718952 13.046553773562279 2399.1244010910295 28.070630796225203 0.3149712718361743
1.0920145428656476 13.052684795046282 2116.628057626926 29.35096745614316 0.3196428313197978
1.1185111712767795 13.058525363771919 1869.247630097411 30.688775716388232 0.32441249290054264
1.1451404559425264 13.063983662494191 1652.648597643039 32.087509287439694 0.32928868113350146
1.1719001815228982 13.068991931479859 1462.6700993046932 33.54904877754124 0.33426870382074136
1.1987543139236487 13.073456289343696 1295.8493297450943 35.077963723024325 0.33936631484879054
1.2256989032242203 13.077323483222154 1149.4917145413735 36.67631142704202 0.3445784870189292
1.2526921008443448 13.0804828843787 1020.5592634083745 38.34908264129348 0.3499192881254157
1.2797311010376669 13.082934251582845 907.0350687836703 40.09856094973134 0.35538556790385345
1.3067746082958376 13.084516526524185 807.0826762171237 41.93020945152979 0.3609918400752039
1.3338095214795753 13.085230438324622 718.8446848886244 43.847451735211386 0.3667397084725525
1.3608160502558413 13.085034019349907 640.8833939371674 45.85506804134687 0.3726374432871695
1.3877459976432913 13.083779774458524 572.0330393157103 47.958343002406465 0.3786947394361906
1.4146002998096234 13.081496013828003 511.0315422480671 50.161974495139376 0.38491695699431194
1.4413230559182606 13.07804618438718 457.06928962165335 52.47128942957359 0.39131163110385137
1.4679157687891957 13.073453533938622 409.1887350322946 54.892646664388764 0.3978901649100922
1.494324302260708 13.06759491839548 366.6791833428885 57.432232376805324 0.40466161324686123
1.5205347831226084 13.060454147635692 328.97323337297513 60.09667052272006 0.4116357405271066
1.546517258791321 13.051974859398085 295.4112929131898 62.89306224296515 0.4188230791592837
1.5722330467640406 13.042101633932662 265.5810008026433 65.82902904195578 0.42623499273176263
1.5976566464275228 13.030780568753684 239.02466011832468 68.91276012161843 0.4338837445233482
1.6227436629290017 13.017967424629436 215.3144222958654 72.15306430108343 0.4417825719663351
1.647495399825967 13.0036367959328 194.1839436386203 75.55942700659818 0.4499457677642473
1.6718443021878273 12.987710397134839 175.30832095075027 79.14185288310756 0.4583878497251809
1.695782145450542 12.970172186374786 158.4319861022982 82.91038306012774 0.46712147299585693
1.7192466906956385 12.950933747040938 143.34233774117487 86.87781730050696 0.4761684737603426
1.7422500620648163 12.930039890131749 129.83366786375058 91.05581498861058 0.485543537445
1.7647303731490154 12.907402759141059 117.73037268215911 95.45828047783834 0.49526786699615355
1.7866572807479353 12.88297747194895 106.86322552153327 100.09905639919035 0.5053596936640353
1.8079978118997762 12.856733273179726 97.12715677889707 104.99456708312132 0.5158443441562975
1.8287101851334833 12.8286108110034 88.36863867582395 110.16134210941622 0.526744339257527
1.848791440172566 12.798656774030043 80.49822822879811 115.61689831996462 0.5380826619014188
1.8681798283402922 12.766762865826854 73.41243711331283 121.3816319324323 0.5498893683429211
1.886852997252688 12.732924594471038 67.03620934868079 127.47685112560599 0.5621938658860062
1.9047780767587796 12.697122790133863 61.28440096843678 133.92509066672497 0.57502581981943
1.9219237601188799 12.659322458392198 56.09865598280503 140.75178812232244 0.5884206954647272
1.9382400102722013 12.619447333840563 51.41294139638442 147.9847176052683 0.6024171487716184
1.953751700140856 12.577655338280728 47.18280468464831 155.65249541039438 0.6170513913462721
1.96836031592417 12.533709570918667 43.352354993700885 163.78860998880117 0.632370524810241
1.9820821056609261 12.487725433573175 39.897386492289066 172.42666842299957 0.6484156083988003
1.994877513678084 12.439665741074782 36.76344737287403 181.60620664571118 0.6652407024845243
2.0067112104636 12.389506607597562 33.918961503497606 191.369057240236 0.6828997193390488
2.017571149861993 12.337266278847432 31.34240657539418 201.7612160999763 0.7014518423524837
2.0274126964027714 12.28289898157625 29.00336502970577 212.8327445741246 0.72096019777404
2.0362292588479756 12.226450805555153 26.881302280763084 224.63877601361347 0.7414940506546271
2.0439804333300415 12.167875709604758 24.952582420970515 237.24073438669024 0.7631314918884547
2.050647241602397 12.10719037746701 23.197783728334077 250.7051935700581 0.7859542810856124
2.0562210464254105 12.044441383483264 21.60196771305743 265.10527527045656 0.8100507815130505
2.0606815486699546 11.979635903383315 20.150642173389333 280.5228747173517 0.835521340028902
2.0640015021281357 11.912769676065823 18.8295281944784 297.0472458147669 0.8624715424362522
2.0661644367597685 11.843875783707407 17.62576417294495 314.7788468706405 0.8910223283828598
2.067165685028072 11.773003906922591 16.52987246543532 333.8271520761438 0.9213000039177447
