M[M_sun], R[km], Lambda[1], P_c[MeV/fm^3], rho_c[fm^-3]
0.24162668629717493 15.618656898711224 2160425.4255784233 3.5677272577965504 0.1711233750220791
0.25364503018914925 15.27724743770596 1723135.2568685121 3.7848414705508637 0.17388844558416625
0.2660419516200866 14.98124426725334 1382904.8038556597 4.0114474501685695 0.17666721659030987
0.27881785729282815 14.723480441225801 1116337.7959038916 4.247800609366811 0.17945835388865775
0.29197438977318735 14.498353648882256 905845.6232867414 4.494526422581005 0.18226842899514972
0.3055111534497882 14.30115489326066 738598.738264303 4.751781448796809 0.1850931668467259
0.3194289146982191 14.128050213013966 605028.1837042702 5.020246464373782 0.1879391530113585
0.3337270867882953 13.975954983115793 497671.26406920643 5.300147559193351 0.19080305022516372
0.34841168515485177 13.84193725100084 410950.2793437522 5.59221107859021 0.193691109000035
0.36347607791151304 13.723895941592518 340623.2810694719 5.896607193523587 0.19659844560824674
0.3789313329245266 13.619920670738912 283257.01958845835 6.214198843362843 0.1995327165829208
0.3947646426642359 13.528379396666576 236379.2731544892 6.545240766804546 0.20249005243126064
0.4109921702223955 13.44778745988494 197822.86184433688 6.890440787080116 0.20547425572189798
0.42760220074467253 13.376976292319904 166040.7954376272 7.250501739848609 0.2084883574657027
0.4445987357292339 13.314855774763679 139772.29917721625 7.625678879103739 0.21152784440033917
0.4619802085008791 13.26050442041976 117945.27984709972 8.016928712352781 0.21459899377515818
0.47975002710604964 13.2130950824205 99782.98723170794 8.424953025607483 0.2177033983231168
0.49790930234802755 13.1719203551808 84622.63716768766 8.850187781824507 0.2208384542964531
0.5164495380114735 13.136346543032747 71921.32563885399 9.293516175248712 0.22400770836900966
0.535369422567339 13.10580610000915 61259.34001348413 9.755818718644989 0.22721401381617226
0.5546792437241913 13.0797603843628 52288.14971263046 10.23790328419865 0.23045869611646586
0.5743636186953044 13.057819624105008 44717.38522458875 10.740239842018836 0.23373843616917844
0.594423484233492 13.039492421820398 38318.48783320615 11.264081700391403 0.2370595270807685
0.6148629729440512 13.0244770979824 32891.143280239165 11.810361978422252 0.2404235223464934
0.6356701847916307 13.012427548471642 28282.652827646885 12.380060075819049 0.2438320556247127
0.6568428818099465 13.002996952506317 24362.88278235829 12.973855278506313 0.24728296623328178
0.6783778634916288 12.995967367676652 21020.756977853118 13.593094067942246 0.2507812581606907
0.7002689322327708 12.991041738757398 18166.407839867858 14.238965328373428 0.25432946330762907
0.7225049053819598 12.987993644554068 15724.575656810053 14.912659262480338 0.2579295672787646
0.7450962861964888 12.986642878785949 13628.908676273342 15.61519163877251 0.2615813249973604
0.7680189660622777 12.986755524870645 11831.92058443326 16.34785687462548 0.2652869112282263
0.7912676233393156 12.98814223655384 10286.3848096513 17.1122582706875 0.2690508817702834
0.8148460013109972 12.99066879131085 8952.804701191779 17.909851550673512 0.27287567053750955
0.8387297572249031 12.994143862487842 7804.725201812478 18.741981185510273 0.27676216912193286
0.862912329493276 12.998423429773371 6811.231639029679 19.61003399170637 0.2807112341115294
0.8873971254199258 13.00337729288564 5952.9108392375365 20.51607648654881 0.28472904424541157
0.9121565047171558 13.008869601762198 5209.034509834062 21.4619036922001 0.2888186146481297
0.9371797731986868 13.01475930445669 4563.341816757512 22.448973078180234 0.2929796494264195
0.9624659941577325 13.020968814847473 4002.6652594673155 23.47936441125059 0.2972163805886782
0.9879887612261751 13.02736303960978 3514.9417396651115 24.555475271606756 0.301534699402456
1.0137343490077562 13.033810811103953 3090.4385440152673 25.67921619196138 0.3059359977855455
1.0397027964193084 13.04026261048927 2720.2051745006215 26.85261341828524 0.31042201301576705
1.0658549371288422 13.046593939425566 2397.096275651987 28.07873418442068 0.3150012497927326
1.0921896667338784 13.052730138369641 2114.663489922441 29.359595119449164 0.31967388561028715
1.1186914335536624 13.058562754524193 1867.4686611844422 30.698030665573068 0.3244451403334979
1.1453241481718017 13.06401279129225 1651.2285223471063 32.09736131511412 0.3293225317302051
1.172090860156267 13.069024859489001 1461.3423455561528 33.55961345271703 0.3343043078653474
1.1989491662164524 13.073479744250212 1294.7898952962162 35.089290911728085 0.33940377079102607
1.2258971374057093 13.07734597358518 1148.469493484354 36.68836825729424 0.3446173804869656
1.2528956731612177 13.080511124262879 1019.6336628416657 38.361946491086854 0.34995987245470134
1.2799394463077145 13.082946156968147 906.2290305775019 40.11232082300846 0.3554281363548962
1.3069931447650485 13.08454907966962 806.3784509846473 41.94486087951189 0.3610361335616754
1.334025184688663 13.085238871137994 718.141395722436 43.86315899352955 0.3667863985674699
1.3610365716725035 13.085026372119545 640.2736257888638 45.87179821655922 0.3726860923640645
1.3879752762555777 13.083784552414933 571.4602854673883 47.97616755777175 0.37874547387465185
1.414820676952522 13.081456569083548 510.5792208708848 50.18108889350353 0.3849705176449785
1.4415522785742416 13.078014845152373 456.624679828321 52.49166332588157 0.3913675701896738
1.4681474106419066 13.07340996942746 408.78112733179 54.91437027692523 0.39794864096813387
1.4945586572048548 13.067537626859648 366.3233715802374 57.455403231897144 0.4047227970703223
1.5207712351558835 13.060384039562612 328.66461376479015 60.121394109070415 0.411699816171863
1.5467554813176043 13.051889257151965 295.12343628591583 62.91945273127994 0.41889024505018163
1.572472428960153 13.042001960399261 265.3129060188875 65.85721007713434 0.42630546287937393
1.5978860964029575 13.030661056819715 238.77839148614703 68.94286569566405 0.4339577498631469
1.622995055300888 13.017846785866059 215.10149472840573 72.18523971589408 0.44186036183368815
1.6477374135151204 13.003485508622292 193.972998846525 75.59382993692948 0.450027611520214
1.6720854705383412 12.987545853289525 175.1394182754083 79.17847489969502 0.45847328847089636
1.6960226305373103 12.969982651809897 158.26945258977548 82.94958148938832 0.4672115508721334
1.719502301330202 12.950761817841835 143.19483271108095 86.9197939374416 0.47626353019010126
1.7424835007523467 12.929816496200065 129.69941609627895 91.10058730523433 0.4856431393693905
1.7649653987857883 12.907151620047568 117.60443258512518 95.50627980861242 0.4953731882456016
1.7868766561305067 12.882675594882375 106.761513340834 100.15032453932373 0.5054703280862379
1.808227695824637 12.856436196305879 97.03003105952531 105.04936989901046 0.5159607180507093
1.828940419428517 12.82829987738602 88.28247091755591 110.2199695978461 0.5268669137404668
1.8490133275203329 12.7983069180327 80.4171696347553 115.67990660547946 0.5382128152768046
1.8683863115949166 12.766357179112276 73.34301383303925 121.44913565956699 0.5500267811940112
1.8870612778076017 12.732526309865031 66.96813717252562 127.54909846006149 0.5623386608891512
1.9049829130826124 12.696694783239975 61.21989164019237 134.00249196780555 0.5751786340206537
1.9221221664907682 12.658861686960032 56.041494892789146 140.8349230913559 0.5885826739990353
1.9384313820690353 12.618957864048573 51.36145110833777 148.07408412540246 0.6025890497193582
1.9539242576937923 12.5770979381126 47.13642994347839 155.7483459533598 0.6172330377199662
1.9685366657688808 12.533156912497954 43.31605835659965 163.8915254404004 0.6325627717291153
1.982247134408342 12.48713999231715 39.85684002461686 172.53759644505516 0.6486204248629069
1.9950305385167881 12.439043435782354 36.72428197165765 181.72554938266566 0.6654580869346677
2.0068624713190797 12.388867727146208 33.88325513770803 191.49758973658743 0.6831307837492553
2.017701592524745 12.336585724967149 31.310225627102255 201.823521420742 0.7014668678656681
2.0183902843401627 12.296446601653527 30.23011174270991 216.40051675667144 2.347421258494636
