M[M_sun], R[km], Lambda[1], P_c[MeV/fm^3], rho_c[fm^-3]
0.24162668629717493 15.618656898711224 2160425.4255784233 3.5677272577965504 0.1711233750220791
0.25364196073069833 15.277374100506531 1723137.7875088 3.7848031969017977 0.17388796852159447
0.26603793299838296 14.981294355070798 1383103.7981054678 4.011366991148158 0.17666624429053185
0.2788115442680196 14.723598107926913 1116558.778370217 4.247675242744769 0.17945689982476554
0.29196550696539475 14.498504396878925 905981.2208139097 4.494352858459556 0.18226649631837527
0.30549954003231117 14.301308902309012 738738.5380907677 4.751553793662112 0.18509070773678482
0.3194145314175186 14.12822572605931 605141.1094454287 5.019963041074107 0.187936212385233
0.3337111961538218 13.97605515956132 497735.9412191248 5.299800905735465 0.19079956000004492
0.34839119121747986 13.842104281523616 411054.81705791625 5.5918003292758005 0.19368713488742484
0.36345239161502746 13.724067507627616 340694.70924323064 5.896123120031199 0.19659389908756536
0.3789043880486652 13.620077930760182 283340.7071431585 6.213635587464808 0.19952758036733498
0.39473477722707073 13.528539180654803 236445.13377387438 6.544598913115105 0.2024844242415061
0.4109581414293847 13.447943191256686 197897.1868371065 6.889707944322416 0.20546801452544788
0.4275645568149617 13.377142178276799 166109.38115547466 7.2496710308302434 0.20848148522288626
0.4445575953232721 13.31499313030525 139835.07549266718 7.624752599643016 0.21152047062023607
0.4619360354123934 13.260662596885574 118004.49955908085 8.015890705506104 0.21459096395300664
0.4796999328035924 13.213214569006535 99830.5634544232 8.423795196822532 0.21769469306926895
0.4978547032263747 13.172045814327628 84662.92776619078 8.84891440005051 0.2208292344683352
0.516391154178083 13.136451334454112 71956.2985445144 9.29210663266348 0.2239977851013349
0.5353075100195057 13.10588439892762 61290.22674055806 9.754263457792359 0.22720336567712762
0.5546115417497121 13.07986870622551 52313.87646314684 10.236194184388893 0.23044732668403856
0.5742922678575139 13.057873404290653 44742.97067790805 10.738380302909711 0.23372649735208473
0.5943474642101412 13.039545398299916 38337.04665312491 11.262045773985566 0.2370468065757421
0.6147812584265722 13.024551947687344 32911.411213732106 11.808137636943318 0.24040999463906967
0.6355802793000022 13.012450984588904 28302.96364497181 12.37763454108703 0.2438176938535825
0.6567504994378512 13.003032319409101 24378.268955240015 12.971239688993238 0.247268016596198
0.6782801781693482 12.995986059940224 21034.632550780425 13.590251280641365 0.25076543028262765
0.7001655848026819 12.991058821762017 18042.27821546212 14.23588010008194 0.2543127257935731
0.722396764581708 12.988008154054555 15735.36658906997 14.909315370564107 0.2579118868617139
0.7449817803940274 12.98664268817085 13639.290322672638 15.611604445342508 0.2615629896440257
0.7678989706015861 12.986755275596856 11839.893460543633 16.343977800161763 0.26526757501493015
0.7911412083536018 12.988128717473574 10293.051612848436 17.108067846082037 0.26903050515442384
0.8147133566138371 12.9906597971921 8959.484559977525 17.9053290160053 0.2728542114338856
0.8385931173519591 12.994110017655998 7810.076918778099 18.737146600311345 0.27673995670442536
0.8627724518331404 12.99838506243529 6817.3091024234 19.60482449272977 0.2806878623750804
0.8872427102394269 13.00333176628133 5957.435672983021 20.510466999523747 0.284704462603503
0.9120009343019758 13.008824120520986 5213.251766308283 21.45586742578373 0.28879276910335905
0.9370174165230597 13.014718612605638 4567.252294008841 22.442535177712656 0.2929529100530619
0.9622932680871314 13.0209135133115 4006.300664140284 23.4724440831877 0.297188275080185
0.9878142566650266 13.0273129963949 3518.0115791194967 24.548039941237736 0.30150516236461694
1.0135549727270339 13.033767177029032 3093.4772724555196 25.671294641038244 0.3059054269949285
1.0395159726931131 13.040232673097297 2722.5450788795624 26.844108801251725 0.31038988410403695
1.06566400136956 13.046546095585235 2399.3503162522434 28.069606689830405 0.31496748322130436
1.0919923749390077 13.052673693096668 2116.7506727056098 29.34987709748285 0.3196389066981043
1.1184887627972893 13.058522379787146 1869.362245855758 30.687606089330565 0.3244083669653068
1.1451162996738575 13.063969606483258 1652.8018736002953 32.08626420903831 0.3292844031667496
1.1718763703620858 13.068993812272675 1462.841985272109 33.54771364510982 0.3342642042867896
1.1987300434569748 13.073449657265668 1296.054456539838 35.07653223599558 0.33936158130926347
1.2256729256791068 13.077321819978863 1149.6319637976096 36.67478773903799 0.34457357183729
1.2526660801989256 13.080487649481018 1020.6436081291718 38.34744922395747 0.34991411381737586
1.2797048370874229 13.082932177035238 907.1406640474428 40.09682206057565 0.3553801883617311
1.3067469911548077 13.084520656337972 807.1710877477868 41.92835790372453 0.36098624256568035
1.3337825662503324 13.085232678042926 718.893301587948 43.845466772956065 0.3667338081381828
1.3607883247834291 13.08503574974909 640.9611671888399 45.852953823276835 0.37263129542821666
1.3877176588520088 13.083780446150449 572.0984639602738 47.95609049943296 0.3786883280856042
1.4145716539370097 13.081498736336314 511.08960677951563 50.15955901178177 0.38491018854375214
1.4412932365152462 13.078052654849946 457.0935099611575 52.468714799821846 0.39130456213518344
1.4678866201447405 13.073460832241905 409.2391059982195 54.889901489864954 0.397882775393983
1.494293465416113 13.067600438710729 366.73071937032455 57.42930433593648 0.4046538816057588
1.5205048323534673 13.060463239374231 329.0086170720857 60.09354628809037 0.41162764350811304
1.5464871195940428 13.051985621850365 295.44617532457636 62.88972739042323 0.4188145916944319
1.5722033629645942 13.042114355455107 265.6115709090702 65.825467950557 0.4262260877843418
1.5976251709145468 13.030795653903608 239.05099728079367 68.90895586337429 0.43387439291877117
1.6227057389800836 13.0179574454433 215.35181894615926 72.1489985193604 0.44177274220585544
1.6474646727212507 13.003657528750914 194.20708298699284 75.55507978186569 0.4499354258196306
1.6718139612024525 12.987731571321909 175.33076211471905 79.1372252796338 0.4583770535792198
1.6957518084627412 12.970194777426961 158.45278482023923 82.90542993685602 0.46711009073300436
1.719216173047672 12.95095944716127 143.36254414757298 86.87251316491823 0.4761564625029185
1.742219802262571 12.930070999219913 129.85722633939102 91.05015763271643 0.4855309519105334
1.764702661768128 12.907433240821868 117.74793004028649 95.45221541312125 0.4952545588899011
1.7866286907959978 12.883011763452485 106.88115081860036 100.09257834496077 0.5053457143040503
1.8079685820886298 12.856769739648216 97.13863228137468 104.98764245360832 0.5158296396910121
1.828682595825285 12.828650404340156 88.37704446513223 110.15390839435675 0.5267287551295429
1.8487638650705742 12.79869880638579 80.51027428082618 115.60893702359147 0.538066216610344
1.868152227490798 12.76680935608401 73.42242549714994 121.37310269510517 0.5498720059413399
1.886826367405307 12.732976415603511 67.0465464377346 127.46770607052743 0.5621755118334332
1.9047522502528016 12.697177598512807 61.292142324723486 133.91531101336216 0.5750065117471364
1.9218984969808774 12.659380931289276 56.10508076543491 140.74128411833559 0.5884002296704899
1.938218202310518 12.619509441176568 51.42179521629814 147.9734263612615 0.602395429501997
1.9537193818426963 12.577692286275273 47.19317340562101 155.64038503359896 0.6170284409699789
1.9683400158054136 12.533778574445389 43.3632934637705 163.77560008291184 0.6323462115460154
1.9820641313680918 12.487803062652338 39.90054391419439 172.41265333903686 0.6483897310786407
1.994857712104146 12.439744470419177 36.766967465129255 181.59112856392775 0.6652132375494864
2.0066928653919565 12.389590610133817 33.92402917172081 191.35281826782972 0.6828705263435969
2.0175544561230034 12.337353189967478 31.346187785066608 201.74370825118544 0.7014207676478867
2.027397786543956 12.282989699913262 29.0076381857299 212.81389273660452 0.7209272176121682
2.0362158976260525 12.226546285160438 26.884654666311803 224.6184057414509 0.7414588401542468
2.043968214059322 12.167976065195866 24.955774715284782 237.21874646149473 0.7630940004561512
2.050637169498332 12.107295075050743 23.20059245142206 250.68138144813352 0.7859141392305133
2.0562120019285755 12.044551278355712 21.60458378215112 265.07950930452273 0.8100079054487656
2.0606759477500645 11.97974678519466 20.153021984877128 280.49500926178035 0.8354756341961369
2.063996019274981 11.912890074426166 18.83146792578166 297.0170141636811 0.8624225617445523
2.0661615369405095 11.84400041625819 17.627678748469148 314.7460063274624 0.8909697571324693
2.067165377900039 11.773135123515729 16.531641393676352 333.79148609314035 0.9212436723465693
