M[M_sun], R[km], Lambda[1], P_c[MeV/fm^3], rho_c[fm^-3]
0.24162668629717493 15.618656898711224 2160425.4255784233 3.5677272577965504 0.1711233750220791
0.2536416215561878 15.277350050450766 1723213.6880502363 3.7847928841409084 0.17388783997800503
0.266037175100761 14.981309049090664 1383089.8174713051 4.011345311817811 0.17666598230861888
0.27881064230830976 14.723583387981794 1116509.000894485 4.247641463555155 0.17945650803707017
0.29196353215081844 14.49851132210109 906030.1231280423 4.494306093180158 0.18226597557613552
0.30549599713993314 14.30134895600513 738750.4194983979 4.751492454582692 0.18509004515765967
0.31941083501786016 14.128262272668701 605188.275773178 5.019886676526416 0.18793542007357672
0.3337075913466409 13.976043486579163 497757.46730995685 5.2997075054744185 0.19079861961439523
0.348385701704862 13.842151794816177 411103.8976657498 5.59168966028008 0.19368606413444725
0.3634459012152049 13.724117890594966 340716.3118244758 5.895992696238056 0.19659267411969955
0.378897591583281 13.620105460985497 283367.1088468608 6.213483830824451 0.1995261965295018
0.3947259837191438 13.528594689587269 236463.3434017197 6.544425981364894 0.2024829078636761
0.4109488904190367 13.448009576866252 197922.97359405097 6.889510499388232 0.2054663330015338
0.4275541389273839 13.377174142859024 166134.55238612258 7.249447220235254 0.20847963369519165
0.4445467489943135 13.315023346761256 139843.18219467805 7.624503042137567 0.21151848398202774
0.4619250295796488 13.260661840317523 118020.54738540186 8.015611048696844 0.21458880058149418
0.4796865539401953 13.213283628416468 99841.61624411902 8.423483260378783 0.2176923477432911
0.49783967363283216 13.172075364224536 84668.85930508142 8.848571334262246 0.22082675052544742
0.5163761859444852 13.13647450451237 71965.6693556731 9.291726886301443 0.22399511166327174
0.535291007318828 13.105909035525961 61300.931049508 9.753844456549674 0.2272004969728299
0.5545939881754607 13.079866872116808 52320.460312523 10.235733197553918 0.2304442566915492
0.5742712067993293 13.057923938223244 44748.17310180711 10.737879333534815 0.23372328097351702
0.594325243771674 13.03957864111434 38344.466416901865 11.261497289149837 0.23704337963256292
0.6147595707654062 13.024536370435285 32917.03090350316 11.80753839707063 0.24040635026083407
0.6355568550268161 13.012459904922881 28307.255889048844 12.37698110451835 0.24381382480717242
0.6567256997117693 13.003041264987138 24382.75014926361 12.970535056372428 0.24726398920508566
0.6782530226474691 12.995998760467385 21038.481304615947 13.589485447362678 0.25076116632811096
0.7001375219070344 12.991077096148587 18182.201207289992 14.235048960663407 0.2543082168216638
0.722367416056081 12.987995585979128 15736.83308489301 14.908414555771781 0.2579071239143422
0.7449514439349134 12.986655299365232 13641.747370628971 15.610638093353057 0.26155805029366225
0.7678674139964484 12.986757583702003 11842.119279692757 16.342932826442436 0.2652623660830278
0.7911082986544731 12.988124769377372 10294.8329279934 17.10693900716062 0.26902501599300593
0.8146780898442086 12.990650400130221 8961.557286057488 17.90411072081712 0.27284843071033
0.8385558752573765 12.994114803273648 7811.647441701543 18.735844252066236 0.27673397308809217
0.8627323881594932 12.998383078964864 6818.596026341979 19.603421160397442 0.2806815665079407
0.8872041779289512 13.00332265967648 5959.276391344705 20.508955930274816 0.2846978408637592
0.911959896788914 13.008816634594643 5214.466996345604 21.454241404428966 0.28878580695079253
0.9369740498281661 13.01470601511949 4568.128092888867 22.44080097697538 0.2929457071705034
0.9622487864659672 13.020903665871534 4007.4444590493054 23.470579943801557 0.2971807042562481
0.9877690022315264 13.027303132338325 3519.206826980914 24.546037090732458 0.30149720599035723
1.0135068419424513 13.03375525863529 3094.1567904643643 25.6691608312559 0.30589719221202993
1.0394653876580515 13.040215521107791 2723.3405655320207 26.841817950682994 0.3103812296831007
1.0656147443747417 13.046548711909436 2399.7971715881163 28.067148077436865 0.31495838774497403
1.0919393356780402 13.052669818261721 2117.28828416327 29.347259435839838 0.3196294847234419
1.1184338727777245 13.058504716480606 1869.9217505866147 30.684798132271876 0.32439846171483117
1.1450609095655786 13.063960351811303 1653.1311142326092 32.08327511980413 0.3292741329505544
1.1718195233110176 13.068981845318527 1463.2213697253296 33.544508369141035 0.334253402176297
1.1986698728652847 13.073444708145635 1296.36129480636 35.07309564864921 0.33935021744656996
1.2256099959539466 13.07731730568426 1149.8159942891418 36.67112981139977 0.34456177192896414
1.2526044579430327 13.080476259208101 1020.9529647713139 38.34352787869372 0.34990169185522463
1.279642690638578 13.082918667651372 907.4363227900774 40.092647518084895 0.3553672737218892
1.3066837875149429 13.084511506943516 807.4075574982018 41.92391291190248 0.36097280468198895
1.3337158283989323 13.085237694126166 719.158452642275 43.84070150744579 0.36671964330467244
1.360721336932004 13.085035840159764 641.1230004234519 45.84787826699243 0.37261653640000386
1.3876494677569076 13.083790454519916 572.2491589088751 47.95068297812151 0.378672936534366
1.4145033845533268 13.081503379677363 511.2330780093786 50.15376024455446 0.38489393975894387
1.441231266817396 13.078084273594403 457.23598230618643 52.46253399015537 0.3912875919475886
1.4678172674702825 13.073471471274667 409.35305211543937 54.88331127635086 0.3978650357244271
1.4942229618561733 13.067615188125588 366.83516093183016 57.422275141177366 0.404635320658849
1.5204321196833586 13.060486950191041 329.10566453280074 60.086046120328525 0.41160820546711396
1.5464153464700665 13.052010809851902 295.54730691162354 62.88172162537828 0.418794216385906
1.5721299291957964 13.042143786383756 265.685869733026 65.81691909127004 0.4262047103093114
1.5975528312771845 13.030830858775321 239.1259463977495 68.89982327558523 0.43385194324677534
1.6226402701384603 13.018029827394527 215.42110815478284 72.13923813964503 0.44174914472784804
1.6473916565538165 13.003700330084829 194.26620612468068 75.5446437954117 0.4499105988551719
1.6717410975055014 12.987785738710613 175.37964024577238 79.12611624053451 0.4583511363180969
1.6956789531670924 12.97025456156006 158.50061010223124 82.89353948956771 0.4670827665197664
1.7191509219284953 12.95105333818864 143.4101995790542 86.85978011801929 0.47612762841647066
1.742147590815108 12.930140725847236 129.89700275652103 91.0365766855157 0.48550073930197873
1.7646332465517804 12.907517007801484 117.77586607517172 95.43765577445987 0.4952226117916687
1.7865580814816484 12.883094325717815 106.91482427944719 100.07702733855116 0.5053121559068797
1.8078990478618093 12.856859549016477 97.17272879063991 104.97101946198956 0.5157943407334665
1.8286130861048995 12.828747413185571 88.41005868730981 110.13605517331234 0.5266913140964992
1.8486960465736113 12.798804614783421 80.5362610505105 115.58982557711552 0.5380267389567779
1.8680866755419554 12.766922230642919 73.44901524559266 121.35262794732512 0.5498303268580177
1.8867624293300458 12.733098037809027 67.06789286919683 127.44575310295312 0.5621314524026774
1.9046904359938266 12.697306905413203 61.310870645304114 133.891834745363 0.5749601623047895
1.9218375270571113 12.659520585630027 56.12340484573208 140.71606912108643 0.5883511012670698
1.9381595290301508 12.61965618483978 51.433788728149885 147.94632168402325 0.6023432923067874
1.9536642211424575 12.577851074982238 47.20655342401051 155.61131412353268 0.6169733486853642
1.968286365892683 12.53394639841887 43.37691579948894 163.744295486124 0.6322875957537022
1.9820125335213679 12.48797943492671 39.91422638309215 172.37901044266732 0.6483276131489325
1.9948104885390598 12.43993079685985 36.77651898533314 181.55493410280764 0.6651473088366914
2.00664982021848 12.389789273297527 33.93266207839212 191.31383727937413 0.6828004497531436
2.017513200350747 12.337562616788013 31.35513645096756 201.7016815493159 0.7013461743976607
2.0273611393905187 12.283213007751565 29.01679552764149 212.76864003463658 0.7208480507174584
2.0361825771938546 12.22677773013503 26.89376471642018 224.5695083445176 0.7413743198395656
2.043938931484652 12.16821766956524 24.96307500729285 237.16596622693027 0.7630040053077438
2.050610826592133 12.107548653369847 23.20646169806702 250.62422264843593 0.7858177824143355
2.0561913971203563 12.044815419377844 21.6106282304097 265.0176607672022 0.8099049858893399
2.060657520085 11.980024358096774 20.15759154045623 280.4280998146513 0.8353658520327552
2.063985205028942 11.913176373700123 18.83676947579133 296.94444689827174 0.8623049897719056
2.065878101415841 11.845865674213254 17.673140610934855 314.9599893889805 1.180080874059492
