M[M_sun], R[km], Lambda[1], P_c[MeV/fm^3], rho_c[fm^-3]
0.24162668629717493 15.618656898711224 2160425.4255784233 3.5677272577965504 0.1711233750220791
0.2536448245253623 15.277249859853846 1723113.5014513172 3.7848351941139904 0.17388836735140847
0.2660409888953809 14.981241607954274 1382985.192588413 4.0114342557383615 0.1766670571434076
0.278817257212122 14.723478065952555 1116361.6701050154 4.247780050444776 0.1794581154361438
0.29197282432683325 14.498356729712606 905858.6180898913 4.494497959571236 0.18226811205293003
0.3055091795598752 14.301189031188992 738584.5408862171 4.751744115116529 0.18509276357172647
0.319427820959736 14.128057807889157 605053.0112305564 5.020199984894438 0.18793867076882087
0.3337273638951654 13.97586155360751 497634.18355481036 5.300090710083987 0.19080247784896215
0.34840830254625915 13.841965979975647 410968.5324682906 5.592143717790325 0.1936904572657658
0.3634718610702647 13.723926069884062 340641.39620216185 5.896527807498263 0.19659769999789703
0.37892635328237356 13.61995202067614 283282.2527328938 6.214106471254601 0.19953187426051688
0.3947599287305921 13.52840686912713 236377.09297082716 6.5451355043975 0.20248912942215339
0.41098651763316807 13.447810639664517 197835.12531366645 6.890320602054635 0.2054732321757873
0.42759567157760664 13.377008045378764 166064.03646076503 7.250365504196215 0.20848723042306466
0.4445916409253177 13.31488069136576 139779.74095100432 7.625526969253381 0.2115266351002526
0.46197530831471767 13.260519087756043 117965.17611466513 8.01675847832566 0.21459767687733008
0.4797414457922433 13.213108698270398 99794.44093663765 8.424763139697419 0.21770197064652877
0.49789851545913566 13.171956243104137 84628.898803936 8.849978944077955 0.22083694222193856
0.5164398987051698 13.136370289597126 71927.95393286402 9.293285005615788 0.22400608092038213
0.5353599261771698 13.10580974612208 61264.05810719719 9.755563649439862 0.22721226747737797
0.5546678304636459 13.079810008509812 52295.84078259374 10.237624669998096 0.23045685316016162
0.5743526137528249 13.057813544157591 44720.668879243785 10.739934867050946 0.23373647813541518
0.5944112758196469 13.039498964101261 38322.111403797106 11.263747795229303 0.23705744083527325
0.6148502233643526 13.02447788780183 32894.89410432251 11.809997170134215 0.24042130370343295
0.6356558038997109 13.012416696429964 28052.83325338862 12.379662268370977 0.24382970017729416
0.6568279038662986 13.003002324548 24365.64113878119 12.973426298717984 0.24728051436072312
0.6783614391777598 12.995968483969314 21023.05359313796 13.592627823383616 0.2507786622359026
0.7002512900777418 12.991054618543217 18168.170922794237 14.2384593186257 0.2543267181800518
0.7224871431341788 12.988006804641714 15725.035583348144 14.912110826447503 0.2579266674907245
0.745077110858936 12.986639080808786 13630.645850862791 15.614603296110282 0.26157831777993423
0.7679992884134801 12.986757046644144 11833.348664907622 16.34722065679839 0.2652837398419272
0.7912472169478135 12.988138317830439 10286.06045944476 17.111570984007656 0.26904753972789414
0.814826165356126 12.990660146331225 8953.799017589074 17.909109789688525 0.27287215093467426
0.8387073277687191 12.9941317295392 7805.54460468188 18.741188240470507 0.2767585259497559
0.862888856611294 12.998417533075722 6812.2697952072895 19.609179550817714 0.28070740077412965
0.8873718433689218 13.003375607612139 5953.661515349904 20.51515643656326 0.2847250124437189
0.9121245604538953 13.008882802741315 5209.2738398806005 21.460913638168446 0.28881437552347294
0.9371526562211634 13.01475306151011 4563.962131357801 22.44791714470664 0.2929752636799276
0.9624381009616778 13.0209636992939 4003.410167436999 23.478229344956958 0.29721177074719873
0.9879601962634762 13.027345326901289 3515.4911368319595 24.554255728722886 0.3015298547375226
1.013704528318608 13.03380785690241 3090.922538341485 25.67791689370364 0.30593098354333814
1.039669608309647 13.040266770479718 2720.5502517202963 26.85121847775186 0.31041674318161827
1.0658241630627843 13.04658958620128 2397.4453681647587 28.07723707055633 0.3149957113175534
1.0921567356409463 13.052721370109788 2114.90495368599 29.35800113896143 0.31966814825924034
1.118657499743429 13.058550423017579 1867.802575627825 30.6963207845495 0.3244391086173897
1.1452898337651873 13.064010217013367 1651.5446086428026 32.095541115007215 0.3293162777019203
1.1720559316540604 13.069017650741012 1461.5521876208136 33.55766157886969 0.3342977298492352
1.1989132710301336 13.073478086486167 1294.9912106062725 35.087198149723015 0.33939685059442437
1.2258604510276192 13.077345835597013 1148.6568867186295 36.686140681064295 0.3446101946708692
1.2528574964865744 13.080498529939462 1019.8679475632854 38.35957505885711 0.34995240504195085
1.279901864207548 13.082940458352818 906.4118602505681 40.10977857569254 0.3554202714910107
1.3069471273500974 13.084527130464545 806.495498435981 41.94215389905792 0.3610279499496573
1.3339852811140798 13.085238788285231 718.3471989701198 43.8602569240846 0.3667777721162397
1.3609953177367928 13.08503414434614 640.3769222068443 45.86870713995602 0.3726771039331934
1.3879276826505191 13.08377205477845 571.5841860735914 47.972874268478094 0.3787361001102252
1.4147770436748621 13.081463212356908 510.6394226279771 50.17755727191556 0.3849606216520963
1.4415091993031308 13.078019633639169 456.71475704687236 52.48789897937433 0.39135723470454364
1.4681052556316636 13.073417206052762 408.8689218771011 54.910356533917664 0.39793783669381344
1.494515775340751 13.067546223257485 366.38978650229285 57.451122070217394 0.4047114924447751
1.5207278355287905 13.060398767516688 328.7253632781995 60.116826035016494 0.41168797718191424
1.546711983756174 13.051904666166859 295.17702398083355 62.91457664661103 0.41887783502703335
1.5724282958711644 13.04202083652249 265.36206587214906 65.85200313264954 0.4262924422737034
1.597842309474491 13.030680322033284 238.8216020822437 68.93730312985873 0.43394407599757134
1.622939870021474 13.01785931487091 215.15702239693314 72.17929467700232 0.44184598863012514
1.6476920998866558 13.003514363306211 194.02127510694174 75.58747328644921 0.4500124891993633
1.6720408140829734 12.987577121036257 175.16315412022314 79.17170819602785 0.45845750182865697
1.695977862179795 12.970017450963176 158.3033771301705 82.9423386970063 0.4671949069563339
1.719458220475527 12.95080010380701 143.2231656149119 86.91203776345756 0.4762459662721376
1.7424339356397165 12.929824087503995 129.7332309856256 91.09231452153256 0.4856247354707563
1.7649220482749084 12.907195846074819 117.63270081430478 95.49741070055249 0.49535372744214257
1.7868477536745215 12.882757887528513 106.78409064941346 100.14085138370304 0.5054498854273897
1.80818491184648 12.856491815152474 97.04626197461818 105.03924356131823 0.5159392147513943
1.8288984082394115 12.828357368026733 88.29790515108525 110.20913648355842 0.5268442645801837
1.848971618585194 12.798371539056982 80.42777233487176 115.66826393380948 0.5381887655347116
1.868347364486261 12.766425995447461 73.35879076595404 121.43666224360182 0.550001389890103
1.887022285721845 12.732600061853873 66.98013988812417 127.53577168803976 0.5623119884100801
1.9049452181827946 12.696773611986936 61.23120967435731 133.98818949411822 0.5751503964967163
1.9220846669700047 12.658947228883367 56.05114163217447 140.8195610271737 0.5885527428561106
1.9383960172252999 12.619049622867193 51.37001719082267 148.05757045100444 0.602557284845047
1.9538906949293187 12.577197278826448 47.14572383611534 155.73063400872442 0.6171994718118915
1.9685045696360783 12.533253805746153 43.32471602366593 163.8725078642556 0.6325272467388299
1.9822159901424492 12.487248231559912 39.86219209213718 172.51709808143812 0.6485825768757327
1.9950019049014138 12.439157359247485 36.7303228602929 181.70349590657827 0.6654179162221857
2.006836483711877 12.388989214047825 33.89071083315613 191.4738378966395 0.6830880847817205
2.0176792238722445 12.336704756461904 31.315122344263933 201.87418509402036 0.7016523511734395
2.0275127170701737 12.282312232393384 28.980116230676824 212.95438666478188 0.7211730033340298
2.036318630571592 12.225831606254722 26.858929659554022 224.77021712536933 0.7417212497454662
2.044058335177329 12.167228260749509 24.932230655453136 237.3826148773593 0.7633734111584094
2.0507141260422697 12.106509725803944 23.178480071158987 250.8586170099747 0.7862125578544795
2.05628378188363 12.043750648315285 21.58591891587426 265.2715371695137 0.8103274503509946
2.060725931966675 11.978890621180907 20.134680555859145 280.7026863321903 0.835816272928024
2.0640272167524722 11.911984587240061 18.81480143195307 297.2423282678 0.8627876109652574
2.066183759443462 11.843070456517298 17.61270605893495 314.9907667056169 0.8913615703572334
2.0671713170897936 11.772170005841584 16.518142103875196 334.05730703477786 0.9216635152902588
