M[M_sun], R[km], Lambda[1], P_c[MeV/fm^3], rho_c[fm^-3]
0.24162668629717493 15.618656898711224 2160425.4255784233 3.5677272577965504 0.1711233750220791
0.2536447313233692 15.277302363860931 1723078.91491065 3.7848442301363883 0.17388847998106854
0.26604233322351223 14.981220857612328 1382940.6860377789 4.01145325142506 0.17666728669507087
0.2788194359349852 14.723439953488642 1116391.917029389 4.247809648618475 0.17945845873035518
0.2919750367250385 14.498324895130768 905809.3455692839 4.494538937085319 0.18226856834705973
0.30551183406924143 14.301170127248646 738644.38939264 4.751797863549223 0.18509334415738
0.3194301529836745 14.12804341669132 605020.2468239658 5.020266900352935 0.18793936504252975
0.3337322675973218 13.975830972291838 497616.03422731935 5.300172554504432 0.19080330188647157
0.3484131703079264 13.841924618978162 410944.7043419516 5.592240695705437 0.1936913955537722
0.3634784992854059 13.723858296741074 340619.60871358495 5.896642097929173 0.19659877343781057
0.37893211409059613 13.619921942337422 283245.54667059315 6.214239457544598 0.19953308693535574
0.3947676713209275 13.52837783133812 236355.56185981818 6.5452870486593095 0.2024904582606032
0.4109946106916629 13.447776156114085 197819.61845456652 6.890493630202259 0.2054747057561009
0.4276053770081105 13.376958708969173 166040.10222782206 7.2505616402223545 0.20848885300614356
0.44460252372108233 13.314843643899307 139763.5865048905 7.625745671230397 0.21152837610861455
0.46198384177186874 13.26048731264191 117946.19866260582 8.017003561411853 0.21459957279314296
0.47975348007451524 13.21308011094157 99794.76414750106 8.425036515393083 0.21770402604958794
0.4979131665655703 13.171912275801779 84619.72218222042 8.850279604545994 0.22083911913218948
0.5164545357424528 13.136328115385874 71917.46298202848 9.293617817100909 0.22400842393398576
0.535374719624981 13.105790925663841 61257.15151910415 9.755930868944828 0.2272147816564896
0.5546848376018522 13.079768383135601 52289.55967692096 10.238025474140981 0.23045950241570648
0.5743689935492997 13.057802857942026 44715.734005473234 10.740373935529007 0.2337392970910507
0.5944295223046111 13.039505998454903 38315.3810782337 11.264228514338276 0.23706044437696536
0.6148689726715428 13.024472100735878 32890.44657225003 11.810522380316408 0.2404244978576345
0.6356769810713867 13.012402365080627 28281.827493848614 12.380234987301554 0.24383309128857955
0.6568495937811683 13.003007329469577 24361.738969617676 12.974043896342524 0.24728404429548717
0.6783857265116887 12.995954317173986 21020.300744698787 13.59329907098921 0.25078239956273257
0.7002758634713891 12.991046085586937 18165.307450693206 14.239187816088172 0.2543306703143401
0.7225128477649089 12.988002789868366 15722.738229248691 14.91290040497304 0.2579308422900229
0.7451041154895377 12.986639230068883 13628.399776453987 15.615450328160938 0.2615826472459186
0.7680277230172146 12.986763581383185 11831.392081709779 16.348136614721778 0.2652883056624451
0.7912765120265658 12.988147057337573 10285.61656873928 17.112560465794633 0.26905235124275756
0.8148526224012846 12.990672128278376 8952.359078360438 17.9101776982122 0.27287721808425996
0.8387397161780513 12.99414332791889 7804.025982797221 18.742329838754095 0.27676377100319016
0.8629219791158611 12.998430227203128 6810.8972826214485 19.610409684848033 0.2807129196097187
0.8874069187475747 13.0033719195048 5952.504460569061 20.516481028244737 0.2847308170098483
0.9121672227574359 13.008866894286253 5208.84179220525 21.462339014978266 0.288820478574202
0.9371911226801352 13.014756958816916 4562.972343480956 22.449437368428534 0.2929815778237842
0.9624779081274786 13.020966653825306 4002.5764437146313 23.47986349665112 0.2972184075227825
0.9880008183429293 13.027360838188972 3514.754880730428 24.556011501911147 0.30153682959089484
1.0137464313556122 13.033822033314708 3090.5536869959346 25.679787491207367 0.30593820253936177
1.0397135165036753 13.040273044139598 2720.054638585343 26.853226772193278 0.31042433015638526
1.065868902785488 13.046600936532625 2396.9529903888583 28.07939246482804 0.3150036850582017
1.0922047267803907 13.052731816568164 2114.663012579242 29.360295992930016 0.3196764083244797
1.1187046913493097 13.058562277604562 1867.3498422046569 30.698782501691444 0.32444779248412325
1.1453385210700748 13.064013981681484 1651.0276702976162 32.098161659622996 0.3293252816351068
1.1721051541895926 13.069026010371404 1461.2515651724411 33.560471695695526 0.33430720023267346
1.1989642424501452 13.073488591930756 1294.6779315937613 35.09021110498015 0.3394068136206457
1.2259137024700726 13.077346317809576 1148.4075141340054 36.689347730001586 0.3446205401143004
1.2529122800007417 13.080511730435587 1019.5688365615307 38.362989219126305 0.34996315590533483
1.279956868531681 13.082949375230859 906.1616380706081 40.113438660947324 0.3554315945720335
1.307011093666514 13.084548960650327 806.3129780302222 41.94605115298704 0.3610397319387164
1.33404336284836 13.085236684683043 715.1796356219286 43.864435050811466 0.36679019166964
1.3610536000571982 13.085031370914244 640.2444505143065 45.873157383321804 0.3726900446363813
1.3879928251158096 13.083781519286228 571.4251203649145 47.97761564085258 0.3787495955865513
1.4148379288033468 13.081453139682353 510.5005352965015 50.18264177575964 0.38497486899219135
1.4415709798221008 13.078010879270801 456.5872110669772 52.493318541597816 0.39137211479187484
1.4681666702579579 13.073406567750215 408.75205997350184 54.916135157107306 0.39795339170817723
1.4945780113988183 13.067532123141383 366.3071798130288 57.45728570146525 0.40472776782713166
1.520790438619532 13.06037908596111 328.6397092846369 60.123402740043105 0.4117050219022465
1.5467748025572536 13.05188355702376 295.0985733833426 62.921596801266105 0.4188957018787576
1.5724929167429842 13.041993546698341 265.29666292849964 65.85949963372393 0.42631118819747565
1.597905549516331 13.03065035886151 238.75983571683372 68.94531162738075 0.43396376243768026
1.623014400735177 13.01783741168426 215.0840982326649 72.18785383045498 0.4418666819270307
1.6477567960083066 13.0034742258693 193.96390048176198 75.5966250476479 0.45003426102237365
1.6721049386801494 12.987531665964262 175.12083712157 79.1814503211874 0.458480230095197
1.6960412059430516 12.969968562014563 158.25548238665314 82.9527662601635 0.4672188694660992
1.7195216093346435 12.95074506947311 143.1836285990607 86.92320445673815 0.4762712533383005
1.7425026402324586 12.929796927271962 129.6922230743464 91.10422499247252 0.485651231884511
1.7649849669837696 12.907130671894892 117.59437946335221 95.51017971786452 0.4953817455173082
1.7868953109824204 12.882653783804354 106.75267981688468 100.15449006668986 0.5054793171135777
1.8082459589797437 12.856413274337145 97.02094825009803 105.05382265110825 0.5159701734791223
1.8289503604742834 12.828258300813928 88.2694049923415 110.22473314262916 0.5268768730454683
1.8490308194496194 12.798278967875591 80.41407037295049 115.68502614077143 0.538223390470102
1.868403189586621 12.766326874378391 73.33586652940991 121.45462050212812 0.550037946323495
1.8870780589340304 12.732493168382613 66.95785339300824 127.55495855309292 0.562350389401388
1.9049990206486807 12.696659613293804 61.214910009609476 134.00878111310917 0.5751910507462453
1.9221374989523816 12.658824337042155 56.03496982869975 140.8416781792713 0.5885958354791245
1.9384467508729966 12.618919838665002 51.356534298504904 148.0813456219916 0.6026030175693293
1.9539391006775375 12.57705723618317 47.13307239508927 155.75613437723587 0.6172477975628435
1.9685492375158233 12.533110048672295 43.31131306553231 163.8998880042584 0.6325783930678999
1.9822610586855491 12.487092258203877 39.853423191204286 172.54661017551516 0.6486370677306604
1.9950425943427432 12.438990200338083 36.72130251229825 181.73524696444508 0.6654757512143434
2.006874825706379 12.388814706626146 33.88150372022382 191.50803416597662 0.6831495598252303
2.017714844250869 12.336522091645953 31.307007213208504 201.91105409393245 0.7017177900114565
2.0275449666084913 12.28212206508182 28.97162449245968 212.99408663992486 0.7212424560653684
2.036347717579719 12.225630368409078 26.85181580544602 224.81311565533 0.7417954008757723
2.0440846817724343 12.167016265489574 24.925712674989168 237.42892100929942 0.7634523673671211
2.050735882357916 12.106288291243176 23.172670942991918 250.90866539826393 0.7862967702290153
2.0563012765330546 12.043519141297018 21.57991602637668 265.32569907724695 0.8104174145759425
2.060740011184182 11.978647841358084 20.129533535756828 280.76137424661977 0.8359125347671807
2.0640368458222365 11.911728881562231 18.809908502228836 297.30600116243534 0.8628907724635468
2.0661857987125667 11.842803068129557 17.609248327701124 315.0599360497527 0.891472296872632
2.0671719934162955 11.771896386607285 16.51361477487275 334.1324291778879 0.9217821647145866
