M[M_sun], R[km], Lambda[1], P_c[MeV/fm^3], rho_c[fm^-3]
0.24162668629717493 15.618656898711224 2160425.4255784233 3.5677272577965504 0.1711233750220791
0.25364159732117214 15.27734143371268 1723153.488769971 3.78479254219972 0.17388783571587307
0.2660370752386002 14.981306682934658 1383061.240094311 4.011344592995639 0.17666597362207714
0.2788106394102464 14.723587111556634 1116508.7765358663 4.247640343539764 0.17945649504657946
0.291962718452969 14.498507164173711 906013.563716195 4.494304542588371 0.18226595830993608
0.3054961014232918 14.301345980823301 738746.5708100869 4.751490420772714 0.18509002318863033
0.31941103904183643 14.128252056623843 605179.3946274375 5.019884144523988 0.18793539380307425
0.333707089610126 13.976062043474444 497764.80969760317 5.299704408628357 0.19079858843429398
0.3483855135273999 13.84215576405541 411104.9496251376 5.591685990865819 0.19368602863185486
0.36344581947556803 13.724115942812 340733.05707612645 5.895988371828557 0.1965926335039304
0.3788973429033241 13.620108702655731 283367.51954146073 6.213478799099338 0.19952615064622736
0.3947254873877662 13.528591978711374 236458.64181100918 6.544420247555838 0.20248285758591666
0.4109485856931255 13.448010969113671 197923.59233661005 6.889503952819733 0.20546627724820932
0.4275529192517825 13.377183573073687 166128.98632166855 7.249439799488666 0.2084795723052569
0.44454639631199644 13.3150444284631 139851.16407407055 7.624494767729943 0.21151841811242264
0.46192466821462275 13.260660048356213 118021.32681656747 8.015601776323212 0.21458872885218777
0.47968651951350194 13.213242899524955 99845.80373485689 8.423472917750987 0.2176922699811888
0.4978393707765945 13.172077893137637 84673.75269424109 8.848559959520813 0.22082666816745938
0.5163747843161052 13.13648083784556 71965.59248968987 9.2917142953947 0.2239950230225033
0.5352889954915967 13.105920353828001 61299.47355615518 9.753830564127837 0.22720040185795634
0.5545932485190177 13.079886927165761 52323.00303871369 10.235717913081915 0.23044415490292813
0.574270926069397 13.057916874768972 44749.607649797625 10.737862723426412 0.2337231743314759
0.5943259289234242 13.039567218727408 38346.15532265795 11.261479103652295 0.2370432660092452
0.6147585139225337 13.024538334921825 32638.45899225061 11.807518528778312 0.24040622942846726
0.6355562333884501 13.012459683350633 28075.881919005875 12.376959439326018 0.24381369652596102
0.6567248772950489 13.003055565597993 24382.410033007418 12.970511693768382 0.2472638556740212
0.6782520864897494 12.995998998344419 21038.29657086963 13.589460055648747 0.25076102495385066
0.7001368716279963 12.991077059003718 18181.646119887 14.235021403726611 0.2543080673239368
0.7223666322011572 12.987998850616151 15737.009094789182 14.908384688754962 0.2579069659961658
0.7449499860523628 12.986656086898389 13545.10561424595 15.61060605345809 0.26155788652697204
0.7678663997161116 12.986744955984614 11842.271024402135 16.34289817986139 0.2652621933785109
0.7911047204714607 12.988128721896345 10294.687176607773 17.106901580053037 0.26902483399765564
0.8146769358508094 12.990651417943319 8961.802857901253 17.904070327818776 0.2728482390484411
0.8385546144399186 12.994109603511061 7811.742491136955 18.73580107231887 0.2767337746994948
0.8627312271478386 12.99838534456613 6818.702977374816 19.603374632570727 0.28068135776692577
0.8872016571396817 13.003322318381866 5959.24320253337 20.508905830489155 0.28469762131873033
0.9119594155893761 13.008809037858938 5214.488316542945 21.45418749347641 0.2887855761197056
0.9369725844161433 13.014708797210632 4568.160707025747 22.44074347940057 0.2929454683583118
0.9622462324094067 13.020904647890857 4007.151355037293 23.470518138206046 0.2971804532453605
0.987767502918527 13.02730033738669 3518.9177088868973 24.545970686280892 0.30149694219699485
1.013505400408923 13.033758124598881 3094.1770225100586 25.669090084952607 0.30589691918842055
1.0394646354565427 13.040211501403174 2723.4037222215447 26.84174199783775 0.3103809427469282
1.065614463563698 13.046545025913481 2399.858639356474 28.067066562615388 0.314958086186204
1.0919378867999348 13.052666317819389 2117.3013371487586 29.34717264789593 0.3196291723401319
1.1184321071477568 13.05850855839364 1869.944584253299 30.68470503529747 0.3243981333092214
1.145059206312532 13.06395900043486 1653.1541424678555 32.083176017592315 0.3292737924451158
1.1718176785412662 13.068979726293085 1463.2053283148002 33.544402099529506 0.3342530440367493
1.1986678467753422 13.073440932329067 1296.3669134290712 35.07298171021662 0.3393498406830622
1.225610914880371 13.077307733765048 1149.9019539076394 36.671008534719114 0.34456138070916553
1.252602343958637 13.08047343752175 1020.9623937208427 38.343397868788124 0.3499012800123447
1.2796417024330935 13.082919141741252 907.4416689369586 40.09250911379081 0.3553668455452412
1.306680987910591 13.08451467037034 807.3978179127067 41.923765541268494 0.3609723591582359
1.3337136509993566 13.085237948371157 719.1639261151388 43.840543518673535 0.3667191736803355
1.36071945026921 13.085037910502535 641.1367970361796 45.84770999104211 0.37261604707639884
1.3876473904652489 13.08379062501607 572.2507318585691 47.950503696441594 0.37867242624083153
1.414500844183392 13.081504778233235 511.24021817352605 50.1535679918559 0.38489340104569586
1.441228513078949 13.078081370349235 457.23947518937484 52.46232907155524 0.391287029317889
1.4678150607962113 13.07347176086775 409.34796853647475 54.88309278476249 0.39786444758436607
1.4942208435617295 13.067617001053344 366.8406074087766 57.422042096052024 0.4046347052913215
1.5204298997302732 13.06048563625822 329.10671126938905 60.085797461079835 0.4116075610217063
1.5464127594123687 13.05201165033269 295.54110902745003 62.88145620415006 0.41879354086777826
1.5721274790703272 13.042144590234203 265.68553909673335 65.81663566497504 0.42620400156697036
1.5975505079452732 13.030832264855489 239.1238116970642 68.89952049713364 0.43385119895861923
1.622638124822667 13.018029638951631 215.4209922592334 72.13891454826917 0.4417483623873451
1.6473894324923561 13.003702482655578 194.26869789153534 75.54429780598478 0.44990977575452457
1.6717386140531683 12.987787248597336 175.3839793834716 79.12574793771437 0.4583502770718311
1.695676379206397 12.970255585826513 158.50261573661263 82.89314528124264 0.4670818606301835
1.7191488903567012 12.951055058161867 143.41188915552468 86.85935797562843 0.47612667247165336
1.7421459203720338 12.930143787926921 129.89938306349896 91.03612643331846 0.48549973765657173
1.76462950653441 12.90752213593058 117.7788486145702 95.43717307662179 0.49522155264483075
1.7865561506483225 12.883097780766184 106.91468282908295 100.07651177482308 0.5053110433427216
1.8078967164358188 12.856862485963358 97.17233494070514 104.97046835983483 0.5157931704668858
1.8286107292694957 12.828751335362428 88.40948366103817 110.13546328686036 0.5266900728168359
1.8486946554432682 12.798806863086746 80.53835874154062 115.58919197826083 0.5380254301601822
1.8680848690684926 12.766925918751381 73.44765146426857 121.35194915275346 0.5498289450810203
1.8867596152327677 12.73310294939964 67.06701108308289 127.4450253030767 0.5621299917141326
1.9046872537611526 12.69731193018932 61.31057208416563 133.89105644570026 0.5749586256995953
1.9218354970252087 12.659525207311475 56.12372215683677 140.71523318017927 0.5883494725362903
1.9381565502264984 12.619661821466018 51.437438130316735 147.94542309786124 0.6023415638315973
1.9536615659280794 12.577856614193696 47.20598405302141 155.61035035434477 0.6169715222462785
1.9682846129786433 12.53395194443096 43.37733989856954 163.74325766793098 0.6322856525076008
1.9820109433732123 12.487984468275261 39.914915883070066 172.37789510753512 0.6483255538045591
1.9948091397898386 12.4399365991682 36.776338808633646 181.5537341810905 0.6651451231626458
2.0066489520132373 12.38979650139382 33.934053075927864 191.31254498220275 0.6827981265750199
2.0175120290458364 12.337569660729832 31.354580037043082 201.7002882848656 0.7013437014906955
2.0273618098035677 12.28321871905516 29.017960978286457 212.76713982646743 0.7208454261930212
2.0361810949035855 12.226785526437979 26.893354151605497 224.56788731340274 0.7413715178486923
2.0439379483520215 12.16822568162884 24.963564351945756 237.164216478621 0.7630010218261419
2.050610215043082 12.107557215405622 23.206783363277065 250.6223277503261 0.785814588044443
2.0561907619537885 12.044824681038852 21.611474306159046 265.01561040428555 0.8099015739663231
2.0606584499794893 11.98003311292484 20.158415344238207 280.4258784019689 0.8353622019045511
2.0639848449925204 11.913186319138612 18.83692737478283 296.9420412115998 0.8623010921284435
2.0661542537950055 11.844309187673977 17.63296937793097 314.6645638882841 0.8908393838058398
2.0671625401124274 11.773454411033908 16.53659886012667 333.7030372070736 0.921103974396274
