M[M_sun], R[km], Lambda[1], P_c[MeV/fm^3], rho_c[fm^-3]
0.24162668629717493 15.618656898711224 2160425.4255784233 3.5677272577965504 0.1711233750220791
0.25364222702540085 15.277347267516964 1723164.3683000188 3.7848064052696775 0.1738880085123523
0.26603833889567735 14.981290383688156 1383145.35545577 4.011373735747819 0.17666632579503838
0.27881190258033034 14.723612577201399 1116410.0707836857 4.247685751725658 0.17945702171310715
0.2919658092091691 14.498498903846986 905972.8987375214 4.494367407553406 0.18226665832591196
0.30550056594753333 14.301300915235522 738708.2477864539 4.75157287684077 0.18509091387153512
0.31941772827653364 14.128161718112436 605154.9201475153 5.019986798875087 0.18793645888158786
0.3337129489518061 13.976030227819383 497721.1814621805 5.299829963591673 0.1907998525644412
0.34839269671895107 13.842093645485994 411044.84446445724 5.591834759702427 0.19368746801127393
0.36345437529510854 13.724047542682207 340678.75525020226 5.896163696501243 0.1965942801903589
0.37890707028641535 13.620050532855934 283311.6323809749 6.213682800957911 0.19952801089754332
0.39473704259207176 13.528526973048907 236433.28439999357 6.54465271457666 0.20248489600764172
0.41096144949166086 13.447918880002591 197898.43930546366 6.8897693723126 0.20546853767198953
0.4275676179749634 13.377111275168788 166113.37510985395 7.2497406617161335 0.20848206126136037
0.44456169757352876 13.314973654638035 139826.98421581983 7.624830240939968 0.21152108869488298
0.46194088714791287 13.260618513074641 118003.26800346485 8.015977711364483 0.2145916370136624
0.47970412867461304 13.2132032492084 99830.58540961875 8.423892245620841 0.2176954227405605
0.4978603785632643 13.172046978068682 84660.60221948959 8.849021133928545 0.22083000726721605
0.5163962118033295 13.1364378995577 71950.76268605053 9.292224778775825 0.22399861685733136
0.5353119645781819 13.105883650040306 61288.100025916305 9.75439381710349 0.2272042581859748
0.5546171750215027 13.079842304255672 52311.02686951487 10.236337606528926 0.23044828181954202
0.5742979047124076 13.05786927697133 44740.22090282526 10.738536164696747 0.23372749803303744
0.594352751521884 13.03954996404223 38337.815484544175 11.262216419163313 0.2370478727699007
0.614787567072464 13.024524690619382 32909.636932636844 11.808324073476506 0.24041112848425394
0.6355876809295632 13.012459409317971 28301.380367752427 12.377837839819364 0.24381889760046205
0.6567583015002512 13.003029818411155 24376.367577607663 12.971458916353061 0.24726926960988835
0.6782878852968179 12.995985858603438 21033.334986835507 13.590489549430929 0.25076675689941197
0.7001742271524147 12.991072076359874 18177.88647607571 14.23613868769692 0.25431412864400477
0.7224062403930901 12.987999438332789 15734.419768869451 14.909595636468461 0.25791336873319726
0.7449918261794125 12.986639961912523 13638.290171718927 15.611905102025734 0.26156452640155686
0.7679089752646626 12.986760788061467 11838.807000035657 16.344302918751936 0.2652691956495596
0.7911514154757677 12.988132889339795 10291.605796311955 17.10841905806913 0.26903221297938673
0.8147234994702952 12.990663584214918 8958.973257505773 17.905708061036353 0.27285600997545495
0.8386034911880214 12.994115629709425 7809.740396733175 18.73755179725705 0.2767418183747363
0.8627827704808464 12.998387461927273 6816.875257468616 19.605261109581424 0.28068982119953395
0.8872549950128954 13.003333235202568 5956.90180264905 20.510937137423984 0.2847065228206779
0.9120152178719507 13.008822944163397 5213.026914733028 21.456373329744654 0.2887949352376165
0.9370313163130013 13.0147183443893 4566.694194474081 22.44307474046677 0.29295515108956205
0.9623078088435839 13.020924066027536 4005.9571760442063 23.47302407508629 0.2971906305996176
0.9878310540927719 13.027310528861369 3517.833938331894 24.54866309186287 0.3015076378462271
1.0135706318505726 13.033775548638525 3093.30791275684 25.671958538451168 0.30590798910290445
1.0395312737655198 13.040230820495324 2722.4969479721854 26.844821560736502 0.31039257678102417
1.0656799229674507 13.046554796236673 2399.185556822365 28.070371647298774 0.31497031313160884
1.0920076142018518 13.052688247591643 2116.3747436619133 29.35069154203887 0.3196418381984345
1.118505675289204 13.058520430430514 1869.2902178521956 30.688479743338778 0.32441144883643214
1.1451337463015643 13.063974999570329 1652.594008066805 32.08719422135792 0.32928759859747725
1.1718946635829308 13.068989372575981 1462.712772018114 33.54871092317233 0.33426756521668394
1.198748620212889 13.073444870122646 1295.9356528948358 35.077601485985205 0.3393651170291048
1.2256928520112869 13.07731883873705 1149.545431176224 36.67592585841749 0.34457724323423117
1.2526852732129432 13.080488981461668 1020.5717057441483 38.34866930546829 0.3499179787681337
1.2797255461365724 13.08293202608134 907.067022026246 40.09812092408201 0.3553842066114975
1.3067667757029233 13.084524087287383 807.0774169011804 41.92974091740032 0.3609904236255479
1.3338034159520997 13.08522704957245 718.8399074321919 43.84694944025714 0.36673821539218066
1.3608091996315401 13.085037764148694 640.8964895610583 45.85453303792603 0.37263588756989646
1.3877384891412263 13.083782069688459 572.0488873999706 47.95777300566706 0.3786931170414713
1.414592533956419 13.081495909705438 511.0452012217998 50.16136325576797 0.3849152442342333
1.4413156484067298 13.07804663701913 457.0808700916485 52.47063791777843 0.39130984229656224
1.4679079337396768 13.07345687722067 409.19153646045186 54.89195199575129 0.3978882949870535
1.4943167545971157 13.0675937002499 366.7006241261087 57.431491433285096 0.40465965674774385
1.520527555603975 13.060458397882808 328.9874413616019 60.095879931740086 0.4116336915676206
1.5465096366944786 13.051977561296283 295.4206180727426 62.89221835441006 0.41882093139581883
1.5722254780382043 13.042104471566846 265.59771835760233 65.82812790285152 0.4262327393225002
1.5976488983341668 13.03078492506587 239.02682997018675 68.91179744823155 0.43388137808545857
1.6227297414838244 13.01794161169682 215.342628900871 72.15203544814887 0.4417800845288373
1.6474874503605386 13.003641451152385 194.1865637225905 75.55832693334497 0.4499431507160478
1.671835638756956 12.987717144998715 175.31030647710526 79.14068185886907 0.4583851177390299
1.6957744552925957 12.97017659219548 158.4344618022574 82.90912966163354 0.46711859268976774
1.7192395850880795 12.950942554177558 143.3500046381889 86.8764750766857 0.4761654342837741
1.7422417931709353 12.930048219837804 129.83801810883986 91.0543833807308 0.4855403526444234
1.76472284308016 12.907409248897931 117.73437556848147 95.45674569714491 0.4952644993446123
1.7866507130087732 12.882985555541472 106.87049637590306 100.09741710938194 0.5053561561477473
1.8079906621605997 12.856742565967695 97.1295967461877 104.99281478505176 0.5158406231476739
1.8287028314775124 12.828621526412643 88.3705843746957 110.15946353611996 0.52674040514193
1.8487841883751 12.798667773883981 80.49977261866854 115.61488368733504 0.5380785003656023
1.8681730650344899 12.766774351045875 73.41639144040279 121.37947357891427 0.5498849747261068
1.886846274568083 12.732937517878726 67.04025308359522 127.47453693554047 0.5621892213250099
1.904771766464854 12.697136540331535 61.28760623502408 133.92261588756907 0.5750209338369641
1.9219173638226374 12.659338558724574 56.100912093312644 140.74913004135243 0.5884155165121805
1.9382338193333393 12.619463753130711 51.415691866715306 147.9818603076945 0.6024116526175759
1.9537458942998858 12.57767196619291 47.18461276150272 155.6494308254793 0.6170455836510887
1.9683557829829827 12.533726819750935 43.35907431234753 163.78531954876672 0.6323643782409112
1.9820777178139208 12.487746144464015 39.89814819409575 172.42312183751665 0.6484090600164817
1.9948718914852535 12.439685580867783 36.762344196693256 181.6023910602449 0.6652337523426914
2.006706477463402 12.389530203569901 33.91836031397701 191.36494788191087 0.6828923318963034
2.0175665719149296 12.33728840255989 31.34335534860979 201.7567856417423 0.7014439787261469
2.027408344212151 12.282922099056659 29.004965019267086 212.8279740080002 0.7209518519540192
2.0362259277072234 12.226475079141563 26.882652075887638 224.6336211938497 0.7414851404259466
2.043977302842768 12.167900869271822 24.953193777783785 237.2351702049197 0.7631220044474015
2.050644036396395 12.10721720770159 23.197842151230944 250.69916775762894 0.7859441229279248
2.056219331600312 12.044468981021042 21.602955210943176 265.0987550184975 0.8100399314349721
2.0606805183636374 11.979661975295139 20.15098125308568 280.51582316839455 0.8355097738473786
2.0639998533233785 11.912800190046482 18.82969826332964 297.0395954750572 0.8624591475151261
2.0661632428384626 11.843907261641386 17.62602352901864 314.7705363223017 0.8910090248295285
2.067164858840091 11.7730374340147 16.52968497770604 333.8181265187145 0.9212857487707415
