M[M_sun], R[km], Lambda[1], P_c[MeV/fm^3], rho_c[fm^-3]
0.24162668629717493 15.618656898711224 2160425.4255784233 3.5677272577965504 0.1711233750220791
0.25364083462105447 15.277378804572123 1723157.8948619007 3.7847792716784365 0.17388767030522717
0.26603546575602305 14.981348423873488 1383140.2213039133 4.011316696032913 0.17666563650374625
0.2788075447158937 14.72366849782917 1116596.2128724158 4.247596876668883 0.1794559908963804
0.29195977978755205 14.498555763334931 906044.2256584567 4.4942443655479964 0.18226528822462515
0.3054920224925895 14.3014067638287 738789.2148752346 4.751411490671589 0.1850891705928978
0.3194051417312457 14.12833721234541 605236.8218121906 5.019785880305085 0.18793437427387663
0.3337001883025743 13.976134570577981 497799.6384848131 5.299584223737242 0.19079737837186325
0.34837714077142173 13.842239181342142 411123.4397123367 5.591543585603163 0.19368465082176434
0.36343819659208104 13.7241556162132 340757.53262918047 5.895820547429462 0.19659105726165865
0.3788878069264832 13.62017485378065 283396.48835891584 6.213283525201802 0.19952436998340692
0.3947150130816167 13.528640838263785 236488.08738913495 6.544197727274842 0.2024809063836625
0.41093674748115266 13.448065625344531 197948.62712369236 6.889249891171979 0.20546411355260422
0.42753946065111886 13.377238605202031 166149.8619513435 7.249151813061957 0.20847718986735334
0.4445320062584693 13.315093082097286 139869.32273149045 7.62417365282998 0.21151586183134272
0.4619084496586322 13.260713494878079 118038.1665141685 8.01524193294834 0.21458594517276225
0.4796690249512688 13.213286094931625 99858.8528732003 8.423071540708456 0.2176892521869438
0.49782049782801013 13.17211686056401 84688.12648896631 8.848118529029662 0.22082347202209474
0.5163539336771321 13.136517493877745 71978.04906253384 9.291225669069991 0.22399158306271505
0.5352681391352218 13.105957330203083 61312.691636301686 9.753291429934652 0.22719671065988944
0.5545699393261818 13.079897013603269 52333.984958027395 10.23512475777571 0.23044020471997945
0.5742441467364535 13.057964650950252 44757.06018450236 10.737218124404862 0.23371903580608577
0.5942978748270241 13.039595245322504 38353.34603063597 11.260773369010659 0.23703885656643306
0.6147297921784416 13.02455876909331 32924.3232545026 11.80674749063665 0.24040154023011723
0.6355260375823829 13.01247360995001 28313.361025548442 12.376118669834732 0.24380871826741551
0.6566921073120787 13.003058952263475 24387.94553435255 12.969605053790648 0.24725867369169371
0.6782184502479386 12.996007989819148 21043.489022701007 13.5884746734517 0.2507555386097772
0.7000997234326082 12.99108184270763 18185.993503645754 14.233951997488841 0.2543022657429045
0.722329275593506 12.988001003417965 15741.709375728002 14.907225637356389 0.2579008376545138
0.7449105307578353 12.986650751696686 13644.62834940849 15.609362681212508 0.26155153123281405
0.7678247473951841 12.98675354189856 11845.037643059006 16.34155365280803 0.26525549124836895
0.7910627883044923 12.988128772351004 10297.643719294356 17.10544915242976 0.26901777133395693
0.8146314501276042 12.990650218976297 8963.899148743545 17.90250280671687 0.27284080127289567
0.8385079628424992 12.99410735151522 7813.9346233676415 18.734125409468763 0.2767260758957098
0.8626815375137536 12.998366677065821 6820.584321200141 19.601569045745716 0.280673257237566
0.8871510495519368 13.003321666358095 5961.0699799178 20.506961632282803 0.2846891015407374
0.911904066290237 13.008811577016601 5215.715177272556 21.452095401709148 0.28877661838860075
0.9369167591321206 13.014698853738425 4569.538987089772 22.438512207556187 0.29293620092536377
0.9621891666088389 13.020890450535699 4008.279048573576 23.46811969301312 0.2971707124467845
0.9877075229253091 13.027285147239342 3519.983253254689 24.54339378230705 0.3014867053808205
1.0134422487235346 13.03374205660423 3094.9278543884966 25.66634469516425 0.30588632420049505
1.0393999900020452 13.040192198352923 2724.205157951963 26.83879456896455 0.3103698078913874
1.0655480142921565 13.046531452021208 2400.5816576001152 28.063903302667335 0.31494638391216534
1.0918697664594934 13.052652046581056 2118.00211630883 29.343804765619954 0.31961705003182866
1.118361968540657 13.058491002745654 1870.5678970043218 30.681092333901702 0.3243853892709507
1.1449874625844674 13.06395095418626 1653.7967434063767 32.079330285445444 0.3292605788882485
1.171742943494235 13.068961920056353 1463.659592344421 33.54027824103681 0.3342391462084413
1.1985926945010514 13.073423567639667 1296.8285565037409 35.06856026889661 0.33933522017527235
1.225534052264565 13.07729392975442 1150.267571891818 36.6663023379598 0.3445461992469236
1.2525231819965992 13.080470913415546 1021.3102298637014 38.3383527875979 0.34988529830112586
1.279559833176532 13.082912264015853 907.7418273538972 40.08713829610929 0.3553502300296088
1.3065979731803685 13.084513576681799 807.7124333963491 41.91804679389303 0.3609550705185334
1.333629786290834 13.08523561757232 719.3522326435747 43.83441274788739 0.3667009498589579
1.3606330948240573 13.085038243682556 641.3711995801332 45.84118003900821 0.3725970588629112
1.3875603443966416 13.08379672048828 572.4719454943514 47.94354668175973 0.3786526243312738
1.4144119539938786 13.081514626665514 511.41587328960753 50.14610765744653 0.3848724963665349
1.4411392858630665 13.078094879747978 457.41072472733595 52.4543772566507 0.3912651966134487
1.4677232955219417 13.07349164548792 409.5112640175627 54.87461429274837 0.3978416250086876
1.4941292358358513 13.067640043857388 366.9787758385114 57.41299887998831 0.40461082621853933
1.5203382952787743 13.060513268778735 329.2408202116431 60.07614836856748 0.41158255365362945
1.5463195115274313 13.052044339005542 295.6586880884601 62.871156696747065 0.41876732780259046
1.5720337202289045 13.042181619603875 265.7946456869986 65.80563750932804 0.42617649932487794
1.5974561486374605 13.030877603496378 239.21519767044464 68.88777142464544 0.43382231745978145
1.622543390401521 13.018079950910188 215.5095283016313 72.12635787973598 0.44171800437687836
1.6472949567181852 13.003759330388373 194.34216280528443 75.53087203718952 0.4498778361687288
1.6716439627332222 12.98785213760819 175.4564425494858 79.11145635276058 0.45831693496764025
1.695582818103045 12.970328174388861 158.57401072295417 82.87784850444416 0.46704670868165205
1.719047711710996 12.951107158341669 143.47532657517436 86.84297729810407 0.4760895782965074
1.742052668991165 12.93023518578886 129.95241859952918 91.01865503542214 0.4854608702272428
1.7645374835672238 12.907621348989895 117.82581421111098 95.41844272803067 0.49518045407773825
1.7864647362719228 12.883203123813542 106.9592188883915 100.0565061688949 0.5052678721130472
1.8078070224299927 12.856978524041835 97.20926507616251 104.94908380208133 0.5157477603136725
1.8285325257430367 12.82889997483672 88.44807738007165 110.11249624030177 0.5266419072814977
1.8486076386156447 12.798944563093643 80.5698481523023 115.56460643170705 0.537974644904822
1.8671733717304269 12.767397007731494 73.7103811923696 121.41987372245987 0.6859777975736404
1.8811272833354695 12.732963571104436 68.38070942565867 128.00846201094993 0.8983585152844501
1.8906120863910358 12.693218134341237 64.15548617027564 135.3929500286143 1.1087919244808506
1.896189404293497 12.647489238564608 60.72098132654248 143.6199980221554 1.317695098840136
1.8983057150471339 12.59544743075334 57.87659420575802 152.73649215003326 1.5259087196854761
