M[M_sun], R[km], Lambda[1], P_c[MeV/fm^3], rho_c[fm^-3]
0.24162668629717493 15.618656898711224 2160425.4255784233 3.5677272577965504 0.1711233750220791
0.25363373624448443 15.2775362234601 1723487.815761884 3.784625906218886 0.17388575867875983
0.2660178434744776 14.981745857102249 1383593.870218436 4.010994305013958 0.17666174059854436
0.2787803769360043 14.72415729503153 1117025.545838003 4.247094567289652 0.17945016486454543
0.29192321010571837 14.499136838416282 906522.1334739415 4.493548971505068 0.1822575448505646
0.3054446367854988 14.302014243701493 739317.0839888377 4.750499417138871 0.18507931845802594
0.3193464959640254 14.128989640104264 605657.5037094556 5.018650424177919 0.18792259347831147
0.3336313427969736 13.976823069024531 498282.7406971727 5.298195511685564 0.19078339634579286
0.3482958327270795 13.842912485293922 411550.33617904916 5.589898166249689 0.1936687309368802
0.3633415813423268 13.724878597401991 341144.69145838707 5.893881478132137 0.19657284511246736
0.37877879670871534 13.620864036032057 283762.6371014798 6.211027363709774 0.19950379650719488
0.39459370419470385 13.529293880540017 236828.0205704314 6.541626831871676 0.20245836310408633
0.41079998572838394 13.448672721621666 198231.96981998265 6.886314662655544 0.2054391159148374
0.4273905572960231 13.377811904032045 166415.57099562953 7.245824735706296 0.20844966580904684
0.44436462181897046 13.315652792457911 140096.82672352306 7.6204639368833265 0.21148633010706783
0.4617212510922969 13.261307163913493 118245.92921570584 8.01108491424041 0.21455378727225113
0.4794692444988315 13.213785956761503 100044.9581976078 8.418434837279065 0.21765439065914727
0.4976060078457509 13.172560653999314 84852.32896630015 8.843019249061141 0.22078655105636794
0.5161192934369343 13.136916962376324 72133.9782801944 9.285581345955041 0.2239518466761033
0.5350152598548547 13.106321865409498 61443.42598483122 9.747063834417672 0.2271540732445218
0.5542991062494701 13.080255365948716 52449.828177979194 10.228273339440376 0.23039457694661308
0.5739552335019082 13.058206030347614 44859.68279462332 10.729772658593653 0.23367123360926115
0.5939926076299853 13.039868335645023 38442.414977348635 11.252621966924345 0.23698792645868755
0.6144011696441495 13.024773408003753 33003.53662203728 11.797842050160547 0.24034738029362315
0.6351756880909769 13.012656387879295 28382.566222134607 12.366408090118163 0.24375122120435988
0.6563178921171061 13.003192981922954 24451.817584359564 12.959133923873772 0.24719882500697773
0.6778279234636723 12.996124604453339 21099.048758364213 13.577094415213972 0.2506921763808631
0.6996885565692771 12.991155952104895 18235.680108512035 14.221601659828506 0.2542352645583388
0.7218938671450481 12.988060430094704 15785.524830945842 14.893840355781764 0.25783006462520874
0.7444528563940073 12.986673399694745 13683.777894492783 15.595003931226858 0.26147813882742266
0.7673442595989871 12.986729377284261 11880.404691758346 16.326027147861417 0.265178095515392
0.7905603306311043 12.988082940189772 10259.395566839481 17.08867705707739 0.26893621431376635
0.814100328730504 12.990562813711644 8992.295061076218 17.884402128815456 0.27275491485051395
0.8379577283910457 12.994008650971809 7839.165317277004 18.714728486936373 0.27663675240769003
0.8621114136239099 12.9982820197336 6842.29751760827 19.58072034068487 0.28057972224654815
0.8865519105026107 13.003185742281534 5980.357925574713 20.484513007073765 0.28459072818435704
0.911281878282054 13.008657558788158 5233.445393437445 21.42793977125929 0.28867319097417077
0.9362746711340542 13.014554229826228 4585.076657164563 22.41275013780792 0.29282919995432766
0.9615195206299676 13.020722319196173 4022.063689448888 23.44042819934598 0.29705824906305783
0.9870150796158664 13.027115529883863 3532.267410895913 24.513642681067058 0.30136851837910494
1.0127267162105158 13.033564278223764 3106.056750580327 25.634615898637996 0.305763760785285
1.0386537434092695 13.040004824950538 2734.1866870717313 26.80476733288832 0.31024125912076034
1.0647831643948824 13.046355729050585 2409.556827781021 28.027385371095225 0.3148112882040664
1.0910825690992714 13.052469701157007 2125.7301414172707 29.304925466604203 0.3194771084273832
1.1175520007671416 13.058319898144596 1877.5008746566002 30.639387987465305 0.324238274486522
1.1441570279421793 13.063791300667248 1660.0922489465236 32.03462025240459 0.3291059986853738
1.1708883798838805 13.068811781932002 1469.3656839235466 33.492675658659245 0.33407872059779725
1.1977150812678385 13.073284787741342 1301.9316142798964 35.0175241143653 0.3391664574481701
1.224636989965991 13.077182096574173 1154.8106143048994 36.61198058094196 0.34437096566761133
1.2516099354071244 13.080385979942612 1025.3886793386837 38.28012116429018 0.34970083328412804
1.2786216903698326 13.082843527032864 911.4162900314924 40.02514845970211 0.3551584541852313
1.3056421271167349 13.084469929213611 810.9780525250285 41.852042807968424 0.3607555304695233
1.332663023564136 13.085250465090102 722.409796139764 43.763655519616535 0.3664906227835931
1.359642441083987 13.085071207311056 644.1239918530265 45.76581767346461 0.372377915341114
1.386553350156155 13.08385911226111 574.8836847254869 47.863225548030016 0.3784239278264473
1.413381348235987 13.081598449943225 513.6443987605909 50.060012786752345 0.384631249050999
1.4401039851948356 13.078250470001736 459.3867540030942 52.36261303265439 0.39101324643543844
1.4666703036773978 13.073684273595974 411.30713854811836 54.776774920251796 0.3975782590139542
1.493069615032092 13.067904998451338 368.6006821759548 57.30864571973029 0.4043352763819221
1.5192647653976383 13.060825124958367 330.694586104569 59.96480699918846 0.4112939923611888
1.5452427585613024 13.052424472303937 296.97394693065183 62.75231368384947 0.4184648628863276
1.570951500076455 13.042630083856725 266.9915810231259 65.67873684904495 0.4258591686020901
1.5963681152813842 13.031393301517248 240.2841077824343 68.75221062516388 0.4334890827234561
1.6214639845130476 13.018674244523577 216.4810264297025 71.9814836397328 0.4413677447771483
1.6461951548473563 13.004424739672 195.23165519384128 75.37597547505466 0.4495093409181975
1.670559242500465 12.988604098169644 176.25140142546022 78.94583868017936 0.45792919159820494
1.694491103906187 12.9711646974049 159.29718033096742 82.7013765652318 0.4666411766793117
1.7179841056664973 12.952075759132384 144.12953268038206 86.65400750412236 0.4756616546880464
1.7409875023885368 12.93127475817991 130.55450651570072 90.81710867674579 0.4850125037657358
1.7634751785550895 12.908742355692342 118.37956030009713 95.20238133296812 0.49470636713280586
1.7854130687283436 12.884430517365729 107.45984290237922 99.82574170157731 0.5047698924040089
1.8067613634252273 12.858285318088035 97.66574709496152 104.7020675893492 0.5152226346172427
1.8275122283431509 12.83034622037975 88.86630726803998 109.84759100134045 0.526086359026048
1.8475967326854268 12.800476390977492 80.94487970179193 115.28104329984006 0.537388901324499
1.8670229134642347 12.768752464457837 73.82593970333384 121.02183188253052 0.5491569472933298
1.8857139076541192 12.73503509164123 67.40971736408238 127.09108884920437 0.5614196440753193
1.9036712116152592 12.6993836905416 61.628391682219565 133.51184609866513 0.5742088123951988
1.9208524210846638 12.661741560943666 56.41455233616849 140.30873724089915 0.5875574638639796
1.937226053733972 12.622089004682184 51.70142685373784 147.5084828028007 0.6015010874349132
1.9527733951588724 12.580431021756434 47.44628280302291 155.14173278541344 0.6160834450438737
1.9674303967087998 12.536665124636052 43.597029358629804 163.23865757009852 0.6313408221130028
1.981212684965145 12.490890466613939 40.114858412615845 171.83562799269436 0.6473243168672654
1.9940574708059864 12.4430037487633 36.96161564912825 180.97036708903119 0.664082511915617
2.005937373198607 12.392993102960169 34.10366554699114 190.68429597327957 0.681668715796965
2.016849429259196 12.340920623616038 31.51487616012315 201.02298584359036 0.7001415564678086
2.0267564056841727 12.286751338520189 29.160883769852823 212.03661809880296 0.7195654894908754
2.0356342800485425 12.230488902768665 27.0238280876922 223.77993634579474 0.7400095258427297
2.043463046638949 12.172133945239253 25.083606354500073 236.3126326764722 0.7615472707070888
2.0502093056939517 12.111664562131443 23.319451722137863 249.70135001540214 0.7842620277601569
2.0558473622471256 12.049086121759528 21.714679816309868 264.01912438528535 0.8082433633360894
2.060385787559371 11.98447833094386 20.254688038711084 279.34632038096106 0.8335883193605849
2.0637926892120695 11.91783550389493 18.92366509810808 295.77213785121177 0.8604042224605549
2.0660402524279022 11.849148861160076 17.712220929009877 313.39471670089216 0.8888066082185446
2.0671320790648875 11.778485199228312 16.60961179865133 332.3236739538938 0.9189247596771276
