M[M_sun], R[km], Lambda[1], P_c[MeV/fm^3], rho_c[fm^-3]
0.24162668629717493 15.618656898711224 2160425.4255784233 3.5677272577965504 0.1711233750220791
0.25363857031558656 15.277434715667676 1723307.1324674212 3.784735407288895 0.1738871235567724
0.26603080125794926 14.981443124458018 1383216.9133187141 4.011224486381934 0.1766645222045326
0.27880002604951454 14.723807295935025 1116658.2276206869 4.247453204270838 0.17945432451307278
0.2919486444660222 14.498757004484833 906188.559731634 4.494045462513016 0.18226307339316766
0.3054777169879656 14.301592351179142 738943.1202905553 4.751150605854342 0.18508635253896538
0.31938895866179035 14.12849861615952 605348.9406569684 5.019461094264749 0.18793100449335223
0.33368010137892373 13.976371311679374 497957.1663771393 5.29918698874838 0.19079337887465747
0.34835527055138144 13.84234851507936 411234.394226663 5.591072912236459 0.19368009692746369
0.36341011446825905 13.724377697576383 340865.2101128501 5.895265864938928 0.19658584756632425
0.3788562245391342 13.620379448616871 283505.1714219903 6.212638124619246 0.19951848470720687
0.3946809744941489 13.528823545739742 236590.56778170692 6.543462281047447 0.20247445751378745
0.41089837432787685 13.448209741021746 195539.17315987116 6.8884102063168555 0.2054569624440179
0.4274972717017427 13.377411628727106 166230.23070331372 7.2482000142935705 0.20846931588006762
0.44448390097630297 13.315271825478176 139936.6580314739 7.623112372989898 0.211507413361415
0.4618568318596902 13.26085604064075 118097.85334709565 8.014052667106881 0.21457674523999842
0.47961232226053 13.213457472584611 99919.04555581072 8.421745020233159 0.21767927860741115
0.49775973695644027 13.172234742383338 84736.54335018725 8.846659646786025 0.22081290909131837
0.5162872696684682 13.136637391287586 72023.02041726607 9.289610824156897 0.22398021445385302
0.5351959335708768 13.106047490886512 61351.620060292145 9.751509679404661 0.2271845118526256
0.5544915257460072 13.080003826020555 52366.937269899645 10.23316449401413 0.2304271501280287
0.5741618311559825 13.058015403205594 44785.70196742398 10.735087865639414 0.23370535888494
0.5942134537112259 13.039693388002762 38379.02102122465 11.258441091299874 0.23702428445309048
0.6146351442908569 13.024650100706689 32947.71019371222 11.804199423890548 0.24038604373294542
0.6354260459906367 13.01254886721642 28332.618872393658 12.373340185218417 0.2437922666538305
0.6565822822116555 13.003089348171006 24407.901740123456 12.966608910023472 0.2472415489625471
0.678106335204663 12.99604063778292 21059.89963774057 13.585218341823413 0.2507374082276943
0.699982937559282 12.991109207310702 18200.69566104182 14.23041802830796 0.2542830937876228
0.7222034183786091 12.98802598422217 15753.569972218042 14.903395460182402 0.2578805860639987
0.7447801421485581 12.986657840777143 13655.939775345681 15.605253889463455 0.2615305298148622
0.767687381019546 12.986743621096393 11855.234737082148 16.337110629114783 0.2652333438896069
0.7909194328840736 12.988108654221667 10237.55708308707 17.100649611547603 0.2689944327919079
0.8144809805355682 12.990618468991132 8972.44513457676 17.897322986473192 0.2728162233962143
0.838348278546776 12.994090797008568 7820.784118743842 18.728588279157268 0.27670063564691666
0.8625174559034982 12.998342216166689 6826.760952459422 19.595602643115395 0.2806464897517769
0.8869790437209242 13.003276841567192 5966.498416814717 20.500537258887753 0.28466094894040544
0.9117240497697289 13.008768084983434 5220.72040760714 21.445182394647382 0.2887470188942792
0.9367314327124365 13.01465815762056 4574.281506387113 22.43113935518597 0.2929055782940834
0.9619979946735522 13.020844233913973 4012.4546169099644 23.460194518320748 0.29713852595755996
0.9875081917370526 13.027235426890789 3523.4809481660386 24.534879006014524 0.3014528802167644
1.013239347052369 13.0336898065057 3098.103771909948 25.65727326519933 0.30585131580520164
1.0391880031257843 13.040141276728956 2727.0195689322704 26.829055644980563 0.31033301599025953
1.065329650379116 13.04647404770191 2403.0827931260674 28.053451326985023 0.3149077175092491
1.0916447024348443 13.052597748562343 2120.108825855847 29.332676767053353 0.3195769960696148
1.1181292353256904 13.058442885168382 1872.5042263571013 30.66915553118464 0.3243432814258807
1.1447479415359385 13.063895548887201 1655.6341248713031 32.066543489614006 0.3292164016580889
1.1714998305491802 13.068921879509688 1465.2390647409793 33.5266527554872 0.33419322691729275
1.1983470425689475 13.0733987984203 1298.2593029731947 35.0539516974577 0.33928691358991653
1.225277292195983 13.077266774458689 1151.6296054793488 36.65075305334422 0.34449603966173126
1.2522610394457996 13.080443930054283 1022.4552569931006 38.32168399911201 0.3498324952333643
1.2792914226660643 13.082891613639866 908.8048204478338 40.06939343395142 0.3552953333542678
1.3063240896489978 13.084498233121197 808.6331652018457 41.89915255434984 0.3608979503699296
1.3333504104543603 13.085227602661973 720.2283536857043 43.81415743543842 0.36664074059508334
1.3603498544080193 13.085049539181023 642.2055494790826 45.81960607173336 0.3725343246966779
1.3872719174180128 13.083811989034446 573.1685774171652 47.920561971667226 0.37858720242672467
1.4141133862483057 13.081527973520929 512.061056906944 50.121460345887954 0.3848034318833579
1.4408434918548814 13.078133461428225 457.9848278212287 52.42810644704212 0.3911930668130853
1.467423043241038 13.073553902789907 410.0228749193739 54.84660374110624 0.39776622564125486
1.4938269730279317 13.06771483128861 367.44485443028555 57.383122930359775 0.40453193725131903
1.5200330566694649 13.060610285754251 329.6463192693835 60.044271110744646 0.41149993797566425
1.5460119279423894 13.052152840198966 296.03044458222627 62.837131039976086 0.41868072980094867
1.5717243327234505 13.042311582006047 266.14012324117033 65.76930416266306 0.4260856433188274
1.597141019823344 13.0310182602502 239.5171439228598 68.84895777345854 0.4337269059774904
1.6222339163427948 13.018236472551715 215.78040635850832 72.08487674660708 0.4416177162574324
1.6469832045569734 13.003951241412611 194.58979525934404 75.48652031394072 0.44977232447018095
1.6713372317948236 12.988066264309891 175.68250137002556 79.06408443421027 0.4582061209624635
1.6952741549615238 12.970568656966059 158.79175235537843 82.8273170220097 0.4669305874821892
1.7187376636715006 12.951369822086495 143.65826937803504 86.78886590002081 0.4759670426031632
1.7417541779788202 12.930543695454967 130.12862515384253 90.96094119023174 0.48533247816539693
1.764235092050407 12.907942367631824 117.99080696418767 95.35657093091979 0.49504469353957603
1.7861649894514542 12.883555888039869 107.11076800941652 99.99042256090966 0.5051252665539713
1.807510456787722 12.857359112676283 97.3369259930999 104.87844597766093 0.515597760745453
1.8282406875935273 12.829317345677973 88.56013341165234 110.0366321482255 0.526482808261148
1.8483221600989697 12.799390794738553 80.67787200648506 115.48339715122512 0.5378068945545147
1.867720279567939 12.767554990440352 73.58081592360087 121.23860923743902 0.5495982265478854
1.8864049178704123 12.733780130301065 67.184490653321 127.32350445454101 0.5618861003407533
1.9043439334193966 12.698032180958569 61.41896612366076 133.7611051862119 0.5747020615638574
1.9214919200352634 12.660264620816774 56.22234028917764 140.57565962720352 0.5880775301779538
1.9378423433592908 12.620514128470086 51.5308398800324 147.79539210249393 0.6020529717475008
1.953353525717649 12.57872916339832 47.28832826618974 155.44943832968133 0.6166665778520205
1.9679916637780743 12.53487880125956 43.45461823236436 163.56998501266904 0.6319612108914628
1.9817348064423894 12.488967544316026 39.9840550954123 172.191683017379 0.6479817335400946
1.9945456784485192 12.440975228660468 36.84127482057081 181.35340283743577 0.6647802168424274
2.006404737962579 12.390892682985204 33.99242492624908 191.0967945705858 0.682410269472519
2.017293134555716 12.338744330208666 31.409651162838195 201.4676850290127 0.7009308536559758
2.0271498348702237 12.284424208858878 29.067152361117664 212.51654131540616 0.7204067975437647
2.035983873415645 12.228025118124236 26.93753059615571 224.29726763469156 0.7409037452914992
2.043775117540209 12.169568135648467 25.00422812301415 236.87211324983045 0.7625029589879944
2.0504784193190813 12.108980008317925 23.246102289265107 250.3059991008359 0.785281329443983
2.056075182529504 12.046288950906378 21.646353514330954 264.67333511366735 0.8093320079969591
2.060559644882501 11.98155719079772 20.190959522763883 280.4051856331254 0.8353211469168376
2.0631867319882615 11.9168169975438 18.945717773549624 296.9623160081124 1.122830280246252
