M[M_sun], R[km], Lambda[1], P_c[MeV/fm^3], rho_c[fm^-3]
0.24162668629717493 15.618656898711224 2160425.4255784233 3.5677272577965504 0.1711233750220791
0.25364147761922695 15.277360901438296 1723215.372339682 3.784790695356701 0.17388781269586578
0.2660370409700379 14.981291205680952 1383066.1219582465 4.011340710599472 0.1766659267056107
0.2788100819578453 14.723609600867096 1116633.8197603931 4.2476342942804335 0.17945642488428726
0.29196225795448644 14.498551156325346 906022.3258538712 4.494296167767503 0.18226586505436204
0.30549545094348557 14.301357823269045 738777.7215724867 4.751479436071508 0.18508990453289267
0.3194096606925225 14.128282505646615 605200.3841297646 5.01987046906741 0.18793525191493402
0.3337062393352876 13.976058665550324 497767.97983271244 5.299687682432883 0.19079842002925934
0.34838443430328264 13.84216608327391 411087.2751373647 5.5916661722125545 0.1936858368809326
0.36344505100594265 13.724109346300551 340730.40390066564 5.89596501552842 0.19659241413661677
0.3788960712403495 13.620117752028314 283368.3419500385 6.213451622570799 0.19952590282900975
0.39472508615561325 13.52858749797842 236466.35189416748 6.544389279057138 0.20248258603401947
0.4109469388719581 13.448018492334125 197926.91160583572 6.88946859459227 0.20546597612270673
0.4275520543516173 13.37717269261383 164127.664982209 7.24939971981176 0.2084792407363614
0.44454492525231326 13.315045749812617 139854.0667635758 7.624450077418355 0.2115180623488066
0.4619223774540416 13.260668839833544 116707.12244324134 8.015551695986424 0.21458834144029448
0.47968343371262284 13.213261882061722 99844.48218741333 8.42341705696285 0.21769184998615396
0.4978368530235764 13.17208086868531 84672.85256625903 8.848498524280425 0.2208262233500697
0.5163721371442462 13.136479838002593 71967.65202086273 9.291646291641136 0.22399454427183868
0.5352859239284993 13.105930925239463 61302.70400572898 9.753755530889872 0.2271998881406918
0.5545904524732959 13.079887959935652 52324.26540260448 10.235635361382712 0.23044360514081497
0.5742679575896027 13.05790214810723 44750.961246402236 10.73777301196872 0.23372259835612838
0.5943213092392386 13.039576320998828 38346.95352048923 11.261380883526591 0.23704265232812236
0.6147546220764163 13.024540605906116 32917.65411134542 11.807411219891522 0.24040557681139466
0.6355515550479304 13.012463753559432 28308.0367630179 12.376842425400653 0.24381300367782616
0.6567201741086718 13.003057456797912 24383.77867992935 12.970385512141348 0.2472631344715843
0.6782481643700085 12.995996212547889 21039.01959760771 13.589322914828443 0.2507602613905054
0.700131719185838 12.991079485418153 18182.66305286104 14.234872568573572 0.25430725988596764
0.7223608559740454 12.987996899404333 15622.919488653622 14.90822337690351 0.2579061130796002
0.7449439731090656 12.986651992748218 13642.224693725175 15.610433005933647 0.26155700202281407
0.7678603743014741 12.986756477321345 11842.494789002107 16.34271105368562 0.26526126060145755
0.7911006851857073 12.988120924957212 10295.131028359858 17.10669943632326 0.26902385104114934
0.8146701524204356 12.990649848638855 8962.037262148366 17.90385216539443 0.27284720388333694
0.8385479066693781 12.994114574524701 7811.895762077897 18.735567858739692 0.2767327032037664
0.8627242046798099 12.998381773947052 6819.051502047253 19.603123336120195 0.2806802303582366
0.8871953078346055 13.003331174424355 5959.623124101343 20.50863524200858 0.2846964355580531
0.9119502798391433 13.008817065428236 5214.786635337827 21.453896321020494 0.28878432940356913
0.9369648368827959 13.014705176527269 4568.383407379375 22.440432935725887 0.2929441785366839
0.9622383662270564 13.020905079879578 4007.124436813483 23.470184327083977 0.29717909753920885
0.9877595645938071 13.027306962228272 3519.029765385515 24.545612036932212 0.30149551745339137
1.0134965017383464 13.033763465250656 3094.1429721215436 25.668707985444208 0.3058954445928294
1.039456134780472 13.040211013163331 2723.407282550346 26.841331778038654 0.3103793930103953
1.0656043979792948 13.046551093504902 2399.958693537627 28.06662630285464 0.3149564574739094
1.091928745383627 13.052664203052538 2117.2826149872285 29.34670390825515 0.3196274851652327
1.1184222873627272 13.058500407597872 1870.0225407121072 30.68420222091799 0.3243963595989163
1.1450485720811918 13.063960197739624 1653.1854224596666 32.082640769240484 0.3292719533844987
1.1718081473726856 13.068979964365703 1463.2461507864866 33.54382814046421 0.3342511097355216
1.1986582346784227 13.073433735510623 1296.4503673215363 35.07236633230908 0.3393478057951513
1.2255994238988845 13.077309601989999 1149.9071794064496 36.670353523368824 0.3445592677439431
1.2525916730117206 13.080477968301851 1021.0153695785491 38.34269568985409 0.3498990556634146
1.2796282131946322 13.082919496819436 907.4325799173486 40.09176159730089 0.3553645329789505
1.3066696353311533 13.08451845109102 807.4228295736579 41.92296959816788 0.3609699529016579
1.3337023903505378 13.085230640011636 719.1543773585355 43.839690227767676 0.3667166372584737
1.3607072010300114 13.085038398972824 641.1619602637094 45.846801139815966 0.37261340426049133
1.3876353535898192 13.083786239611312 572.3041912960246 47.949535404073295 0.3786696701681798
1.4144882544976949 13.081507387270843 511.26810310826477 50.152529644038786 0.384890491480684
1.4412162436375342 13.078082522659233 457.25965950579956 52.46122231619405 0.3912839905823326
1.4678026743176993 13.073476620815875 409.3809335512292 54.88191272278583 0.3978612710697544
1.4942078292485528 13.067619090972661 366.8585436617963 57.420783431631676 0.40463138172378865
1.5204172370408735 13.060489891737696 329.1202698573803 60.08445446611616 0.41160408040740615
1.5463990240029284 13.052017272085395 295.5553594606345 62.88002267921288 0.4187898924328428
1.5721145625673314 13.04214984510835 265.7074853371307 65.815104896309 0.42620017369147994
1.5975372781183925 13.030837423574024 239.13855377963688 68.89788520928118 0.4338471791039237
1.6226249022479295 13.018037156675536 215.43288920732581 72.1371668518188 0.44174413701602205
1.6473758329242545 13.00371186223537 194.27557593476593 75.54242913988332 0.44990533024215346
1.6717256449066025 12.987794488711208 175.39759875487806 79.123758759172 0.45834563634104947
1.6956637538999246 12.970267427838865 158.51137701003398 82.89101618978206 0.467076967984208
1.7191359567662425 12.951066663884184 143.42068631432866 86.85707801529095 0.4761215094832508
1.7421328115158947 12.930156342723127 129.90744286847726 91.03369465493611 0.4854943278447765
1.7646176788761507 12.907535380341425 117.79023073084564 95.43456606302628 0.49521583227488436
1.7865435861110641 12.883112319383107 106.92045889557122 100.0737272562923 0.5053050344725352
1.8078851323263003 12.85687876169539 97.17817849287101 104.9674919024103 0.5157868499533059
1.8285986092483943 12.828767025933264 88.41436613929997 110.13226655847154 0.5266833687709419
1.8486825232619997 12.798826789535568 80.53780754986097 115.58576996633968 0.5380183614643987
1.8680728983004373 12.766946393550331 73.4525274438516 121.3482830444997 0.5498214822280943
1.8867487853060037 12.733125543496195 67.07267393292467 127.44109452356075 0.5621221026710083
1.9046784515908426 12.6973342169767 61.316085347502906 133.8868529234344 0.5749503266414605
1.921826019428381 12.659548621994917 56.128208491045065 140.71071834546146 0.5883406759213552
1.938153020305733 12.61971867511948 51.441749171754715 147.94056992495544 0.6023322285120527
1.953651971946197 12.57788412542799 47.2087603267928 155.60514513716393 0.6169616578386712
1.968275948794803 12.533981100342256 43.379516833175636 163.73765252307172 0.6322751572436247
1.9820023450676165 12.488017408979623 39.91742168566401 172.37187130530071 0.6483144315123622
1.9948011610502732 12.439970615565711 36.77946251433831 181.54725353972253 0.6651333185845348
2.006640468928215 12.389830034907222 33.935655160260126 191.30556543559462 0.6827855793603753
2.0175047330285825 12.33760705611697 31.356286041662933 201.69276343036165 0.7013303456162168
2.0273532169086566 12.283260197357022 29.01804542764354 212.75903738647654 0.7208312514590106
2.036175658698611 12.226826667562875 26.89471036236488 224.55913232932394 0.7413563846502855
2.0439326408827374 12.168269420756328 24.964014460252546 237.15476631525968 0.7629849084295041
2.050606492305485 12.107602000318545 23.208774349567992 250.61209365902744 0.7857973356798162
2.0561869897634852 12.044872030782207 21.612785103676163 265.0045366759859 0.8098831466390624
2.0606549068883573 11.980083013194509 20.159410454474823 280.4138808660011 0.8353424880779575
2.063981566603128 11.913238147998623 18.83760854702983 296.9290484469737 0.8622800415216911
2.066153191589637 11.844363178697124 17.633829600882834 314.65045002831334 0.8908167902920092
2.067162124210742 11.773510273642843 16.5373233553153 333.68770920675695 0.9210797650441659
