M[M_sun], R[km], Lambda[1], P_c[MeV/fm^3], rho_c[fm^-3]
0.24162668629717493 15.618656898711224 2160425.4255784233 3.5677272577965504 0.1711233750220791
0.2536449442877398 15.277251140624127 1723080.0721611644 3.78484367434293 0.1738884730533712
0.26604224632411727 14.98122423241451 1382958.209483926 4.01145208302434 0.17666727257563772
0.2788196633715463 14.723428027074922 1116386.943300629 4.24780782806935 0.17945843761472885
0.29197472634280486 14.498319990692613 905809.8270000456 4.494536416602473 0.18226854028089826
0.30551224366321 14.301133807935463 738535.0601696804 4.751794557535883 0.1850933084461263
0.31942987067268136 14.128047263636942 605025.8777500391 5.020262784442862 0.18793932233837415
0.3337288705127742 13.975856352388082 497632.74851386284 5.300167520319803 0.19080325120058558
0.3484127774402947 13.841885468774732 410931.1472837622 5.592234730663462 0.19369133784035017
0.3634781361331603 13.723869672131949 340628.4808715567 5.896635067996621 0.19659870741119634
0.3789326415726315 13.619905337994645 279330.03644477006 6.214231277629756 0.19953301234438164
0.39476675826447805 13.528372363090774 236361.00516642001 6.5452777272414515 0.2024903765243612
0.41099409348484656 13.44779898475506 197827.22976935818 6.8904829873054885 0.20547461511672588
0.42760419109805753 13.37696839648769 166038.29541926272 7.250549575951738 0.20848875320152457
0.4446018114206317 13.314839986123413 139769.31299322774 7.6257322189177685 0.2115282690195562
0.4619834259865771 13.260504514769464 117948.03554998376 8.016988486382015 0.21459945617559953
0.4797522825653087 13.213094817828965 99789.53965708423 8.42501970006539 0.2177038996218311
0.4979123871965226 13.17191387677216 84620.29494341393 8.850261110910843 0.22083898523036927
0.516453319744537 13.136334320109611 71918.0435567888 9.29359734582799 0.22400827981494817
0.5353740537693874 13.105790470188943 61260.17239559371 9.75590828120021 0.22721462700883352
0.5546832168162431 13.079756785460225 52287.48786091133 10.238000864344594 0.23045934002214313
0.5743679773455441 13.05780210078751 44715.36949356295 10.740346928272393 0.23373912369609745
0.5944284130377959 13.039485540142739 38317.206611176254 11.264198945097375 0.2370602596278131
0.6148680217949339 13.02447226098917 32890.52475985181 11.810490074367346 0.24042430138356294
0.6356755286466744 13.012412334894668 28282.075260472382 12.380199759018092 0.24383288269929912
0.6568482032535992 13.002993843679008 24361.432681771206 12.974005907501368 0.24728382716684918
0.6783824207909582 12.995977312845438 21019.53662500369 13.593257782047354 0.2507821696769663
0.700274408730467 12.991046389922866 18165.194170455143 14.239143005605545 0.2543304272152848
0.7225111276277099 12.987996194567721 15723.84077411162 14.912851837279275 0.25793058549431824
0.7451022680471134 12.986652411964686 13628.758996107103 15.615398226391411 0.26158238093623326
0.76802667913461 12.986748073342309 11831.62277979111 16.34808027317976 0.2652880248139891
0.7912745163710048 12.988148496569796 10285.904076420875 17.112499601640987 0.2690520552809887
0.814850767678742 12.990682416864159 8952.572677002669 17.910112009852817 0.27287690639769163
0.8387376760307682 12.994145731038373 7804.234875859765 18.742259617570895 0.2767634483731868
0.8629202426642899 12.998429821654867 6811.025634621076 19.610334017615337 0.2807125801385665
0.8874066985919405 13.003382905649149 5952.765771508434 20.516399550682433 0.284730459962537
0.9121654393060823 13.008866202458726 5208.710291811832 21.46225133785709 0.2888201031661593
0.9371881101957475 13.014759271580566 4562.984310924653 22.44934385702497 0.2929811894306511
0.9624748354780983 13.020967499973361 4002.578796759939 23.479762977217227 0.29721799928349424
0.9879986839266676 13.027361862234761 3514.8011849667796 24.555903501184403 0.30153640055527786
1.0137452695132632 13.033814438836973 3090.6442332488646 25.679672427304464 0.3059377584856004
1.0397114555083518 13.040269140918 2720.054688501183 26.85310323812471 0.3104238634669189
1.06586556306483 13.046597687160144 2384.699876030139 28.079259882177556 0.3150031945773262
1.0922012160101542 13.052734913556149 2114.6685643120363 29.360154831670485 0.31967590023061887
1.118702361727364 13.058560410560263 1867.3996005518122 30.698631076111727 0.3244472583205787
1.1453362784916339 13.064012409867706 1651.0729476717263 32.0980004640312 0.32932472778293054
1.1721026236329488 13.069028511728153 1461.2527627761242 33.5602988388369 0.33430661768723763
1.1989609655699116 13.073489164031129 1294.6485775837862 35.09002577077948 0.3394062007706883
1.2259100072593396 13.077345059368573 1148.4273608954682 36.68915045638743 0.34461990374015844
1.2529091006877593 13.08050456767402 1019.6004462696731 38.362779205316656 0.34996249459198153
1.279953303370733 13.082945842843984 906.2077278586465 40.113213519309845 0.3554308980590221
1.307008322008882 13.084543156419107 806.3417820987054 41.94581142216523 0.36103900719612303
1.3340391841876582 13.085239064791669 718.1445614957005 43.86417804232284 0.3667894277074968
1.3610495948369434 13.085028741938007 640.2283342549496 45.87288363580293 0.3726892486157822
1.3879897334254305 13.08378277194469 571.4270754294758 47.97732398474442 0.37874876543911884
1.4148336959655348 13.081457251942416 510.5222448371568 50.18232901208155 0.3849739925938981
1.4415674387177912 13.078010506346667 456.59135572578265 52.492985166971096 0.39137119947005455
1.4681624336650283 13.073407202852891 408.7749186889255 54.91577969498656 0.39795243486807663
1.494574050775152 13.067534798571515 366.3116297216402 57.45690655568323 0.40472676667337615
1.520786615107453 13.060380672203369 328.6407899079591 60.122998184098854 0.41170397342236176
1.5467709014863174 13.05188471279625 295.10032725298686 62.92116496654361 0.4188946028250564
1.5724887525707534 13.0419940116321 265.2937917555228 65.85903849652297 0.42631003506713766
1.597901625236172 13.030652401709936 238.76129621835392 68.9448189946264 0.4339625514508269
1.6230109354842068 13.017838737486258 215.094506069223 72.18732732393418 0.4418654090025741
1.6477530373660092 13.00347660959812 193.96234632699478 75.59606208660716 0.450032921751399
1.6721016639471187 12.987533281781234 175.1298185823461 79.18085104367591 0.4584788319876189
1.6960380116141243 12.969970079864039 158.25661755000144 82.95212481747286 0.4672173954326643
1.7195176977170896 12.950748450734356 143.18606248206015 86.92251754586047 0.47626969782312917
1.7424993808136624 12.929799298972354 129.69259307814318 91.10349232752506 0.48564960197468715
1.7649810145482703 12.907136400123049 117.59867856110662 95.50939423851622 0.495380022000229
1.7868914969392018 12.882657806305016 106.75863010696314 100.15365108893049 0.505477506635971
1.8082424924145744 12.856417452732352 97.02081085338642 105.05292582309394 0.5159682690629541
1.8289467654688365 12.8282621922244 88.2746252050082 110.22377371747473 0.5268748671426849
1.8490273013606133 12.798285057149727 80.41655469048516 115.68399501504068 0.5382212605201565
1.868398825788519 12.766334110252917 73.33615176158365 121.45351579931196 0.5500356975533898
1.8870746731805041 12.732499643021916 66.96078634715785 127.55377827051498 0.5623480271592557
1.904996101015059 12.696666393769016 61.21568672033273 134.0075144143613 0.5751885498896105
1.9221349875850513 12.658832552963684 56.03752111348943 140.8403176341418 0.5885931846198231
1.9384434353762359 12.618927516426266 51.35747232024746 148.07988308006253 0.6026002042971628
1.9539361366729209 12.577065909279451 47.13360975503806 155.75456570579433 0.6172448247734356
1.9685455886117091 12.533117221919158 43.31051730923839 163.8982036940169 0.6325752467623712
1.9822578095629204 12.48710208117695 39.85389980472171 172.54479471220904 0.6486337156761643
1.9950401933284283 12.43900103380179 36.72178510474163 181.73329376492626 0.6654721934343373
2.006873119022112 12.388825313447985 33.882436810776134 191.50593054188823 0.6831457781149775
2.0177146302597664 12.336531669840134 31.309376121870113 201.90878604824763 0.7017137644540902
2.027543408043154 12.282133884065795 28.972564310554386 212.99164443748953 0.72123818357832
2.0363459962016544 12.225643283948227 26.852726507768782 224.81047668231275 0.7417908393480871
2.0440832952078396 12.167030128339228 24.926569471368428 237.42607240506854 0.7634475102352302
2.0507354184328133 12.106300718959845 23.17367482805189 250.9055865745516 0.7862915897414021
2.056300641353788 12.04353244865139 21.580726381504903 265.3223671934848 0.8104118802372748
2.060739906915694 11.978662594062712 20.13035186183138 280.7577639259692 0.8359066130010191
2.0640363050994703 11.911744590714598 18.810186391090916 297.3020841680295 0.862884426230758
2.0661855803371343 11.842820070976716 17.60966292939706 315.0556809149501 0.8914654852387335
2.0671712453419584 11.77191363389796 16.513958439231438 334.1278078272269 0.9217748656603685
