M[M_sun], R[km], Lambda[1], P_c[MeV/fm^3], rho_c[fm^-3]
0.24162668629717493 15.618656898711224 2160425.4255784233 3.5677272577965504 0.1711233750220791
0.2536419289625021 15.277376290179355 1723138.957376457 3.784802270505234 0.1738879569745082
0.2660378220172869 14.981277820236684 1383041.6177978364 4.011365043687855 0.17666622075662342
0.2788112176657631 14.723609703401854 1116536.0079781462 4.247672208345568 0.17945686463030755
0.29196517321056503 14.498475943213752 905987.9937908449 4.494348657507333 0.18226644953979726
0.30549942869237634 14.301279775126105 738701.5184143513 4.751548283527718 0.1850906482168171
0.3194142314298723 14.128228488531759 605156.3008324873 5.019956181180016 0.18793614121118415
0.3337108453256472 13.976057694232837 497723.0464457617 5.2997925154946 0.1907994755242413
0.34839076183432804 13.842108912535396 411057.6809354107 5.5917903877516855 0.1936870387004442
0.3634523807671716 13.724053896271453 340694.7963391056 5.896111403892004 0.19659378904710664
0.3789041473632346 13.620066673343787 279436.4422705467 6.213621954946506 0.19952745605518266
0.3947338617372021 13.528532423135466 236439.91934163324 6.544583378383562 0.20248428802289686
0.4109570392073447 13.44795097825448 197906.0426072324 6.889690207505324 0.20546786347127055
0.42756415116746277 13.377120390063656 166115.1382375149 7.2496509255095045 0.20848131889672034
0.4445561402486963 13.31502080700777 139834.25794404076 7.6247301813985064 0.21152029215659487
0.46193635472217826 13.2606288802469 118002.83869481551 8.015865583343356 0.21459076961276738
0.47969888914282116 13.213212686475337 99831.33737493592 8.423767174869477 0.21769448238335593
0.4978533220872578 13.172046077936914 84661.29525874229 8.848883581637356 0.22082901132985625
0.516388853447278 13.136458969121296 71956.28384615036 9.292072519096386 0.22399754493969581
0.5353054604306412 13.105902122024876 61291.03830825822 9.754225817804906 0.22720310797384952
0.5546102991888426 13.07984741838581 52313.3166699427 10.236152772663335 0.2304470508981011
0.5742904867559926 13.05787397268642 44742.1042283212 10.738335299384309 0.2337262084155113
0.5943456290267037 13.039566555223729 38337.31771765371 11.261996501936581 0.2370464987230884
0.6147784746960084 13.024532263568755 32911.84322464635 11.80808380533688 0.24040966725308646
0.6355787441975658 13.012459539102725 28303.37696141134 12.37757584073431 0.24381734628443832
0.6567484311634327 13.003033015313008 24379.21241244546 12.971176389452769 0.24726765480198187
0.6782770158713493 12.99599744112729 21034.8584333675 13.590182483137347 0.25076504723655724
0.7001631722311723 12.991072823478428 18042.754792597694 14.23580543578772 0.25431232073613297
0.7223935190886822 12.988001377624926 15735.35953323842 14.909234446957523 0.2579114589881015
0.7449789865341508 12.986653783956907 13639.627773377475 15.611517634175799 0.2615625459229256
0.7678959468192794 12.986764272180846 11839.986136161646 16.343883925960846 0.26526710707558304
0.7911378849190431 12.988129388554437 10292.527496709508 17.107966437782796 0.2690300120402044
0.8147101558195959 12.990654581816306 8960.012610442207 17.905219571315662 0.27285369212665894
0.8385881892463593 12.994127249721206 7809.994144525366 18.737029604633374 0.27673941916982026
0.8627661428739066 12.99838485557503 6817.157511236777 19.604698425019425 0.28068729678877086
0.8872386226572994 13.00332772587901 5958.062828779579 20.510331253114874 0.28470386774169154
0.9119974088881607 13.008822807317955 5213.304883745752 21.45572135247103 0.288792143659735
0.9370137252217698 13.0147182138187 4567.191988538196 22.442379385936448 0.2929522629827179
0.9622899153869804 13.020912290283846 4006.5358343793 23.47227661813011 0.29718759495482744
0.9878112486262436 13.027314491095783 3498.827968711072 24.547860014784714 0.30150444760223416
1.013551306054745 13.033769101167092 3093.5213272490587 25.671102949596783 0.30590468722073827
1.0395116995291696 13.040226082240492 2722.728658122323 26.84390300168525 0.31038910663033303
1.0656621103523165 13.046558431265902 2399.2904422710635 28.069385818961184 0.31496666612391705
1.0919894409797462 13.052677437068912 2116.6915512195337 29.34964193803413 0.3196380602684776
1.1184837656822204 13.058515950854614 1869.4775792058467 30.687353834159513 0.32440747711884516
1.1451113809248785 13.063976806530409 1652.8613354989402 32.08599568135931 0.32928348053209344
1.171871569097667 13.068994058275655 1462.8379780588202 33.54742569562138 0.3342632338673247
1.1987241995295332 13.073442400543614 1296.0761233996955 35.07622350588728 0.33936056042249224
1.2256679812517277 13.077313754928907 1149.6207181146913 36.67445912410716 0.34457251177639164
1.2526617204280914 13.080484394084806 1020.7085591977989 38.34709694395004 0.3499129978715398
1.279700166389287 13.082929943228791 907.1708209649183 40.0964470336921 0.35537902815384176
1.3067409517120043 13.084520543271593 807.1838563911849 41.92795858001957 0.36098503534962295
1.3337764973900945 13.085233603053714 718.9091090116566 43.84503867614644 0.36673253561306923
1.360781715364045 13.085039565283742 640.9465567325162 45.85249785023454 0.37262996952054894
1.3877115310999306 13.083780998704631 572.1097627994283 47.955604702910065 0.3786869453518815
1.4145660928412855 13.081498462054421 511.1053385560126 50.15903806586869 0.3849087287958943
1.441288184850887 13.078052237630533 457.10664788175836 52.46815953137216 0.3913030375760617
1.467880833549301 13.073460975622462 409.24321414460036 54.88930944067051 0.39788118170402925
1.4942878229829908 13.06760134802974 366.7353974393041 57.42867284869322 0.40465221413151775
1.5204983713464078 13.06046639634328 329.02073804339 60.0928724885757 0.41162589723482856
1.546480699533454 13.051988294458956 295.45501815059515 62.88900816789371 0.4188127612159136
1.5721966333212067 13.042115937746159 265.6221908542377 65.82469993617174 0.4262241672698272
1.5976191114792082 13.030798398583833 239.0501620634717 68.90813540641751 0.43387237607644874
1.6226998564731185 13.017961393742985 215.36480407810453 72.14812166101883 0.4417706222426948
1.6474580876742297 13.00366142163693 194.20923634666266 75.55414222627635 0.449933195397102
1.6718070367821596 12.987736485228885 175.33512552439902 79.13622725629895 0.45837472520219774
1.6957454690732428 12.9701990981585 158.45453522914934 82.90436171064829 0.46710763595229016
1.7192115942720538 12.95096458309924 143.37671711775852 86.87136923812443 0.47615387207155324
1.7422133883121989 12.930078225751535 129.861085281423 91.04893752913917 0.48552823762917796
1.7646939070136847 12.907439922590811 117.74963487710724 95.45090738181649 0.49525168877714926
1.7866219027364745 12.883020010419168 106.88383781544134 100.09118124707354 0.505342699427421
1.8079624034283976 12.856777147143829 97.14553355498096 104.98614904605947 0.5158264684369518
1.828675385410219 12.828660269326427 88.38358159184503 110.15230445954768 0.5267253914241343
1.8487574895260486 12.798708668958932 80.50973869220026 115.60722004625286 0.5380626699276458
1.8681468824533034 12.766818927959516 73.42582423575753 121.37126323459765 0.5498682614738336
1.886820386811972 12.732987102351302 67.04865401137921 127.46573380185716 0.5621715535059489
1.9047466820775887 12.69718877981215 61.295236479109555 133.91320188630758 0.5750023476754524
1.92189351631557 12.659393856277006 56.109009283235615 140.73901877723347 0.5883958159245574
1.938211679446401 12.619522883231095 51.42361258692047 147.97099124361583 0.6023907454320508
1.9537135069314773 12.577707624148179 47.19366714585834 155.6377732614686 0.6170234914003498
1.9683345967609642 12.533794016409711 43.36440201450558 163.772787626072 0.6323409454061213
1.9820585273241718 12.487818846420451 39.90030894472527 172.4096307983718 0.6483841502877804
1.9948533533958865 12.439760382994505 36.7669968650513 181.58787677796408 0.6652073143762649
2.0066902512402653 12.389609052500118 33.92555566639511 191.34931612553632 0.6828642305003941
2.017549841333264 12.337372287311767 31.344909457882203 201.7399324649926 0.701414065999845
2.027394499839728 12.283010031652717 29.00863971499363 212.80982710813265 0.7209201050383955
2.036212722018376 12.226567682378091 26.885637439791168 224.61401265098547 0.7414512465927926
2.0439656395746884 12.167998245372187 24.956442057560746 237.21400451218662 0.763085914996978
2.0506349843832323 12.10731745051869 23.20099854976174 250.67624609851003 0.785905482191837
2.056210432167397 12.044575126413159 21.60531094069376 265.073952595788 0.809998658762593
2.060675487768438 11.979771563333689 20.15453749875957 280.48899978507023 0.8354657772556389
2.063995913374053 11.912915421569613 18.83238694120362 297.01049440380837 0.8624119985653407
2.066160822979892 11.844026864607244 17.628219747658594 314.738923946876 0.8909584196341476
2.067163060659029 11.77316401683938 16.531235838273794 333.7837943931938 0.9212315239209123
