M[M_sun], R[km], Lambda[1], P_c[MeV/fm^3], rho_c[fm^-3]
0.24162668629717493 15.618656898711224 2160425.4255784233 3.5677272577965504 0.1711233750220791
0.2536459290481054 15.277232807226108 1723250.9915991835 3.7848592017224987 0.17388866659466687
0.2660438315768418 14.981184119600524 1382955.9196487942 4.011484725100822 0.17666766703586798
0.27882243016326114 14.72336671564078 1116307.2055413062 4.2478586896131745 0.1794590275319905
0.29197904239157113 14.4982432205688 905756.9201297723 4.494606832712403 0.18226932438062507
0.3055166192576496 14.30108552938801 738528.1959606517 4.751886919688908 0.18509430613365477
0.31943657797592845 14.127965636507918 604958.3186727045 5.02037777347658 0.18794051539398068
0.33373673898010603 13.975809695913634 497541.5529954531 5.300308164193894 0.1908046672510273
0.34842121104357465 13.841857033112547 410900.9735755013 5.592401381018253 0.1936929502283767
0.36348763450115623 13.723805798030021 340563.7069618922 5.896831469589467 0.19660055205651936
0.3789442302667715 13.619831204368593 283222.78874632035 6.2144598078977635 0.1995350962652575
0.39477962618717344 13.528281613191204 236332.75901364363 6.545538149396747 0.20249266007485003
0.4110080169846763 13.44771155043741 197793.6369186454 6.890780329731246 0.20547714740959855
0.42761995059135277 13.37692596209265 166015.98768068381 7.250886629709102 0.20849154156087976
0.444618330284291 13.314792264781204 139749.68940711 7.626108052872072 0.21153126089949292
0.4620022048857883 13.260437678943852 117924.2850399567 8.01740965722359 0.2146027142725611
0.4797725814836184 13.213064124263619 99766.33661990943 8.42548949302198 0.21770743180810614
0.497933421911467 13.171880819833774 84603.36106741082 8.850777794150424 0.2208427262377856
0.5164769278113729 13.136303965413276 71906.14175255735 9.294169282537062 0.22401230628503616
0.5353997034051732 13.105748719246302 61249.715174286415 9.756539350459052 0.22721894764302397
0.5547111010052225 13.079719948883406 52275.63132792274 10.238688428248134 0.2304638770752158
0.5743981663038743 13.05777095837692 44704.488331962886 10.741101475696277 0.23374396812428833
0.5944590840202065 13.039464035494037 38305.1524754936 11.265025072952925 0.23706542128960445
0.6149018631656843 13.024447479339 32882.70694479513 11.811392664566918 0.24042979063791484
0.6357100456664949 13.012392502214169 28274.55161486269 12.381183998109844 0.24383871045199484
0.6568854371321777 13.00299448669422 24355.53175055993 12.975067275601985 0.24728989351167782
0.6784220257027062 12.995969168470607 21014.32578118175 13.594411354167846 0.25078859245747276
0.7003164785578955 12.991047734066374 18160.744487735723 14.24039496901104 0.25433721917786173
0.722555867934265 12.98798630793516 15718.344961147788 14.914208776861933 0.257937760145394
0.7451492050330781 12.986650578882426 13624.617989798051 15.616853907828403 0.2615898214141475
0.7680747053417332 12.986764794063143 11827.807812684583 16.34965441412602 0.265295871511798
0.7913257663916224 12.98814585837943 10282.445210506068 17.11420010499776 0.26906032425297394
0.8149037802253691 12.990681417675075 8949.12911798825 17.911947302582824 0.2728856147304658
0.8387934732629306 12.994156063565862 7801.718799704376 18.744221558413834 0.2767724624762246
0.8629775037131149 12.998436322024242 6808.953993959455 19.612448123060787 0.28072206479640366
0.887465629371465 13.003383996925871 5950.582169230482 20.518675999312904 0.2847404357134046
0.9122280407127662 13.008883418411257 5206.990237322839 21.464701005405374 0.2888305919332092
0.9372541038567133 13.014778449570878 4561.960737138833 22.451956537420557 0.29299204101757975
0.9625427630286503 13.020987088162856 4001.2810966639277 23.48257146665986 0.29722940539360426
0.988067276220655 13.027372013904474 3513.535451267079 24.558921023553538 0.3015483877391653
1.0138168757697843 13.03382999424998 3089.513608611347 25.68288729998716 0.3059501652984325
1.0397865194150668 13.040296005135508 2719.023729546764 26.856554774828933 0.31043690275107083
1.0659432165139313 13.0466155116914 2396.2756332682125 28.082964245129386 0.3150168986266655
1.0922807578288978 13.052739370813066 2113.7258972530944 29.36409888917249 0.3196900964159624
1.118784318979307 13.058581963039366 1866.6815238501113 30.70286193033654 0.3244621829330092
1.1454218547102848 13.064044771950776 1650.4829972516302 32.10250430321037 0.32934020253073987
1.1721894136247184 13.069041191481265 1460.7629834097086 33.56512850882525 0.33432289417305816
1.1990502462571702 13.073494437202775 1294.2592887842873 35.095204074865855 0.3394233240184605
1.2260019494547973 13.077361941193832 1147.9566157760569 36.69466236378837 0.3446376843002089
1.2530007351947234 13.080514176732713 1019.2052470745186 38.368647091878074 0.3499809720042294
1.280049254518738 13.082954908341177 905.7972253851357 40.11950410176577 0.35545035901959293
1.3071034962567187 13.084552359003998 805.9676938844152 41.952509649562586 0.3610592569523222
1.3341380768618718 13.085237240513154 717.8295261993588 43.871359038522094 0.36681077334193873
1.3611504460759591 13.085028161953344 639.9652203139158 45.88053234991247 0.37271149003741344
1.3880914796464985 13.083778744394186 571.1804898254588 47.985473097735635 0.3787719604452827
1.4149385006880428 13.08144416824221 510.29810949616086 50.19106791363593 0.3849984799591003
1.4416714776681383 13.077999430832147 456.3698140759005 52.50229998003504 0.3913967744567693
1.4682691411772333 13.073384927328773 408.5777992079058 54.925711679109845 0.3979791699831081
1.4946811299110465 13.067504922175525 366.14018574085213 57.46750031321123 0.4047547400298973
1.5208946066501319 13.06034538896001 328.4919887703796 60.13430195953448 0.4117332692004481
1.5468805795042537 13.051846968668649 294.99353824474247 62.93323097578702 0.4189253117778712
1.5725983602679212 13.041948726857154 265.1775694490833 65.8719232893167 0.42634225507766466
1.5980121112641095 13.030599657644872 238.6360697297387 68.95858385394006 0.4339963881446314
1.6231221275101106 13.01777620611029 214.99582328756196 72.20203870648032 0.4419009764227171
1.6478629787777623 13.003409860886814 193.8719199858823 75.61179210919916 0.4500703431023703
1.6722117934730754 12.987456787731416 175.04565047231847 79.19759584777273 0.4585178974240038
1.696147910162461 12.969890229893824 158.18758294778056 82.97004784144646 0.46725858248955526
1.7196276119944214 12.950654941144249 143.11814185514973 86.94171109047751 0.47631316175828314
1.7426161243205969 12.92972193218395 129.6341655848376 91.38531819997742 0.4860937208213548
1.743791304030086 12.909430449275932 127.10824826372502 98.31911099717472 2.837068000202465
