M[M_sun], R[km], Lambda[1], P_c[MeV/fm^3], rho_c[fm^-3]
0.24162668629717493 15.618656898711224 2160425.4255784233 3.5677272577965504 0.1711233750220791
0.2536389487132511 15.27742839835299 1723191.2084040996 3.7847463282906317 0.1738872596817906
0.26603080154476166 14.98147544110724 1383257.1795762423 4.011247443854956 0.1766647996320455
0.27880212769050605 14.72376272435472 1116618.38152711 4.247488974230862 0.17945473939070486
0.29195153188583167 14.498710599404733 906151.876830389 4.494094982896543 0.18226362481413133
0.3054827157130682 14.301498636302309 738929.3801363359 4.751215557301959 0.18508705413856136
0.319392715454657 14.128473937386397 605280.6716994231 5.019541954493203 0.18793184344943165
0.33368521953907876 13.976324260214533 497945.71405846084 5.299285885632473 0.19079437460218068
0.34836097357078394 13.842356607813665 411215.6745617311 5.591190091944477 0.19368123067337378
0.3634167631510889 13.724335572525657 340841.95571719436 5.895403958937747 0.19658714457438495
0.3788627229785038 13.62036090170539 283482.33238097536 6.212798802939006 0.19951994990001382
0.39468949947187165 13.528767887574023 236568.32706487647 6.543645376113995 0.20247606301017174
0.41090742365146826 13.448177252281805 198003.8876360995 6.888619251259548 0.20545874275847217
0.42750795849960616 13.37735343967611 166222.58605865377 7.2484369694288455 0.20847127614917535
0.44449613017788847 13.315201101500257 139913.250320891 7.623376582709022 0.2115095166406655
0.4618696952430172 13.260834338966674 118084.3598861799 8.014348737854423 0.21457903558659358
0.4796260445368749 13.213394325149137 99906.75176930137 8.422075259114061 0.21768176154213006
0.497774696869813 13.17220722848288 84722.04360322587 8.84702283559281 0.22081553873345813
0.516304147445479 13.136634493454375 72012.56091226214 9.290012837768895 0.2239830446547441
0.5352132371594823 13.106030631519173 61338.14384952633 9.751953241640503 0.22718754871448335
0.5545107886774252 13.07999477027458 52359.8374290154 10.23365249411695 0.230430400018344
0.5741830060959447 13.057971900642341 44780.40413497345 10.73561818296818 0.23370876368646243
0.594234350814258 13.03966304210043 38371.397929359766 11.259021697239731 0.23702791208950952
0.6146592809690612 13.024608238171972 32663.329072816832 11.804833745885539 0.24038990146901784
0.6354503519436403 13.012529109673855 28327.05499684522 12.374031864435768 0.2437963621378011
0.6566132028487911 13.003086952264262 24209.631128023448 12.967354770328026 0.24724581199419352
0.6781344537194357 12.99603205141186 21055.17656535009 13.586028969155102 0.2507419215834971
0.7000124665034578 12.9910929762569 18196.041876771807 14.231297765880948 0.2542878664068918
0.722234934026808 12.98803808986691 15751.723249551871 14.90434893013538 0.25788562741905335
0.7448120950227591 12.98665463634922 13653.474767263113 15.606276712329018 0.2615357578068857
0.7677208460896536 12.986751862789221 11852.450483088369 16.33821664838038 0.26523885711824674
0.7909552368796375 12.98810915525442 10235.347254275684 17.101844373862527 0.26900024251646487
0.8145162896423513 12.990638728642269 8970.044256057254 17.898612406046652 0.2728223415998925
0.8383879451581663 12.994088863905462 7819.065178936057 18.729966638566044 0.27670696849521764
0.8625583575296555 12.998349762707363 6825.209267758766 19.597087853667936 0.28065315295485294
0.887021279820818 13.003296053353797 5965.058206346075 20.502136463264506 0.28466795690194496
0.9117705838541958 13.008783292704987 5219.632834568845 21.44690322440676 0.28875438698897893
0.9367782323866527 13.014665899768044 4572.902547027424 22.432974644728933 0.29291320104198953
0.9620441740630189 13.020859825603294 4011.264821157269 23.462167284370523 0.297146537946654
0.987558615656237 13.027250018782137 3522.599712468351 24.536998526678634 0.3014613000661792
1.013294424175866 13.033711682000531 3097.521174062502 25.65953133976857 0.3058600301498449
1.0392385512697793 13.040165771101845 2726.1408765276283 26.83147986002459 0.31034217423816857
1.0653843110353047 13.046488600453225 2402.5300487065138 28.05605302072871 0.31491734230571017
1.0917003355596067 13.052617801344125 2119.555510210624 29.335446723315624 0.3195869662113972
1.1181870420492996 13.058454816058532 1872.0601805765853 30.672126796542187 0.32435376275696265
1.1448084469322326 13.063919078417063 1655.023374679887 32.06972999260729 0.32922742182501985
1.1715598981037196 13.068934771875389 1464.846707592022 33.530044326862566 0.3342046568625134
1.1984099579114245 13.073404942860492 1297.9311236812375 35.05758795147415 0.3392989376961582
1.2253406673717258 13.077269900878607 1151.2656646499452 36.65462344425254 0.3445085249436779
1.252326738646603 13.080450656651115 1022.1641999950431 38.32583302250761 0.3498456384299252
1.2793583473362653 13.082902325827849 908.5338639346957 40.07381028109721 0.35530899760376355
1.3063922331479145 13.084505444749379 808.393236544164 41.90385546810552 0.36091216799070136
1.3334207047094286 13.08522539543066 720.0129127175603 43.819199099102974 0.36665572702685084
1.3604202655994018 13.085049371617018 641.9962154671954 45.82497592876008 0.37254993951147164
1.387344495787593 13.08380737950079 572.9967534529876 47.926282939163954 0.3786034861469888
1.4141915432063235 13.081539713487482 511.8875939365896 50.127595100667925 0.3848206221423154
1.4409161549811043 13.0781248503376 457.840741196621 52.43464525775639 0.391211019937426
1.4674981194108563 13.073535387820995 409.88403593801274 54.853575535623094 0.3977849924582443
1.493901558257902 13.06769830601689 367.3260277241806 57.3905589785006 0.40455157251531315
1.5201090777644335 13.060583751358605 329.5528878382598 60.05220523384201 0.4115205006903868
1.5460877439566627 13.052128023600812 295.93888205211357 62.845599841328195 0.4187022835736894
1.5718012574534108 13.042281337484523 266.04940994814297 65.7783472812126 0.42610825674998826
1.597218134525079 13.030978826410873 239.44349282989984 68.85861816330339 0.43375065308930344
1.6223098491827814 13.018207318313713 215.71865042056083 72.0952009852716 0.4416426769661276
1.647061279146788 13.003901107078736 194.53682276695665 75.49755894270092 0.4497985851064046
1.67141544627377 12.98801217166406 175.6310286696866 79.07589233417613 0.4582337748453244
1.6953498888804786 12.970511138184817 158.7335872816448 82.83989356699144 0.4669594883459284
1.718814576380019 12.951306351232365 143.61054390146606 86.8023333402477 0.4759975397291704
1.7418300747423447 12.930472111033097 130.081298832283 90.97530513394139 0.4853644326529733
1.764310474144897 12.907863297981999 117.95029063678889 95.3719696023281 0.49507848166300206
1.7862384401752538 12.883471490519094 107.0714128777163 100.00686936349895 0.5051607580404346
1.8075830394451418 12.857263627669221 97.31093601829414 104.8960261111265 0.5156350921957167
1.8283147396393957 12.829212189910198 88.53950289194918 110.05551283115487 0.5265224040445468
1.8483928024963563 12.79927911375863 80.6493298096001 115.50360797567235 0.5378486431436033
1.8677911583722706 12.767435673310686 73.5494110672814 121.260261238307 0.5496423020870794
1.8864729306808863 12.733650945201655 67.16180321931058 127.34671906255588 0.5619326918738066
1.9044094149845878 12.697894819781745 61.400414890586006 133.78593005147656 0.5747510735559421
1.9215489379024675 12.660089519995683 56.202863832531506 140.60232235866016 0.5881294793181557
1.937903703245504 12.620357022619833 51.51325402991751 147.8240521848826 0.6021081008419035
1.953408630087601 12.578541502484143 47.271045473736876 155.48017666019524 0.6167248300652947
1.9680479782811364 12.534702087154324 43.438067953051984 163.60308412977574 0.6320231868046882
1.9817880192766189 12.488779334944907 39.97037998353365 172.22725345592633 0.6480474104656809
1.9945954519657216 12.440775388183921 36.82886520647642 181.3916698904843 0.664849920810158
2.0064522106641483 12.390681493386047 33.9818562929371 191.13800644017857 0.682484356544748
2.0173362309764387 12.338522955686425 31.40132859423433 201.51211549191854 0.7010097133449299
2.027193534900998 12.28420088395288 29.057238790067238 212.564492735342 0.7204908566481044
2.036019168516171 12.227783708655455 26.92902866295811 224.34895840353607 0.7409930940160296
2.0438059822821395 12.169313341936505 24.996181077714155 236.92790681902977 0.7625980921487638
2.0504980548866505 12.108695909314235 23.239216471760066 250.3664189713734 0.7853831836884682
2.056096972370947 12.046009466139534 21.639723737039773 264.73870993154685 0.8094407954921075
2.0605844990427875 11.98126941112871 20.184933568018163 280.1258823205861 0.8348692614588616
2.0639320966076684 11.914479046540624 18.860541216372305 296.61716424887135 0.861774733237007
2.066123165230112 11.845652233449277 17.654761359031525 314.31166010506723 0.8902744542597416
2.0671540200942338 11.774855275564711 16.556791567479287 333.31978093188195 0.9204986517239041
