M[M_sun], R[km], Lambda[1], P_c[MeV/fm^3], rho_c[fm^-3]
0.24162668629717493 15.618656898711224 2160425.4255784233 3.5677272577965504 0.1711233750220791
0.2536346379122332 15.277495633934343 1723553.225142831 3.7846485530691307 0.1738860409608229
0.26602039264485483 14.981694207932314 1353800.3007021712 4.011041910010892 0.17666231587683776
0.27878489110446897 14.724072085879115 1116970.5038677128 4.247168737688695 0.17945102512940192
0.29192802419457486 14.499060393019564 906486.5772816441 4.4936516501851065 0.18225868820149732
0.3054524300671145 14.30192454771546 739264.070739157 4.75063408656423 0.1850807731448403
0.31935532056691507 14.128897462617795 605601.2214003573 5.018818072769015 0.18792433289715052
0.3336402661727583 13.97673238333958 498203.38345662894 5.298400548503093 0.19078546072632777
0.3483092427140437 13.842779542015956 411483.6644894494 5.590141099531263 0.19367108138320807
0.3633561256139238 13.724769899919572 341089.4551830978 5.894167760150164 0.19657553393376442
0.37879497320154937 13.620761716665564 283712.40705789893 6.21136045349827 0.19950683388499976
0.3946115638788648 13.52919144067056 236790.65838170832 6.542006379929099 0.2024616912278056
0.41082042007938957 13.448574082682189 198194.8240852848 6.886747988775684 0.20544280630191478
0.4274117301184147 13.377722999348746 166381.77084625248 7.246315899664128 0.20845372908259543
0.44438937332960415 13.315581132463006 140071.14860535026 7.62101157777584 0.21149068968070417
0.4617527689628923 13.261160931916121 118213.01120889462 8.011698574482915 0.21455853443034992
0.47949846788106615 13.213721137586738 100020.43944697813 8.419119294271958 0.2176595368188805
0.4976367449462178 13.172495872127918 84828.48044895723 8.84377197633519 0.22079200112344766
0.5161537831589459 13.136854478273207 72109.28023554548 9.286414512115595 0.22395771221781544
0.5350532393612129 13.106259145999132 61426.06268143158 9.74798307913034 0.2271603668804093
0.5543398422607106 13.080200323803687 52432.323011942535 10.229284644642279 0.23040131184474633
0.5739976564513077 13.05817893968989 44845.042991928036 10.73087162878689 0.23367828933832008
0.594038520122898 13.039815069757054 38429.94430336152 11.253825110480669 0.2369954437213999
0.6144490908748365 13.024749484545461 32989.49776797697 11.799156462545511 0.2403553741139724
0.635227614130687 13.012643325286916 28372.858595696925 12.367841308949485 0.24375970739940922
0.656372104883654 13.003167625561863 24442.280431234754 12.960679368389611 0.24720765813409093
0.6778855400653291 12.996104090759715 21092.42750135489 13.578774004663648 0.25070152788493
0.6997489534934671 12.991137804161305 18228.088204769276 14.22342438418037 0.2542451529269057
0.7219578662668527 12.988055214192626 15778.556554216146 14.89581578197197 0.25784050944811887
0.7445191195221412 12.986661972626935 13677.642724509102 15.597122987997246 0.261488970040007
0.7674151569357508 12.986729496203695 11875.398240426042 16.32831849449605 0.26518951730367607
0.7906346438743164 12.988087695299846 10323.549759292073 17.091152172829123 0.2689482499635225
0.8141828957563237 12.99058968837166 8987.966949009533 17.887073253143598 0.2727675891444564
0.8380382860159314 12.994034187081638 7835.477457220976 18.717608676126808 0.27665009174358796
0.8621982714255942 12.998280959911567 6839.249036821115 19.58379687721873 0.28059352472570553
0.8866404998345541 13.00321248387186 5977.521144095966 20.487825566805807 0.28460524433472334
0.9113736154027424 13.008681620780017 5230.726573511529 21.431504145288606 0.28868845259156795
0.9363708325519685 13.014575562531324 4583.195498856912 22.416551491543864 0.29284498861358416
0.961618125214182 13.020749184056172 4020.0534502317464 23.444514165331174 0.29707484338498247
0.9871160288457161 13.027141119382417 3530.5228856220047 24.51803245517023 0.3013859568676932
1.012832955988624 13.033593452976508 3104.473836909493 25.63932567974736 0.30578205261643265
1.0387641054262922 13.040034286263769 2732.610812840244 26.80978785578181 0.3102602257522087
1.0648967704637191 13.04638063758764 2408.306756506026 28.032773264433196 0.3148312203643592
1.0911990028217986 13.05250165860471 2124.5833356160865 29.310661657323475 0.3194977551919335
1.1176713656426904 13.058342604374019 1876.3987087564153 30.645540844808462 0.3242599790894952
1.1442807247873892 13.06381963851456 1659.0743977696534 32.041218586500605 0.32912881829149293
1.171015065269135 13.06884178022165 1468.4824843566391 33.4996984277097 0.3341023880535751
1.1978452009152698 13.073302097700433 1301.1735006901663 35.02505326290105 0.339191354301221
1.2247682951395211 13.077200524465187 1154.1230043897729 36.619994290664046 0.34439681665467914
1.2517456802164568 13.080402596149758 1024.8197448522976 38.28871146762997 0.3497280454819268
1.2787602523541748 13.082853759426376 910.8988267690461 40.03429299686442 0.355186744328219
1.3057824795017703 13.084474427005922 810.4866563986552 41.86177930874283 0.36078496538643773
1.3327987185660946 13.085225140278988 721.9633255368866 43.7740929343909 0.366521648178136
1.3597889916309294 13.085062717344412 643.7315413917224 45.776934168033904 0.37241024059725986
1.3867021834375903 13.083844809280938 574.55484515201 47.87510064747438 0.3784578048228371
1.413532678205373 13.081587468195098 513.3204875221107 50.072711817196456 0.38466683313376543
1.440257302464734 13.078226965839256 459.095535067295 52.37614800530568 0.39105040839922284
1.4668254348166494 13.073653341427837 411.039394721346 54.791205645395806 0.3976171039307326
1.4932266463973243 13.067866081163732 368.3524698855714 57.32403684641618 0.40437591743613804
1.5194280237575506 13.060789715282107 330.48770070066485 59.98122844786314 0.41133655151489545
1.5454017042003052 13.052367490043245 296.7790456259303 62.769841122100935 0.4185094716101707
1.571111718985843 13.04256430109546 266.8112262154315 65.69745221525017 0.42590596867918895
1.5965290432845998 13.031318033754618 240.12120909360848 68.77220270541612 0.43353822713405954
1.6216249639877862 13.018587569625092 216.33620442518045 72.00284870408824 0.44141939867289387
1.646356575825936 13.004323503295764 195.0994025462357 75.3988179798796 0.4495636826958471
1.6707216419399806 12.988491065433307 176.14332156110515 78.97027204423419 0.45798641408394963
1.6946528413606359 12.971041576587869 159.19213336727182 82.7273995135508 0.46670097733875765
1.7181435116876598 12.95193733746933 144.03072980905264 86.68187264860177 0.4757247555303803
1.7411459723283085 12.93112695331008 130.45895122521293 90.84682762819482 0.4850786174935571
1.7636329035724834 12.908577980864049 118.30361399746428 95.23423967370734 0.4947762714460095
1.7855697307141718 12.884248278071857 107.39154838111534 99.85976714984609 0.5048433178452206
1.8069142321085305 12.858091028873712 97.59594662002344 104.73858495186518 0.5153004258819328
1.8276636126461483 12.830135681187842 88.80202415459816 109.8866481446981 0.5261682680435528
1.8477442753651379 12.800250149760503 80.89254501858004 115.32285015739194 0.5374752598657637
1.86716640390278 12.768507352857007 73.77187160672712 121.0666178143193 0.5492481150382387
1.8858653748380427 12.734798231379202 67.361591256082 127.13910467081698 0.5615160114461708
1.9038068767506307 12.699096117514287 61.58257875856952 133.56336634823904 0.574310803708811
1.9209849955151674 12.661436285666934 56.373609014469345 140.36387981911759 0.5876649025760117
1.9373539870658765 12.621763593178576 51.66382569249456 147.56775311158648 0.6016150968227444
1.9528950425925444 12.580086778717513 47.41235106460319 155.20529794184992 0.6162039073782827
1.967547984883624 12.5363047413362 43.56795299488194 163.3071008902643 0.6314689777147905
1.9813121960055426 12.49046898264114 40.08857913323681 171.90917776370011 0.6474601184776619
1.9941616573270022 12.442593940921874 36.93645289833223 181.0494884394826 0.6642266325525439
2.0060335658732558 12.392555954292813 34.08010458182756 190.76950128310014 0.6818218904043135
2.0169382625080376 12.340466824585219 31.49197571728731 201.11484023710136 0.7003045889556019
2.026837201834463 12.286271387803124 29.141325813105237 212.13574565108425 0.7197392606382429
2.035708142443826 12.229982961798896 27.00636408244556 223.88678790848473 0.7401942213126144
2.043527947913176 12.171603213959658 25.067585117838938 236.42820226300068 0.7617447073091766
2.050253447508202 12.11108003313606 23.304115224990802 249.82622985425502 0.7844725469407612
2.055893697794077 12.04850411039404 21.700510150329208 264.15423663449087 0.8084681979686236
2.0604212046093084 11.983876042456645 20.241323509177167 279.49268934932076 0.83382882645043
2.0637523134153932 11.917508961594786 18.92104531787386 295.98405377195013 0.9396462672237246
2.0651662445760866 11.850520098967015 17.786523556735162 314.06724643901146 1.1313293710317354
