M[M_sun], R[km], Lambda[1], P_c[MeV/fm^3], rho_c[fm^-3]
0.24162668629717493 15.618656898711224 2160425.4255784233 3.5677272577965504 0.1711233750220791
0.25364418213270007 15.277288028939255 1723227.5946682522 3.7848227224202846 0.173888211897763
0.2660405894205154 14.981252226802923 1382976.5499134567 4.011408037628128 0.17666674031301832
0.27881584240662605 14.7234684957503 1116396.1039472932 4.247739198794037 0.17945764161855735
0.2919701392733553 14.498394290083066 905868.8805152475 4.494441402272888 0.18226748227428666
0.30550510467690656 14.301217427940626 738668.201255714 4.7516699316401905 0.18509196224860072
0.31942178254451487 14.12814135912031 605163.7966577158 5.020107628652181 0.1879377125371612
0.333720302337859 13.975965276896716 497669.4390425538 5.2999777494178915 0.1908013405224902
0.34840159133714865 13.842022665822938 411003.83342898876 5.592009870528533 0.19368916225668784
0.3634628847508406 13.72401804304595 340645.48312533007 5.896370066376129 0.19659621845989636
0.37891769319669116 13.620031778645691 283293.32596712426 6.213922927189624 0.19953020055964574
0.394750156221423 13.528452476365253 236405.57059375817 6.544926347819041 0.202487295401517
0.4109758461017944 13.447856214593427 197866.87985094686 6.890081794950934 0.20547119839428066
0.4275834947847399 13.377055868439662 166085.5923505348 7.250094805405922 0.20848499100134674
0.4445787421739091 13.314927396499154 139803.33277728764 7.625225126834089 0.211524232240511
0.46196038025057107 13.260592343503237 117980.28307078333 8.01642022709135 0.21459506023056835
0.47972570938578885 13.213140086167778 99809.52277947598 8.424385841749581 0.2176991338934139
0.49788234057545616 13.171983296453892 84645.19771634106 8.849563990468996 0.22083393778051366
0.5164201752383969 13.136405977301987 71937.79999927501 9.292825680668017 0.22400284724411426
0.5353384947037421 13.105852034726158 61273.63376594887 9.755056838492852 0.22720879758136406
0.5546459860680377 13.079820917240806 52298.89587780708 10.237067069117463 0.2304531397558174
0.574328250995727 13.057841422022612 44729.18227321996 10.739328898959178 0.2337325876325606
0.594385375566105 13.039522476830255 38327.308919995376 11.263084346422216 0.23705329559512062
0.6148227190713268 13.024501317866932 32901.527775431896 11.809272320866306 0.24041689541049976
0.6356269772032115 13.012435786087615 28060.064623077913 12.378871854336424 0.2438250200771445
0.6567971890818728 13.003017313631737 24370.195198479807 12.972573949649952 0.24727564268297245
0.6783288219477756 12.995980438524143 21027.39393253353 13.591701434858658 0.25077350435279
0.7002179923956127 12.991056560047952 18172.13225758543 14.237453922972838 0.2543212638595667
0.7224527187935698 12.987998427365959 15730.028114073806 14.911021136791604 0.2579209058907521
0.7450400290844367 12.986639781505518 13633.562173817498 15.613434318653127 0.2615723427425866
0.7679610463093484 12.98675882102465 11836.389559846166 16.345956559927355 0.2652774386360715
0.7912052333262638 12.988135862258257 10288.746541791255 17.110205422794106 0.26904089946613047
0.8147800464019276 12.990666769805305 8956.258180034836 17.907635998514174 0.2728651579009331
0.8386622499541567 12.994136489185825 7807.383540821828 18.739612756442924 0.2767512874158265
0.8628442907694083 12.998400819331266 6814.5694921412705 19.607481887153906 0.2806997844279306
0.8873232275963565 13.00335646384174 5955.275349558645 20.513328421548326 0.28471700179848525
0.9120809836563297 13.00885122696351 5211.184193071095 21.458946540469935 0.28880595298077383
0.9370997666195466 13.01473969277228 4565.19530382162 22.44581915895215 0.2929665498415154
0.9623836287736593 13.020946128271701 4004.4893375765687 23.47597414066547 0.2972026116924845
0.9879043400164594 13.02732990530854 3516.5389064216433 24.55183268967563 0.30152022915365845
1.013646342658931 13.033797841721622 3091.7956075194634 25.675335399707155 0.30592102106083807
1.0396109715273725 13.040243809092072 2721.395754328227 26.8484469667126 0.31040627291197664
1.0657625352324265 13.046570680075927 2398.3119402833836 28.074262567675234 0.3149847073379832
1.0920940215636858 13.052700999531623 2115.7855207249936 29.35483418709353 0.31965674917703424
1.1185913776237106 13.058538362520233 1868.5219759629895 30.692923570020866 0.324427124723006
1.1452240417353898 13.063993372399974 1652.1132704702468 32.09192472639309 0.3293038521468421
1.1719862113138928 13.069003883874098 1462.048521009334 33.55378359237556 0.3342846606349129
1.1988412947560987 13.07346482245314 1295.38058639501 35.08304026005424 0.33938310158049617
1.2257876575728264 13.077329140520146 1149.0256300117387 36.68171495500883 0.3445959179637019
1.2527829859002573 13.08049272929493 1020.1488986413526 38.35486353397691 0.34993756890178074
1.2798252014607916 13.082939615580255 906.6844949972658 40.10472769526221 0.3554046457543494
1.306869303228383 13.084526170347196 806.7168769670998 41.936775745596684 0.3610116909769573
1.333905928879632 13.08523868371471 718.5623260486683 43.8544911934559 0.3667606333829949
1.3609152090084604 13.085030696006207 640.6221976516943 45.862565914321436 0.3726592460832705
1.3878455904476172 13.08377732182043 571.781391239381 47.96633131423114 0.3787174767503268
1.4147029899200942 13.081486383880215 510.8119982576413 50.17054083586273 0.38494096082504903
1.4414248886517464 13.078030741309577 456.87158692798965 52.480420200937644 0.3913367007810126
1.468020180197231 13.073433561057762 409.008604323563 54.90238229444141 0.39791637147527903
1.4944289576535499 13.067567857932003 366.51767501451656 57.44261656822125 0.4046890332333857
1.5206409772393223 13.060421698655965 328.8261992422758 60.10775054597771 0.411664456410963
1.5466244978276495 13.051937526973798 295.2888145776347 62.904889258775846 0.41885317985481135
1.5723406251226528 13.042057480156034 265.4595485570882 65.84165845620305 0.4262665741367966
1.5977648150012032 13.030730068172192 238.91339704947146 68.92625197646169 0.43391691011921685
1.622851454862713 13.017907045939213 215.23510514784795 72.16748370632816 0.44181743347870095
1.6476036548250392 13.003569139983846 194.09278234787158 75.5748446159449 0.44998244589151176
1.671953019721609 12.98763538762956 175.23323374406888 79.15826492050971 0.4584261388206742
1.6958900163294632 12.97008545187081 158.3581743465045 82.92794964087683 0.46716184094725616
1.7193700454173615 12.950877311180777 143.27559610402068 86.89662884699781 0.4762110726576874
1.74235394027519 12.92993646730793 129.78798676301486 91.07587933122225 0.48558817322189196
1.7648350820616647 12.907289851431665 117.67572721696632 95.47979089087536 0.4953150656453986
1.7867620869680618 12.882856277932197 106.81749986378304 100.12203161198828 0.5054092731765019
1.8081009633863732 12.856598987951648 97.08316202157869 105.01912622644167 0.5158964955486163
1.8288110266749593 12.828466166458725 88.32983615035045 110.18761512566822 0.5267992691456836
1.8488912308258048 12.798501524128586 80.46383008697563 115.64513439376636 0.5381409878863732
1.8682680334177932 12.766563413985953 73.38565613317056 121.4118824349989 0.5499509472805743
1.8869475070218327 12.732744902249575 67.01054231031618 127.50928588352754 0.5622589621863533
1.9048707256707866 12.696930459515183 61.25576100451635 133.95977629399542 0.5750943000174535
1.9220124897704947 12.65911573891032 56.07408262421343 140.7890429913678 0.5884932821169382
1.9383259840097051 12.61922760581985 51.39126990928287 148.02476479955303 0.6024941815422973
1.9538232707039545 12.577387054192377 47.16171728203381 155.69544805714582 0.6171327909114867
1.9684400845537435 12.533459768727607 43.33830116816637 163.83472836059624 0.6324566743120246
1.9821586850659463 12.487460213297735 39.879448763172824 172.47637712093416 0.6485073900744999
1.994946275191338 12.439388036481555 36.74473430175785 181.65968585637492 0.6653381156082795
2.0067832037629523 12.3892290569917 33.901605948303924 191.42665422295195 0.6830032621256492
2.0176309309632066 12.336957882742931 31.327245908342107 201.82331392052836 0.7015620598585187
2.0274679964495648 12.282574285478935 28.991802485228494 212.89960967815472 0.7210771742731286
2.036279048420012 12.226111594409993 26.86906499483928 224.71102724173207 0.741618938622488
2.044024590483629 12.167518469898864 24.9426356803345 237.31872370370667 0.7632644708381885
2.050684640903509 12.106815604060019 23.187306143291067 250.78956288494123 0.7860963660641075
2.0562576723736927 12.044072464696685 21.593029248035265 265.19666612171426 0.8102028611992399
2.0607060833378945 11.979227739677688 20.141858231610946 280.6217129668831 0.8356834577625345
2.0639022722270646 11.913108546816643 18.841943910211775 297.280377634897 1.1001541111053939
