M[M_sun], R[km], Lambda[1], P_c[MeV/fm^3], rho_c[fm^-3]
0.24162668629717493 15.618656898711224 2160425.4255784233 3.5677272577965504 0.1711233750220791
0.2536434424628498 15.277292935353762 1723221.7194057233 3.784809650993167 0.1738880489687298
0.2660382149968809 14.981310017591408 1383065.4958898292 4.011380558884327 0.17666640824861632
0.2788128171174598 14.723567016397697 1116433.1245946859 4.2476963830897985 0.17945714502091006
0.29196671238301236 14.498486948499822 905984.4055856125 4.494382126096755 0.18226682222030816
0.3055012779221369 14.301268638590978 738697.528442883 4.751592182298537 0.185091122407324
0.3194178401483818 14.12817479181459 605148.9537541945 5.020010833430968 0.1879367082493816
0.33371487410373085 13.975981678834135 497713.06127953646 5.299859359976279 0.19080014853725677
0.3483945600430519 13.84208102035363 411037.66987826984 5.591869591285282 0.1936878050164199
0.3634545195145546 13.724074929076451 340675.6412723342 5.896204745781522 0.19659466573388623
0.3789082694979596 13.620057061031462 283331.3067093445 6.213730564650144 0.19952844644490525
0.39474038970870656 13.528511013186126 236421.40062100635 6.544707143064055 0.20248537327194688
0.4109638178383512 13.447926865101802 197891.50315265614 6.889831516278089 0.20546906691607736
0.42757069535074654 13.377100296514072 166102.36807800632 7.249811104261266 0.20848264401448335
0.44456438722114466 13.314968403737106 139817.2079596933 7.624908787345128 0.21152171397477323
0.46194517325040335 13.260602902934536 117997.91519193495 8.016065731591137 0.2145923179212769
0.47970843610218344 13.213190992877845 99826.68619014784 8.423990425976518 0.21769616091958155
0.49786447839172693 13.17201424444721 84657.58065637888 8.849129112387708 0.220830789077396
0.516400649133574 13.136434394103683 71950.28933997691 9.292344302665663 0.22399945831296728
0.5353171757634809 13.105887731104536 61285.50956527375 9.754525696753188 0.22720516110386463
0.5546236091760168 13.079846838416035 52308.372264857484 10.236482701503343 0.2304492480954699
0.5743040941744609 13.057862401627133 44737.5096149301 10.738693844548918 0.23372851038653147
0.5943604400372764 13.039532439589422 38335.09030862796 11.262389055023379 0.23704895140187845
0.6147947368637499 13.024532449989454 32907.376701380635 11.808512685098744 0.2404122755576087
0.635595037715445 13.012441305837777 28296.788067242902 12.37804351057399 0.24382011539226156
0.6567659179290128 13.00304096909684 24375.70367583206 12.971680701773705 0.24727053724440534
0.678296347549084 12.99598846756733 21032.180736505266 13.590730598709325 0.2507680989972131
0.7001830654478055 12.99107017490216 18040.584509090997 14.2364002931757 0.2543155478664948
0.7224152900050875 12.987997929029333 15733.660208033425 14.909879173520498 0.25791486790047147
0.7450012101061174 12.986654219367535 13540.964722702714 15.612209268103127 0.2615660810967832
0.7679192342030592 12.986762311891907 11838.255907533767 16.344631832597933 0.26527083520258743
0.7911630088883246 12.988129389072363 10291.557995321109 17.108774370271558 0.26903394074230835
0.8147356591874197 12.990661221588667 8958.672148842215 17.906091531608233 0.27285782951589904
0.8386158585255877 12.99412518234227 7809.458434852635 18.737961725420384 0.2767437017825443
0.8627942105169157 12.998394628936254 6816.232950367278 19.605702824971015 0.28069180289791174
0.8872673488152055 13.003338836191984 5956.641851437687 20.511412765788045 0.28470860709791657
0.9120272912725752 13.008833744307166 5212.575847815932 21.456885142388252 0.2887971266711421
0.9370451331097917 13.014719914999443 4566.401247193948 22.443620605476994 0.2929574183020461
0.9623214499272562 13.020928494729366 4005.6742752066066 23.47361084207729 0.29719301363471345
0.987844870847677 13.027321479290976 3517.552194605886 24.54929352239525 0.3015101422474528
1.013585290899494 13.033776594447772 3093.058129286183 25.672630192363677 0.30591058114470604
1.0395467290057658 13.040228257723987 2722.255306148957 26.84554264835849 0.3103953009202141
1.065696917540526 13.046550554379044 2399.0514129079043 28.07114554363688 0.31497317611067943
1.092026296501943 13.052690122133253 2116.348022245238 29.351515504461297 0.3196448039572397
1.1185222042252432 13.058524594297811 1869.1345320462171 30.689363608122623 0.32441456672673014
1.1451518493639754 13.063988575595895 1652.5882005390165 32.088135103974395 0.3292908313774742
1.1719125572024545 13.068996707440641 1462.613879583379 33.54971985888407 0.3342709654340581
1.198768046223096 13.073456505387771 1295.8047085079852 35.0786832361619 0.33936869408367604
1.2257111232540634 13.077319860901435 1149.4065104631898 36.677077284173244 0.34458095755548235
1.2527039655657444 13.080492092754104 1020.4933075184283 38.34990365305072 0.34992188891067894
1.279744719124265 13.082934874237095 906.9789010735063 40.09943497608576 0.3553882718494007
1.3067881613498933 13.084520618358006 807.0340543218392 41.931140104951446 0.3609946535814909
1.3338227243891332 13.08523320905275 718.7988370603234 43.84844944865879 0.3667426741928976
1.3608290502833518 13.085034993290362 640.8346214309039 45.85613072447985 0.3726405334253656
1.3877598528790573 13.083783578218318 571.9994319990452 47.959475193729865 0.3786979620181763
1.4146147988404751 13.081491845861455 510.9971159420035 50.16318860796554 0.38492035907224886
1.4413374282386433 13.078043380447902 457.03907640534436 52.47258353673473 0.3913151842372558
1.4679301096673163 13.07345212765178 409.1502230179233 54.8940264953497 0.39789387916688185
1.494338924670496 13.06758996782323 366.65622086184925 57.43370412509061 0.4046654994731964
1.5205502678927745 13.060451061391834 328.95314570127925 60.09824088745927 0.411639810411295
1.5465323820014036 13.051969601714637 295.3909280409445 62.89473847458304 0.41882734530201754
1.5722489395273869 13.04209358407681 265.5571228474192 65.8308189924695 0.42623946872336904
1.597671835243146 13.030772904315725 238.998039868336 68.91467230005803 0.4338884450288082
1.6227593348730918 13.017960078479183 215.31547985223227 72.15510793461978 0.4417875128189285
1.6475107418620367 13.003627191193113 194.16993696218407 75.5616121080283 0.44995096606876633
1.6718595939169358 12.98769942011354 175.29151663214222 79.14417891741084 0.4583932763365989
1.695797349857079 12.970159717843918 158.4215201207615 82.91287271810316 0.4671271942226334
1.7192622332852419 12.950921027230166 143.3363330532484 86.88048339635557 0.4761745111556956
1.7422649605951568 12.930024871603973 129.8252530580073 91.05865863214592 0.4855498635051586
1.7647451538852714 12.907386910633452 117.71997548709398 95.46132905866196 0.4952745562631956
1.7866712886243026 12.882961815298112 106.85863177403694 100.10231257165756 0.5053667203429546
1.8080118652157577 12.856714549907526 97.12043705169944 104.99804772969723 0.5158517353165972
1.8287246254216183 12.828590198097565 88.36467023613638 110.16506564464403 0.526752124179199
1.8488057795218116 12.798634004164377 80.49426490813995 115.62090005608708 0.5380909281073548
1.8681929794488406 12.766735643282008 73.40765682599017 121.38591914952707 0.5498980955458364
1.8868664043446772 12.732899789920499 67.0342552729825 127.48144788998839 0.5622030915554435
1.9047910567566386 12.697095295889088 61.27886850935549 133.9300064186735 0.5750355250401038
1.9219363408799857 12.659294030321039 56.09527900548353 140.75706797811796 0.5884309826316445
1.9382525209243526 12.61941696054336 51.410391053296756 147.9903931778612 0.6024280660178782
1.9537535356137896 12.577588783137104 47.17984082589381 155.65858273131042 0.6170629274287573
1.9683725781032635 12.533673947525894 43.354763640850564 163.79514594088923 0.6323827340230591
1.982092949227599 12.487688738739761 39.89385892849793 172.43371317490488 0.6484286157629362
1.9948874747576533 12.439625870680901 36.76014198833877 181.6137857315268 0.6652545078944274
2.006720470379688 12.38946549364652 33.9175827075399 191.3772198687562 0.6829143933942357
2.0175799701719406 12.3372222854336 31.34055324966053 201.77001655368286 0.7014674622897197
2.027421258264611 12.282852301526962 29.00207009827636 212.84222061035413 0.7209767755324903
2.0362363786563105 12.226402556647122 26.87928431423612 224.649015323902 0.7415117495462242
2.0439865469408063 12.167825214361548 24.951111916516044 237.25178684632814 0.7631503373474336
2.0506525891271163 12.10713733647449 23.196211064807404 250.7171630063008 0.7859744588495593
2.056225720387558 12.04438500623769 21.60078909762686 265.11822685512726 0.8100723337024138
2.0606852024338482 11.979575508690335 20.1492405201673 280.53688166446625 0.8355443146822582
2.063997686826217 11.91269575456858 18.827406856746826 297.06244219547557 0.8624961632959047
2.066165607422006 11.843812853504938 17.624282401627056 314.79535468686083 0.891048754149791
2.0671673806280095 11.77293724323409 16.52890135891051 333.84508018466653 0.9213283199330691
