M[M_sun], R[km], Lambda[1], P_c[MeV/fm^3], rho_c[fm^-3]
0.24162668629717493 15.618656898711224 2160425.4255784233 3.5677272577965504 0.1711233750220791
0.253645372448648 15.277235577637244 1723169.1229799138 3.784843982851274 0.1738884768987789
0.2660422651141892 14.981211889332501 1382906.9483059552 4.01145273157705 0.17666728041301447
0.2788196364590563 14.723451726032238 1116336.2904132977 4.247808838614781 0.17945844933553298
0.29197481008010895 14.49832373758906 905761.9291731603 4.494537815665144 0.18226855585978582
0.3055122106495865 14.301120641486753 738577.786235036 4.751796392628566 0.1850933282686296
0.3194302895735701 14.12803976177273 605032.0950965171 5.020265069090674 0.187939346042477
0.3337320249629967 13.975775469646303 497603.59919715684 5.300170314680759 0.19080327933516372
0.3484128953404669 13.841883930616941 410941.397636907 5.592238041721959 0.19369136987575197
0.36347823574293703 13.723859881001628 340609.3661135161 5.8966389701513835 0.19659874406105965
0.3789327614617013 13.619907165811894 283248.50789914746 6.214235818113186 0.1995330537481234
0.3947672887386794 13.528362473669727 236362.76702693902 6.545282901346881 0.20249042189427593
0.4109943414738271 13.447774695905869 197818.43272914412 6.890488894933333 0.20547466542856366
0.42760366847314135 13.37700767887718 166043.09545438763 7.2505562725513295 0.2084888086007768
0.4446028511645248 13.314831094940313 139764.98678805144 7.625739685987312 0.2115283284622311
0.4619835550073361 13.260489095927685 117945.49782943189 8.016996854184253 0.2145995209073149
0.47975297764567043 13.213080676400118 99790.12379218415 8.425029033866561 0.2177039697989675
0.4979128200069908 13.171912985972437 84619.97608492053 8.850271376301457 0.22083905955618338
0.5164529479019555 13.136342991716518 71919.6907311595 9.293608708959313 0.2240083598121011
0.5353744759341839 13.105790886616557 61258.20138423892 9.755920819135648 0.22721471285017625
0.5546840390465471 13.079772501526062 52289.45513193465 10.238014524673819 0.23045943016305712
0.5743686151997468 13.057801690445 44716.08193345347 10.740361919375779 0.23373921994362484
0.5944307442700864 13.039470884198913 38316.29568376623 11.264215358298353 0.23706036217778984
0.6148692169098567 13.024466859079741 32890.999208563575 11.81050800665099 0.24042441044176685
0.6356759274508066 13.012404413748632 28281.975787226318 12.38021931342107 0.24383299848237017
0.6568490459662606 13.0029939141613 24361.369708356255 12.974026994225174 0.24728394768991543
0.6783837747798547 12.995960259513248 21020.031481216727 13.593280700579578 0.2507822972812135
0.7002751637686045 12.991043812067653 18165.44562048751 14.239167878862265 0.2543305621539165
0.7225116672381763 12.988008124991278 15722.83483825641 14.912878796075491 0.257930728035636
0.7451036621790429 12.986639830229596 13628.274952747524 15.615427146869871 0.26158252875853544
0.768026894227035 12.986758799645482 11831.178846468514 16.348111547055964 0.2652881807064182
0.7912743522002327 12.9881511390191 10285.529185381218 17.112533385912148 0.26905221956245906
0.8148518434539611 12.990680175650219 8952.212093514621 17.910148471926526 0.27287707940762423
0.838738819309396 12.994146010956051 7804.207563852666 18.742298595708 0.27676362745755895
0.8629211532018333 12.998430949493846 6810.949526421496 19.610376018725493 0.28071276857105903
0.8874084674040861 13.003369528060256 5952.753409235278 20.516444776968857 0.2847306581511365
0.9121668866533718 13.008860801262914 5208.847283210576 21.46230000537149 0.28882031154636245
0.9371891712302761 13.014764281768274 4562.943939935874 22.449395763011054 0.2929814050185665
0.9624765399506848 13.020967467554248 4002.547963959313 23.47981877319431 0.29721822588753577
0.987999279237121 13.027359407444388 3514.797916473936 24.555963449849077 0.3015366387028636
1.013745305585746 13.033815243214708 3090.5562697084347 25.6797362965701 0.30593800496939705
1.0397128219776128 13.040276393586986 2720.0692443735607 26.853171808977233 0.31042412251525225
1.0658680067132735 13.046600489022946 2384.718583656259 28.07933347568182 0.3150034668316994
1.0922032669787964 13.05272820509438 2114.664410996257 29.36023318695574 0.3196761822615354
1.1187040728999809 13.05856316550665 1867.4221319180267 30.69871512887547 0.32444755482214926
1.1453373558100948 13.064017898629919 1651.0143544293437 32.09808993989496 0.3293250352131854
1.172103567844842 13.06902587590056 1461.2234559479034 33.56039478759016 0.3343069410444289
1.198963831071899 13.073487468422496 1294.6617857793956 35.09012864540567 0.3394065409491877
1.225912924529186 13.077349754586493 1148.390431525435 36.68925995829552 0.3446202569763634
1.2529097225168215 13.080506893627755 1019.5163066179209 38.362895779001086 0.3499628616713383
1.2799553185391859 13.08294266954831 906.1867099451952 40.113338490087074 0.3554312846768568
1.3070084592372866 13.084547152270648 806.317692063401 41.945944491047364 0.36103940948351354
1.3340414991016971 13.085241122803165 718.1211908396372 43.864320701620606 0.3667898517647077
1.3610514970292544 13.085030069025029 640.2340715020657 45.87303558653241 0.37268969046786254
1.387992218450245 13.083779516147342 571.4357438306856 47.97748587609905 0.3787492262341738
1.4148370099128114 13.081455324351545 510.52251573366436 50.18250261973679 0.38497447906168
1.4415694338480862 13.078008655379932 456.5950448815306 52.49317021526461 0.39137170754333694
1.4681646935023913 13.073405284798836 408.7561297245234 54.91597700351231 0.3979529659871428
1.4945762011284502 13.067531238995931 366.310831259697 57.457117010434395 0.40472732238986964
1.5207887377468996 13.060379252824925 328.641857091631 60.1232227434133 0.41170455540843187
1.5467729804580235 13.051883745016632 295.09846317066564 62.92140466764383 0.4188952128834136
1.5724906928987754 13.041994581119669 265.2910760877279 65.85929446271491 0.42631067514211063
1.5979037758864543 13.030651327836063 238.75910270321643 68.94509244323152 0.433963223640532
1.6230126992579434 13.017837022468143 215.0830674536293 72.18761957503938 0.44186611557232125
1.6477543349270172 13.003476469178567 193.95665076703256 75.59637457272433 0.4500336651484663
1.6721035712777343 12.987531336581794 175.1158747595191 79.18118368817761 0.4584796080434357
1.6960396884467215 12.969970744604982 158.255661248623 82.9524808668311 0.4672182136330525
1.7195198680037234 12.950746574984672 143.18470921040472 86.92289883349255 0.4762705612520188
1.7425009459104626 12.929799133608096 129.6934069945197 91.1038990121172 0.4856505066982094
1.7649827549082024 12.90713283375568 117.59602908785641 95.50983023908098 0.49538097868282227
1.786893961964929 12.88265416093418 106.75400170958984 100.15411678514542 0.5054785115881991
1.8082440323718412 12.856414311149985 97.02181502529382 105.05342363055819 0.515969326158148
1.8289489651676443 12.828260863725207 88.27049507534124 110.22430627106475 0.5268759805705783
1.8490295291832826 12.798281303268475 80.4146970883405 115.68456736784353 0.5382224428035434
1.868400730769309 12.766329690666755 73.33469003892345 121.45412899293086 0.5500369457908875
1.8870765761928714 12.73249655065852 66.96026392205113 127.55443341658588 0.5623493383822462
1.9049977800708662 12.6966627685945 61.21657148063168 134.00821752789952 0.5751899380540498
1.9221362808404023 12.658827641217666 56.03717571731803 140.8410728394687 0.58859465604699
1.9384450237040354 12.61892218324223 51.355620460356974 148.08069490126778 0.6026017658756417
1.9539376811328029 12.57706148173005 47.132341645722626 155.75543643684256 0.6172464748959334
1.9685477161232516 12.533114667223872 43.311438118656284 163.8991386132713 0.6325769931993082
1.9822593694182822 12.487095815008573 39.85307279551969 172.54580243123942 0.6486355763191721
1.9950415278785152 12.438995516664761 36.72199304115574 181.73437793787087 0.6654741682703887
2.006873766221095 12.388818976904453 33.88076540510307 191.5070982117282 0.6831478772490528
2.0177138172602374 12.33652664181886 31.306570601878597 201.91004498437246 0.7017159989415279
2.0275449870818334 12.282127291610108 28.972320651540073 212.9930000436343 0.721240555130167
2.0363469758758317 12.225636353007097 26.852552752965813 224.81194151082923 0.7417933713390504
2.044084102847403 12.167022243658124 24.926942809957467 237.42765359456217 0.7634502063085673
2.050735799457553 12.106293674038179 23.17306972305878 250.90729555303628 0.7862944653012581
2.056301043573081 12.043525204838213 21.5805061042192 265.32421663916597 0.8104149522108123
2.0607397412142534 11.978654747819899 20.13021844235372 280.7597679248687 0.8359099000256409
