M[M_sun], R[km], Lambda[1], P_c[MeV/fm^3], rho_c[fm^-3]
0.24162668629717493 15.618656898711224 2160425.4255784233 3.5677272577965504 0.1711233750220791
0.25364385672733886 15.277302993351883 1723277.7222034337 3.784817509423116 0.1738881469202681
0.2660396549693279 14.98127716228605 1382975.3662139631 4.011397078853435 0.1766666078826936
0.2788145863605761 14.723527971584263 1116491.9955251445 4.247722123474775 0.17945744357058585
0.29196840203931146 14.498434500729552 905864.3215048506 4.494417762324576 0.18226721903797566
0.3055043508727066 14.301216902616579 738649.8283325285 4.7516389243599875 0.18509162731079623
0.3194202433273941 14.128152406471962 605108.3945625431 5.02006902561744 0.18793731201577638
0.3337174159397867 13.975968091028614 497683.5109698592 5.299930534297818 0.19080086514457512
0.3483987840297087 13.842045363189724 411016.7626292786 5.591953925423226 0.19368862097240402
0.363460910565263 13.724015838301199 340659.2628154618 5.896304134380438 0.19659559921264014
0.3789143970144142 13.620014126515036 283311.1281386098 6.2138462104138545 0.19952950099502373
0.3947453626317236 13.528491163440641 236402.83862151473 6.544838925899468 0.20248652882938356
0.41097123669515145 13.447896721847716 197876.7546132292 6.889981980188584 0.20547034832987884
0.42757833701690007 13.377069222148755 166087.58795641508 7.249981661130785 0.2084840549877549
0.4445728709047981 13.314964465501554 139805.85818051672 7.625098965750976 0.2115232279171681
0.4619537986299443 13.260601381293732 117982.38179279745 8.016278848620395 0.21459396655379592
0.47971856125452533 13.21318537530172 99817.55167389102 8.42422814341981 0.21769794822243224
0.4978751933968245 13.171996191300675 84648.90602882582 8.849390553726732 0.22083268202439585
0.5164129032685526 13.136410052245221 71943.21377125183 9.292633698729633 0.22400149567929936
0.5353305701520756 13.105857435500546 61279.335308884656 9.75484500964428 0.2272073472889392
0.5546371025761062 13.079815364290134 52302.256609218806 10.2368340125459 0.23045158768996646
0.5743193244514228 13.057847370411384 44731.97365782021 10.739075627288852 0.23373096154998335
0.5943754081559464 13.039526453097892 38331.13206065227 11.262807050763358 0.23705156304682604
0.6148119736936143 13.02453322633206 32904.29422014631 11.808969363055454 0.2404150529215358
0.6356155929764138 13.01243681100012 28294.076432131034 12.378541494007886 0.2438230639891255
0.6567844266511259 13.003032543990473 24372.10170351275 12.972217703872797 0.2472736065281957
0.6783159764304769 12.995991702505457 21029.133799722815 13.591314244794805 0.2507713485822489
0.7002041711192136 12.991067429791041 18173.627397118642 14.237033712529554 0.2543189841974035
0.7224378536559187 12.987991565985862 15730.840406327165 14.910565696481418 0.25791849780615267
0.7450233017644696 12.986647663554093 13634.657410557546 15.61294574079479 0.26156984545666134
0.7679436178549327 12.986756028034344 11837.437553516518 16.345428228066794 0.2652748050342568
0.7911881013505931 12.988140765110048 10289.549566707943 17.1096346852873 0.2690381241629028
0.8147625122474188 12.990655588382731 8957.181453127205 17.90702002791415 0.27286223516448
0.838643957372678 12.994119710272084 7807.982667943596 18.738954284841345 0.2767482620795196
0.8628255091312819 12.998399854938336 6815.43448522674 19.60677235270872 0.28069660119435497
0.8872987122022266 13.003346708499764 5955.977683001555 20.51256440921752 0.28471365377798963
0.9120588999911637 13.00884534243217 5211.719160115825 21.458124401354553 0.2888024328191625
0.937078018228635 13.014729619417622 4565.70130698554 22.444942317808472 0.29296290794260216
0.9623558107682955 13.020934927673956 4005.0282011807753 23.475031593626674 0.29719878372890196
0.9878802302484354 13.027332080749002 3516.9121966174193 24.55082000017688 0.3015162062190262
1.0136220164826366 13.033781567357835 3092.1089998745606 25.674256487763486 0.3059168573318607
1.0395857864977345 13.040237432868349 2721.723179911729 26.84728864225598 0.3104018969707585
1.0657355560946995 13.04656310964855 2398.564984729383 28.07301940853633 0.3149801083517614
1.092066688859287 13.052696914914309 2115.84736482168 29.353510599283396 0.3196519850736048
1.1185626277296086 13.0585372430113 1868.8212691415067 30.691503751080983 0.3244221162196936
1.1451942360544025 13.063986939378431 1652.295112681803 32.09041331035335 0.329298659070198
1.1719568980759005 13.069002162393788 1462.2514571847053 33.55216285034319 0.3342791985671583
1.1988112647941542 13.073462466446363 1295.5617190856674 35.08130254238533 0.3393773554192614
1.2257573433410356 13.077327922986418 1149.1867086966051 36.67986530446335 0.34458995127736197
1.252752058681788 13.080493656630265 1020.2607782071209 38.3528924631875 0.3499313568059799
1.2797931518535772 13.082937423971917 906.7981358736764 40.10261678519136 0.35539811530379967
1.3068364873671072 13.084518405710009 806.8584803250166 41.93452806454663 0.3610048958966208
1.3338732852107091 13.08523552720289 718.6918316367073 43.85208154101416 0.36675347064975755
1.3608827421216898 13.085029190315796 640.7021697451364 45.85999933954606 0.3726517828324665
1.3878109797024305 13.083777057401578 571.879527847193 47.96359685445771 0.3787096935951088
1.4146672519939485 13.081486440113155 510.8817909778567 50.16760850666536 0.38493274411548867
1.4413905851277404 13.078036822380907 456.9370185994001 52.477294657337715 0.39132811920932725
1.4679850754282333 13.07344017961461 409.0730196300345 54.899049696792616 0.3979074007217631
1.4943928462001885 13.067579772631618 366.58031192601743 57.43906195584348 0.4046796470982892
1.520604506691715 13.060434732052673 328.8763475419062 60.10395773678719 0.41165462666009767
1.5465875275169638 13.051950488659177 295.32429649105865 62.900840738900726 0.41884287604985754
1.5723034680087864 13.042072438547855 265.49769453370715 65.83733525846799 0.4262557634486649
1.5977278354672235 13.03074772621026 238.9508660100246 68.92163354649117 0.4339055571226326
1.6228145435340604 13.017928981775729 215.26261838267618 72.16254775486422 0.44180549992595886
1.6475664655197544 13.00359192339755 194.1208221314973 75.56956695579888 0.44996989046309604
1.6719157528864732 12.987661516232862 175.2548515879649 79.15264684455096 0.4584130319137374
1.6958531560210284 12.970117788242217 158.3852723090992 82.92193633580001 0.4671480223897032
1.7193333604852301 12.95090787109497 143.29784421416784 86.89018935783909 0.47619649038303186
1.7423194551265626 12.929971557287221 129.79360681669016 91.06901097759496 0.4855728936632213
1.7647993332105387 12.907328322017992 117.69611469528611 95.47242750730577 0.4952989087376833
1.786726198106818 12.882895415350763 106.83589681410358 100.11416678696443 0.5053923012253062
1.8080658590303964 12.8566449494083 97.09980770327252 105.01071917679575 0.5158786431610713
1.8287771121344607 12.828514606582125 88.33936454427528 110.17862136682834 0.5267804655883591
1.8488574811681537 12.798555163284064 80.47265166396441 115.63546861880502 0.5381210217307056
1.8682441516007897 12.766651630336845 73.3916595443642 121.40152705764937 0.549929867527113
1.8869155951212413 12.7328056770082 67.01901419865443 127.49818276461254 0.5622366783152841
1.904838595287146 12.696997478994001 61.26445238047826 133.94790262920966 0.5750708577164263
1.921981967364099 12.659185269989994 56.084662096650185 140.7762897865361 0.5884684340241274
1.9382974509655015 12.61930307764921 51.39911710458703 148.01105568246288 0.6024678113735034
1.9537959205938444 12.577466197568338 47.16827985408147 155.68074429958736 0.6171049258190464
1.968413455795237 12.533545425025261 43.3450027926086 163.81894085848083 0.6324271831268697
1.9821303130448824 12.487551779241482 39.88539605985704 172.45936051067406 0.6484759707642123
1.994920971151986 12.43948364343693 36.74991764608337 181.64137845145746 0.6653047684163759
2.0067599157948344 12.389329223929971 33.906008870341246 191.4069371379356 0.6829678164854445
2.0176095302827237 12.337063826126055 31.330302501109927 201.80205601092996 0.7015243291659014
2.027448717902752 12.282685218714104 28.99496668098966 212.87671972600918 0.7210371296713123
2.0362614561863936 12.226227872206406 26.87329112487051 224.6862933810798 0.7415761855555207
2.044009650529559 12.167641196617192 24.945868668621536 237.29202543760906 0.7632189478419475
2.0506719674056724 12.106943925609894 23.19075718581438 250.76070732603523 0.7860478131492765
2.0562476637384686 12.044205671871575 21.596490886032502 265.1653798763289 0.8101507990692262
2.060697692377199 11.979364605891387 20.144702279554966 280.58787711576576 0.8356279590914767
2.0640071131419258 11.912474686058605 18.824943288491838 297.11776823746084 0.8625858013973028
2.0661707500569473 11.843585654316477 17.620650417915765 314.85545553579647 0.8911449637880097
2.0671672435478383 11.772703721242596 16.525770273184705 333.9103521930192 0.9214314118563709
