M[M_sun], R[km], Lambda[1], P_c[MeV/fm^3], rho_c[fm^-3]
0.24162668629717493 15.618656898711224 2160425.4255784233 3.5677272577965504 0.1711233750220791
0.2536442917991114 15.277287611063713 1723261.1599465294 3.7848252626372854 0.17388824356034244
0.26604053674839534 14.981264863899979 1383025.3617873152 4.0114133776859555 0.17666680484446567
0.2788165432412889 14.723458017405557 1116392.4889299346 4.247747519370261 0.1794577381247027
0.2919709533449091 14.498384026642938 905873.8048750607 4.4944529217214155 0.18226761054601953
0.3055061391475971 14.30122795783361 738669.7070823633 4.751685041117549 0.18509212545979306
0.3194238843490166 14.128103223388676 605091.3237823938 5.020126439474698 0.18793790770670513
0.3337221951815878 13.975959026206835 497695.40480130335 5.30000075684335 0.19080157216908836
0.34840295694127627 13.842011144278835 410996.65354268346 5.592037132017255 0.19368942601909062
0.3634664860015619 13.723955901725217 340636.25535232737 5.896402194418832 0.19659652021327245
0.3789199435267656 13.6199861114855 283297.90706768783 6.213960310603464 0.1995305414513674
0.3947515924774424 13.528444238015343 236411.88194298497 6.544968947806852 0.20248766894586034
0.41097770923066557 13.4478567499905 197861.56629074158 6.890130433932453 0.20547161262425784
0.427587072413339 13.377026985551232 166077.8807694597 7.250149939829036 0.20848544711429942
0.444581792404202 13.314918281160248 139792.47065733268 7.625286604328112 0.2115247216408933
0.4619633627516695 13.260555909184905 117976.93385881682 8.01648912000836 0.21459559317297894
0.47972837170424987 13.213164510371415 99808.2014652776 8.42446268733626 0.21769971166479754
0.4978859307511987 13.172005074663913 84641.51015568724 8.849648505396202 0.22083454970469707
0.5164246848062289 13.136390636624954 71935.72632254212 9.292919232699584 0.22400350585624879
0.5353438175232412 13.105852877471056 61274.37482959269 9.755160061971539 0.22720950430393852
0.5546525737633131 13.079798147088493 52296.898324303154 10.237180636932893 0.23045389607316522
0.5743335845249562 13.05784453480356 44325.89987327692 10.7394523176658 0.23373338001888744
0.5943912619806286 13.039516609787821 38324.849327081145 11.263219472127984 0.23705413986297552
0.6148284195642314 13.024496763563118 32899.56717065855 11.80941995187472 0.2404177932533478
0.6356330883529854 13.012441895930627 28290.74677433525 12.37903283875711 0.24382597327784492
0.6568040507731969 13.003010536712228 24369.313724641026 12.972747548213963 0.24727663490117688
0.6783363235756346 12.995973410516113 21026.6374406352 13.591890112801366 0.2507745548610252
0.7002245020202312 12.991056707718583 18170.80119926432 14.237658692013335 0.25432237474160513
0.7224596887983143 12.987997244184383 15728.37616876142 14.911243073656314 0.2579220793546156
0.7450473361093853 12.986651567947728 13632.948878935376 15.613672403742015 0.26157355967563295
0.7679686259965176 12.986758988145676 11835.77964762552 16.346214017542934 0.2652787219977126
0.791213618455547 12.98814918123327 10288.324237267067 17.110483545139473 0.26904225188091585
0.814788294316941 12.990672911555334 8955.811494825106 17.90793616346719 0.2728665821621723
0.8386708200697631 12.99413872932477 7806.854536541889 18.739933632625014 0.2767527616758574
0.8628524641096645 12.998400123877392 6813.927183416536 19.60782764691394 0.2807013356339146
0.8873333843062479 13.003358272337174 5955.032485691128 20.513700729119275 0.2847186333079883
0.9120902904658065 13.008847723803026 5210.817743893887 21.459347174051604 0.28880766837775224
0.9371103974189525 13.01474742313374 4564.893346631455 22.44624644960726 0.2929683245636343
0.9623947594267942 13.020950754444984 4004.2975809072286 23.476433450825645 0.29720447708751935
0.9879159536842196 13.027332862917959 3516.333407692511 24.552326181399447 0.30152218956200566
1.0136572933273156 13.033797193476603 3091.6608104882625 25.67586116269733 0.30592305008147336
1.0396224952555844 13.040249350979431 2721.1430648153523 26.849011428820084 0.3104084053481763
1.0657743379242155 13.046577006835266 2397.9822695251137 28.074868371282594 0.3149869484689504
1.0921070676554283 13.052699486436783 2115.618159466219 29.355479185054318 0.3196590707736623
1.1186053785531436 13.058540565386343 1868.4565036460504 30.693615463311797 0.3244295654214233
1.1452362272227055 13.063995637117234 1651.9785709027028 32.09266125673942 0.32930638279256674
1.171999258338916 13.069014295195913 1461.9345489360942 33.554573399591014 0.3342873223666615
1.1988551941172174 13.073472770382043 1295.2370604016166 35.083887072065 0.33938590175824446
1.2258021852323053 13.077336431634755 1148.9699222276588 36.682616314340194 0.3445988256093775
1.2527975091151833 13.080500596249896 1020.0830401170448 38.35582309874367 0.3499405904792411
1.2798426710154143 13.082937544631386 906.6280331559175 40.1057563724466 0.355407828137899
1.306885243990129 13.084523469886562 806.6854022965077 41.93787107454087 0.3610150023222972
1.3339228092132445 13.08523773174371 718.5132567765986 43.855665455209284 0.36676412389620944
1.3609308585776905 13.085035124903257 640.558795374792 45.86381664831293 0.3726628830478184
1.3878623938284875 13.083776026667952 571.7472414597852 47.96766386296667 0.3787212696141842
1.4147193420944921 13.0814812415543 510.777701279969 50.17196981189942 0.38494496497338027
1.4414422719923912 13.078029594280618 456.81457409676415 52.481943335715904 0.3913408827384445
1.468037439009226 13.073430477019599 408.97862263023876 54.9040063325649 0.3979207430938306
1.4944465430464968 13.067565120018035 366.49014329023413 57.44434880063208 0.4046936072813264
1.520659051019875 13.060419147023506 328.80819753064515 60.10959885887252 0.4116692466480576
1.5466424944834671 13.051930851145524 295.2614856196191 62.90686218740431 0.41885820111502553
1.5723599490954066 13.042047926583834 265.43828308847793 65.84376524409065 0.4262718424192597
1.5977826999982103 13.030719665693502 238.89291206856893 68.92850264066634 0.43392244268833463
1.6228705547069529 13.017896493157933 215.2149988609738 72.16988910941727 0.44182324897442443
1.6476214648914695 13.00355785469222 194.07330419685144 75.57741654545974 0.44998856445087715
1.6719703961849406 12.987623091136284 175.20805073408687 79.16100274630016 0.45843252613692054
1.6959079269248734 12.970071305968538 158.34942348198462 82.9308800761432 0.4671685750789634
1.7193872621970951 12.950861520198787 143.26237255060934 86.8997669776356 0.47621817897959234
1.7423686409848536 12.929910278051729 129.3916030724621 91.07922646342497 0.48559561935900797
1.7648528717622014 12.907272121133424 117.66584455912007 95.48337927054689 0.4953229393516442
1.78677965403065 12.882833255330793 106.81293739367862 100.12586436368785 0.5054175440883903
1.8081173794706973 12.856577195208708 97.07619225819536 105.02322322593515 0.5159051955356284
1.8288278675780305 12.828442268847192 88.3216529130598 110.19199805266491 0.5268084326801411
1.8489078175228908 12.798475184646565 80.45761055258497 115.6498448232314 0.5381507180082038
1.868283107005208 12.766536651018708 73.37855383556845 121.41692893758875 0.5499612201105103
1.8869627922040886 12.732715191318142 67.00235122796039 127.51468841605518 0.5622697919104447
1.9048863001857357 12.696898252787012 61.25122143999746 133.96556272558226 0.575105724230077
1.9220273284173506 12.659080509441585 56.06895182661684 140.79525806383364 0.5885053914415743
1.9383417194104873 12.619193320830428 51.38751965244814 148.03144573378935 0.6025070326516981
1.9538381314545348 12.577347893719965 47.15697608814061 155.7026137275394 0.6171463705741761
1.968453554326011 12.533417008106301 43.333850185845215 163.84242219316286 0.6324710464551992
1.982168179634608 12.487417528024437 39.87543873698349 172.48466996114365 0.6485227018972264
1.9949583080450162 12.439341585515308 36.74218922920891 181.6686077678584 0.6653543669937559
2.0067937721802935 12.389180411378188 33.899574404205794 191.43626314661967 0.6830205362029684
2.017641321014547 12.33690569800124 31.32670274815953 201.83367377216652 0.7015804475732613
2.0274768182453653 12.282520781064761 28.989588790664474 212.91076491420503 0.721096689691202
2.036287087612578 12.22605487603347 26.86681617030007 224.72308112019732 0.7416397740383772
2.044031055200642 12.167459385429193 24.939046219676765 237.33173495109745 0.7632866562102233
2.050691113747259 12.106752898256614 23.185994124993126 250.80362550969033 0.7861200281052402
2.0562640099916734 12.044006543795861 21.592355495269192 265.21191337026397 0.8102282335066731
2.0607092123859747 11.979157292413733 20.13973999230639 280.63820279663156 0.8357105049212962
2.0640149781256465 11.912260802947253 18.81937806476331 297.1723679225522 0.8626742626703833
2.0661764539733523 11.843359923435736 17.616852027265825 314.9147676697552 0.8912399108486787
2.0671695711191878 11.772466070543045 16.52217229640552 333.97476797611864 0.92153315144028
