M[M_sun], R[km], Lambda[1], P_c[MeV/fm^3], rho_c[fm^-3]
0.24162668629717493 15.618656898711224 2160425.4255784233 3.5677272577965504 0.1711233750220791
0.2536442109042072 15.277289110763876 1723211.5144992399 3.784823699198968 0.17388822407283805
0.26604029505737864 14.981264486676258 1382981.6002727426 4.011410091016923 0.17666676512701007
0.2788156841497223 14.723493039976637 1116437.7715565576 4.247742398267463 0.17945767872762758
0.29197047994941466 14.498399596187774 905801.6021037964 4.494445831792946 0.18226753159802056
0.3055054647928504 14.30122144485157 738630.7490970313 4.751675741615755 0.18509202500742533
0.31942201668058184 14.12813793127853 605106.4459553239 5.02011486188651 0.18793778758475915
0.3337207186629388 13.975920809123753 497675.66358507326 5.2999865963491635 0.19080142959640842
0.34840211644148694 13.842018235637568 411001.0723903772 5.592020353251008 0.1936892636799115
0.3634655617167934 13.723959728235533 340617.8859721196 5.896382420406723 0.19659633449156608
0.37891856645042427 13.62000019243076 283294.50641869614 6.213937302037179 0.199530331640947
0.3947519086635284 13.528436655356202 236399.84598762522 6.544942728564384 0.20248743903852434
0.4109766192523828 13.447872350849764 197866.4789119616 6.89010049783337 0.20547135767587585
0.42758458947578026 13.377069046867257 166080.73960286393 7.250116005939636 0.2084851663879289
0.4445798091945866 13.31491621831401 139796.3021324574 7.62524876642821 0.2115244204268804
0.46196143209044005 13.260559340166338 117977.91086831919 8.016446718089535 0.21459526515985633
0.47972627875443585 13.213146630536633 99809.57162722468 8.42441539073477 0.21769935606047378
0.49788367119126187 13.171978846621036 84642.29388049136 8.849596488493766 0.22083417308009834
0.5164223816322133 13.136395089066427 71937.11579801328 9.29286165366806 0.22400310049627722
0.5353411553244609 13.105836326801606 61273.52374535479 9.75509653038642 0.22720906933307758
0.5546481923114402 13.079819201528508 52297.328858738205 10.237110738644855 0.2304534305778343
0.5743301019731667 13.05783975794447 44729.076761528406 10.739376356378544 0.2337328923238934
0.594388235696988 13.039532988468443 38328.716852167796 11.263136305447626 0.23705362023605162
0.614824882802703 13.024500843977478 32900.67617405282 11.809329088462016 0.2404172406521963
0.6356298664255864 13.012428804235615 28291.72593221853 12.37893375661814 0.24382538660514788
0.6568000222938579 13.003021307629693 24370.057887633026 12.972640702351566 0.24727602421404163
0.6783320747637656 12.995980833269321 21027.42439925019 13.591773985915838 0.2507739082976388
0.7002190526721803 12.99107255447712 18171.83280265868 14.237532661412178 0.25432169101944296
0.7224553081719328 12.987989677946741 15729.188481103743 14.911106476636151 0.25792135711467934
0.74504220150357 12.986654711389255 13633.546264723262 15.613525867843904 0.26157281068132293
0.7679635980058261 12.986749223429785 11835.745836829012 16.346055558275875 0.26527793211800926
0.7912086749967856 12.988137534297636 10288.62839565407 17.110312367178196 0.26904141950045585
0.8147836316240663 12.990657982130086 8955.797096095697 17.907751418755176 0.2728657055617237
0.8386663450074976 12.994133348891042 7807.459638611709 18.739736140597028 0.2767518543021739
0.8628475241038469 12.998404477952914 6814.459744729523 19.60761483957403 0.28070038090159094
0.8873275170113157 13.003359445711705 5955.094213833804 20.513471582164474 0.2847176291505026
0.9120853764029209 13.008844347983999 5210.990277012215 21.45910059303439 0.2888066125892432
0.9371045326062606 13.014734016939007 4564.984833389921 22.445983461723717 0.29296723226168864
0.9623879633735307 13.020946373171197 4004.372660249155 23.476150755605058 0.2972033289782316
0.9879089390109385 13.02733976914029 3516.4469293129177 24.55202244813595 0.30152098297393876
1.0136504881773276 13.033788815522218 3091.6329357358973 25.67553756714006 0.3059218012638969
1.039615901999495 13.040245331000925 2721.353063217023 26.8486640147512 0.31040709288038276
1.0657667747428843 13.046574381267286 2398.2244020554454 28.074495512364926 0.3149855691016825
1.0920978612836432 13.052702321109079 2115.6781565433016 29.355082202813943 0.31965764188134527
1.1185955904842513 13.058540631626089 1868.5144404225882 30.69318961794333 0.32442806322429196
1.145227738803829 13.063993927399217 1652.0422972342603 32.09220793816697 0.3293048252346019
1.1719922181729296 13.069003114809206 1462.0308719396203 33.554087290170294 0.3342856841277937
1.198848123811913 13.07346686829236 1295.441259780258 35.08336587732473 0.3393841783085346
1.2257930142412337 13.077331636197837 1148.9953553422117 36.68206154680929 0.3445970360151989
1.2527883558137374 13.080492860081172 1020.1185078680815 38.35523250691933 0.3499387307622043
1.2798310320744417 13.082935048236026 906.6765747505717 40.10512324327818 0.3554058694477667
1.3068757322345734 13.084526429807935 806.7029577106457 41.93719692251771 0.3610129642585976
1.3339125788131707 13.085235476014944 718.552512068727 43.85494272156323 0.366761975558043
1.3609210152264453 13.085037119668678 640.5884242085982 45.86304684748095 0.37266064457156856
1.3878515486974214 13.083772509709458 571.772449187529 47.966843706730096 0.3787189351847827
1.4147087595003716 13.081486376344674 510.7888230317618 50.171090306481766 0.3849425005022765
1.4414323110269656 13.078030667684818 456.85319690744615 52.4810058773755 0.391338308829077
1.4680263454473415 13.073431523102728 408.98537464282845 54.903006770113606 0.3979180524514791
1.4944357552040854 13.067567644179418 366.51318329524594 57.44328264661844 0.4046907920473312
1.5206477778460161 13.060421655714636 328.8183082346272 60.10846125947483 0.41166629835350804
1.5466313975599932 13.051934109768515 295.2823519552769 62.90564788931841 0.418855110629856
1.572349002675391 13.04205255565833 265.4533587995585 65.84246855807889 0.4262685998962624
1.5977716609629042 13.03072518090766 238.9033299210884 68.92711740139274 0.4339190375015413
1.6228586826066227 13.017903300418839 215.22211919017192 72.1684086311467 0.4418196696512373
1.6476105977057025 13.003566119377084 194.08157610003795 75.57583357314861 0.44998479859726276
1.6719596896391993 12.987629711197586 175.22364682689104 79.15931766780162 0.458428594868062
1.6958958053286968 12.9700816457225 158.3487164820606 82.92907644989891 0.4671644303511071
1.7193772114709105 12.950870267291426 143.27276338255018 86.89783551850947 0.47621380517496764
1.7423587089395047 12.929925486805436 129.77809425507786 91.07716636748201 0.4855910364038289
1.764842542882405 12.907283682006558 117.67284678536144 95.48117069091731 0.49531809323478504
1.7867689537447766 12.882847350148522 106.81454723282003 100.12350537726068 0.5054124534980222
1.808107681740943 12.856590633854166 97.08157393225028 105.02070159947553 0.5158998408565558
1.8288174675201303 12.828456704459494 88.32552107711028 110.18930044263361 0.5268027926951508
1.84889682484438 12.798491173659327 80.46081925897703 115.6469456408282 0.5381447292977897
1.8680909066853477 12.766754790821071 73.43711529773302 121.44773556436424 0.6536891595780101
1.8805245370713632 12.733651450189045 68.55410928338024 128.2612792028215 1.0442088098122337
1.8852897872712957 12.694004213631564 65.37990296965566 136.35287201611962 1.4128220276650194
