M[M_sun], R[km], Lambda[1], P_c[MeV/fm^3], rho_c[fm^-3]
0.24162668629717493 15.618656898711224 2160425.4255784233 3.5677272577965504 0.1711233750220791
0.2536414262420127 15.277386726560216 1723192.098555879 3.7847950572965776 0.17388786706534207
0.26603764995686185 14.981298334662743 1383094.8434111157 4.011349880185916 0.17666603751465138
0.2788108842120174 14.723595470110638 1116470.0657116608 4.24764858165071 0.17945659059625185
0.2919627124864028 14.49853448174473 905965.5983583919 4.494315947746032 0.18226608530901364
0.3054967867653145 14.301353990386483 738752.5058830957 4.751505380178899 0.18509018477876757
0.3194110110903561 14.128270032110105 605198.1569855824 5.019902768322369 0.1879355870321706
0.3337079412440614 13.976078767689328 497774.19402175955 5.2997271870655975 0.19079881777536073
0.3483867164840954 13.842100446254307 411078.5254963187 5.591712980761442 0.19368628976651966
0.36344682809231066 13.724150192818898 340709.3311026549 5.896020179467645 0.19659293224800792
0.3788992889035091 13.620120669966404 279448.6791607415 6.213515809321197 0.1995264881348875
0.39472842404574554 13.528555633221082 236447.20929279702 6.544462421882056 0.20248322739778288
0.41095082718047377 13.448000705071784 197918.99777515477 6.8895521053153645 0.20546668733506854
0.4275569657387344 13.377146604470147 166125.54200096097 7.249494381915292 0.2084800238516841
0.444549151920222 13.3150248545749 139839.678892324 7.6245556291792225 0.2115189026086927
0.4619272226163076 13.260664053265195 118013.54114434688 8.015669978220293 0.21458925644900054
0.4796892981451417 13.213241737710241 99841.96649344254 8.42354899180822 0.21769284195174962
0.49784294712841326 13.17206666665543 84674.23517431594 8.84864362520189 0.220827273942738
0.5163779611629471 13.136479450947506 71962.72527271383 9.291806906480344 0.22399567501031986
0.535294818620368 13.105905521322343 61300.71355181371 9.753932748405541 0.2272011014656108
0.5545969963770946 13.079885547765755 52319.00773684206 10.235830336479985 0.23044490359890277
0.5742753680323959 13.057899423562006 44748.3120275824 10.73798489744583 0.23372395872652535
0.5943312643907951 13.039584928961295 38345.125715051254 11.261612865337453 0.23704410175467464
0.6147639215885052 13.024545483318109 32637.775409735754 11.807664668148833 0.24040711819966817
0.635561684532839 13.012458956754804 28306.57969973503 12.377118795681191 0.2438146400867647
0.6567309169853731 13.003040177179336 24381.826064025405 12.970683535330481 0.24726483784992323
0.6782596425680388 12.99599133510206 21037.920720457605 13.589646822211964 0.2507620648200369
0.7001435734635538 12.991075949107382 18180.821532443766 14.23522409646878 0.2543091669419555
0.7223728373787701 12.988022611320032 15736.634160019377 14.908604373171862 0.25790812755048864
0.7449569495949604 12.98665155505013 13640.625278070971 15.61084172037018 0.2615590910999026
0.7678733351818648 12.98675046781999 11841.51807033202 16.343153020132846 0.26526346369334797
0.7911150161793752 12.988127236527587 10294.045825565536 17.10717687236837 0.2690261726509633
0.8146858821473741 12.990655953659626 8961.019838815815 17.904367435625076 0.27284964880373774
0.8385634913488623 12.99411728051215 7811.206928600634 18.736118677946816 0.27673523393302163
0.8627395735464567 12.998381697251821 6818.378641122646 19.603716864881154 0.280682893147468
0.8872111377651235 13.003321974594154 5958.707003290271 20.509274336231567 0.28469923616803133
0.9119679287622168 13.008826932597126 5214.174712297347 21.454584032148826 0.2887872739834685
0.9369832115681365 13.014712753402687 4567.871391753247 22.441166399370005 0.29294722492709074
0.962259137950834 13.020908180579974 4007.1242254131325 23.470972745723554 0.29718229954156616
0.9877788884754656 13.027308726832317 3518.658761898604 24.546459120593198 0.30149888251464696
1.0135171270137757 13.033762873466005 3094.0380721013958 25.669610455667275 0.3058989273992262
1.0394762225208847 13.040211088125213 2723.2002102618503 26.842300665198024 0.3103830532916163
1.0656270181270688 13.046551781576763 2399.7120888812824 28.06766614103095 0.31496030428747984
1.0919510429165542 13.052668811496975 2117.1799213053996 29.347811012701666 0.3196314700614746
1.1184455323941496 13.05850838981353 1869.8174495287963 30.685389806145245 0.324400548882759
1.1450725481236619 13.06396573200927 1653.2305425051277 32.08390495992768 0.32927629701918215
1.1718315605692629 13.068985940671674 1463.1011336429729 33.545183761679596 0.33425567831878783
1.198683214465651 13.073437565510151 1296.3022144557767 35.07381978041246 0.33935261195399846
1.225626431365078 13.077312813442667 1149.7987726987028 36.671900581421816 0.3445642583137426
1.2526184289280717 13.080479916638232 1020.9039189532996 38.344354152817864 0.34990430931051264
1.2796560889375976 13.082926942023981 907.3444607137412 40.09352714282337 0.3553699949869664
1.3066968075810956 13.084514065540365 807.3347045082256 41.92484952232418 0.36097563619718964
1.3337301684032696 13.08523245263014 719.1204113518489 43.84170560165478 0.36672262799194083
1.360735041587159 13.08504132903464 641.069908460403 45.848947741554746 0.3726196462867539
1.3876638874025824 13.08378593172928 572.2312146528764 47.95182239983927 0.37867617969638806
1.4145167519233157 13.081502768852285 511.1825464902794 50.154982103964265 0.38489736354366183
1.4412384481444134 13.07806230688489 457.19096091907346 52.46383634806719 0.3912911677344631
1.467832744416466 13.073472109180429 409.3250394159763 54.884699897824504 0.397868773643696
1.494237917566347 13.067614727253455 366.80575832906453 57.42375625816971 0.4046392316237325
1.5204489553708467 13.060478860054701 329.0931475408598 60.08762647348809 0.41161230123809994
1.5464305626783676 13.052004748084169 295.5259705442647 62.8834085100089 0.4187985096414042
1.5721452303947523 13.042136960266237 265.6707222361419 65.81872040792888 0.4262092147233629
1.597568152839103 13.030823489355953 239.10657713555824 68.9017475858352 0.4338566735745781
1.6226558423195114 13.018020805648003 215.4040519873729 72.14129472754615 0.44175411689995425
1.647406477603627 13.003692993203664 194.25351284919384 75.5468427354086 0.4499158300813133
1.671756464748432 12.987773525018481 175.3654119651262 79.1284569945548 0.4583565972704462
1.6956936427374871 12.970241710304311 158.48765724354843 82.89604488769974 0.46708852391737693
1.7191579850159735 12.951009738263247 143.3972159195185 86.86246305302966 0.47613370394424
1.742163263658784 12.930126950614515 129.891615645977 91.03943827431975 0.4855071052837548
1.7646434050582909 12.90749460939643 117.76693077179056 95.4407235740302 0.49522934322893236
1.7865735418503736 12.883077299599998 106.91122626373591 100.08030401980726 0.5053192268428756
1.8079141705722235 12.856840890070947 97.16320518896052 104.9745220105928 0.5158017784027672
1.82862820366807 12.828726809493288 88.4029235793178 110.1398169301741 0.5266992030966193
1.8487106146366306 12.798781579278469 80.52977037207862 115.59385244090967 0.5380350570678127
1.8681010257094668 12.76689851423615 73.44206173441292 121.35694205677689 0.5498391088039167
1.8867757247149033 12.733073022549915 67.06198011988542 127.45037867048529 0.5621407358798064
1.90470271293052 12.69727913102413 61.30683312966523 133.89678126932034 0.5749699282789633
1.9218501999468827 12.659492052119182 56.120397657860075 140.72138199023394 0.588361452756551
1.9381710368238836 12.619625820479406 51.43397602122393 147.95203270220972 0.60235427773441
1.9536748738792762 12.57781732326226 47.203574166647826 155.6174394199277 0.6169849567351836
1.968298017517275 12.53391098397383 43.3737188913488 163.75089141014504 0.6322999461862968
1.9820242291727035 12.487941713545082 39.91246325515058 172.3860990353325 0.6483407014602381
1.9948197568187045 12.43989126778172 36.7744060695757 181.56256029659596 0.66516120005442
2.0066594065816084 12.389748941806218 33.930499572354336 191.32205057798404 0.6828152148985583
2.017522528667269 12.337518045374994 31.353071264712757 201.71053655984036 0.7013618911678667
2.0273684371199794 12.283166957620304 29.014470091473992 212.77817474145442 0.7208647311165929
2.0361888079428656 12.226729648829018 26.891252056888476 224.57981096017892 0.7413921281560066
2.0439452285135244 12.168165189806327 24.95972307728822 237.28629272259215 0.7631820938799887
2.049065606634045 12.110775717439909 23.39173505607264 251.28754436685978 1.1904676177333793
