M[M_sun], R[km], Lambda[1], P_c[MeV/fm^3], rho_c[fm^-3]
0.24162668629717493 15.618656898711224 2160425.4255784233 3.5677272577965504 0.1711233750220791
0.2536418775541569 15.277372969671955 1723218.923336483 3.7848011165761215 0.1738879425913385
0.26603765495293635 14.981313018996604 1383108.8562623328 4.011362617912161 0.17666619144255574
0.2788111206037247 14.723615937330294 1116502.068454218 4.247668428669519 0.17945682079176123
0.29196495867342265 14.498499115764243 905982.0401353642 4.4943434247638585 0.18226639127198424
0.3054990012934729 14.301322047337582 738760.2422010641 4.751541420057811 0.18509057407824298
0.31941384187976685 14.128234371806665 605160.4340276368 5.019947636441046 0.18793605255621937
0.33371018871713537 13.976044612530988 497726.1360998727 5.299782064547248 0.19079937030054275
0.34838996809973144 13.842115611584251 411065.8438035319 5.591778004518394 0.1936869188892556
0.36345169188700727 13.724061686022889 340701.0884219408 5.896096810190689 0.19659365197997553
0.3789031960686782 13.620082441654569 283349.60933071794 6.213604974196562 0.19952730121118933
0.394733348104853 13.528539734153059 233340.3749627686 6.544564028231132 0.20248411834820082
0.41095613782632745 13.447951812614173 197902.79124719882 6.889668114429899 0.20546767531736923
0.42756313540172247 13.377141369671158 166115.7561182711 7.249625882221697 0.20848111172001835
0.44455566069303265 13.31500139910714 139839.27554959778 7.624702257129893 0.21152006986146146
0.46193540520274023 13.260631957097317 118006.97766585887 8.015834291072261 0.21459052754175176
0.47969712608255205 13.213225425406145 99844.47542985181 8.423732270619144 0.21769421995218868
0.49785178052457313 13.172051709543931 84666.53882933066 8.848845194117068 0.22082873338780765
0.5163877223518818 13.13646282123105 71958.15415714786 9.292030027135295 0.2239972457936407
0.5353043073687428 13.105889358493076 61293.17385398498 9.754178933339528 0.22720278697798213
0.5546081722248721 13.079852688907533 52315.09803926376 10.236101190128249 0.23044670737853987
0.5742885827408731 13.057889589947782 44743.9950524931 10.738279242911405 0.23372584851559114
0.5943421334590182 13.039559395125423 38006.214302335095 11.261935128602964 0.23704611526138933
0.6147769643800752 13.024551950193684 32912.68383568207 11.808016752634027 0.24040925946077815
0.6355751837321038 13.012453610896323 28303.110113311115 12.377502723539976 0.24381691335210517
0.6567455287741576 13.003055715129591 24185.455098107457 12.971097543529023 0.24726720415101403
0.6782744233646849 12.995989781894611 21034.824780043247 13.590096788976613 0.25076457011442915
0.7001597637997415 12.99107334191528 18179.02604162256 14.23571243398423 0.2543118161968101
0.7223911291720808 12.988004186580287 15734.684851611555 14.909133648590759 0.25791092602914023
0.7449755683954379 12.98664283783415 13639.390593770448 15.611409502298832 0.26156199322449725
0.7678920438660887 12.986766874772776 11840.140931824679 16.343766996415642 0.2652665242111271
0.7911349480507603 12.988133082880081 10293.248781033948 17.107840123818768 0.2690293978181708
0.8147060077274246 12.990649564306427 8959.954883808055 17.905083247285212 0.2728530452788821
0.8385839609059799 12.994122108318454 7810.244929220516 18.73688387514985 0.2767387496182459
0.8627632231643331 12.998392911824574 6817.456715949679 19.604541395489875 0.2806865922963051
0.8872330597726225 13.003335197451674 5957.64245442019 20.51016216788578 0.28470312678400056
0.911992383343231 13.008822892744405 5213.356649444334 21.455539404148908 0.2887913646097095
0.9370088975442321 13.014712281485203 4567.303344211936 22.442185332388277 0.2929514569947561
0.9622843000044226 13.020917368738443 4006.5454858049434 23.472068024464253 0.29718674779397114
0.987806113985055 13.027307696844845 3518.211675844635 24.5476358993409 0.3015035572979685
1.0135455579627688 13.033770385359 3093.594958318591 25.670864179810636 0.30590376576214906
1.0395058069860774 13.040216672266412 2722.7609514632904 26.84364665898558 0.3103881382137732
1.0656567105073467 13.04655621129923 2399.3784273130727 28.069110703633196 0.31496564835268953
1.0919822967812278 13.052682556942758 2116.894311037161 29.34934902502604 0.3196370059614979
1.118477710366959 13.058514815896217 1869.5296002053844 30.68703962694695 0.32440636873254275
1.1451060915999522 13.06397117638941 1652.9823286611766 32.08566120532472 0.3292823313053832
1.1718653017425693 13.068986422375193 1462.9284386057245 33.547067028058045 0.3342620251206561
1.1987184299087008 13.073444455720944 1296.100521041919 35.07583895429141 0.3393592888146169
1.2256613450393303 13.077315914261193 1149.6620388486365 36.6740498042675 0.3445711913739502
1.2526537208427346 13.08048531192738 1020.7415587440847 38.34665814726517 0.3499116078598359
1.2796924176602251 13.082926768635149 907.2009869472354 40.09597990385393 0.35537758301018046
1.3067345914636606 13.084514508460105 807.2252961309417 41.92746118645206 0.3609835316535136
1.3337688146949127 13.085232375908104 718.9348723454634 43.84450544329823 0.3667309505692766
1.3607737617869764 13.08503925532262 640.9689780603591 45.851929895229404 0.3726283179845449
1.387703632675774 13.083785547229464 572.1298921331238 47.9549996003041 0.37868522303453356
1.414558541743823 13.08149976038571 511.1263123971923 50.158389181847454 0.3849069105513583
1.4412799527991176 13.078054394318546 457.1243599665531 52.467467895844365 0.39130113860403587
1.467872403565629 13.073462283561659 409.25872026910224 54.88857199175734 0.3978791966241823
1.494279873489613 13.06760265943633 366.74268469753855 57.427886276529684 0.40465013714764286
1.5204903332481265 13.060467416154639 329.03881120804283 60.092033213110525 0.41162372210069564
1.5464733440220062 13.051991726841853 295.4746079997447 62.88811231447484 0.41881048119773906
1.5721885648194394 13.042120608502062 265.6243841699696 65.82374330866928 0.42622177510499437
1.5976100571208887 13.030803795508918 239.05924129155045 68.90711345761065 0.43386986392808063
1.62269206624711 13.01796299595985 215.37348442806015 72.1470294599315 0.44176798164961445
1.6474495340695177 13.003666779522469 194.2143720547918 75.5529744221174 0.4499304172186829
1.6717993943487526 12.98774264528395 175.34065282209065 79.13498413492074 0.4583718250142446
1.6957372857008002 12.970205425010064 158.45874104893701 82.90303114629914 0.46710457831929103
1.7192006214577962 12.950969772331133 143.37941025673095 86.86994438303938 0.47615064547582764
1.7422052985449392 12.930085975749037 129.86521735094337 91.04741779017182 0.4855248567693714
1.7646860205831134 12.907449796000456 117.75328385317479 95.44927812241013 0.49524811381821576
1.7866144511832724 12.88302889514961 106.88642504919135 100.08944104869798 0.5053389441548229
1.8079553306777074 12.856786802663551 97.1466933168302 104.98428888699281 0.5158225183852747
1.8286677901871389 12.82867128842413 88.38658093863936 110.15030663089307 0.5267212016609265
1.8487489064679776 12.798720979608312 80.51182956220758 115.60508141507168 0.5380582522536104
1.86814040012285 12.766832033034154 73.429938454963 121.36897204199005 0.549863597445313
1.88681331865879 12.733001435399348 67.05269642727592 127.46327718741578 0.5621666231003668
1.9047400979869724 12.697203004050161 61.29761768686554 133.91057480520666 0.5749971610016579
1.9218859378075537 12.659410107584911 56.11042348502167 140.7361971208716 0.5883903182649427
1.9382046998136226 12.61953754518963 51.425466836481526 147.96795811911792 0.6023849110661719
1.9537080873404906 12.577725432088913 47.19655671980276 155.63452010192958 0.6170173263373775
1.9683295217785313 12.533812174581453 43.36628998090099 163.7692845005232 0.6323343860346332
1.982053577152062 12.487836868333963 39.90314991141061 172.40586599965587 0.648377198998586
1.9948476412226452 12.439781581123167 36.768873032868505 181.58382643941098 0.6651999366284294
2.0066858434675425 12.389631635705813 33.927691020236566 191.34495395221967 0.6828563885691065
2.017546132405317 12.33739578665073 31.347637130228048 201.73522945101416 0.7014057186139474
2.027390371483491 12.283035592589194 29.00948628783318 212.80476307750962 0.7209112458197918
2.0362090891554465 12.226592930248 26.8863787624717 224.6085407465057 0.7414417882756318
2.0439622986731916 12.168024787406084 24.957109032793188 237.20809808294794 0.7630758439925522
2.0506319465276954 12.107346122070332 23.201685662699578 250.66984966601203 0.7858946992524879
2.0562082965652895 12.044604220409651 21.605617177638027 265.0670313359612 0.8099871413841245
2.060672964216182 11.979802804227708 20.154179996451045 280.48151457661976 0.8354534997716131
2.063994326564422 11.912947215449819 18.832617909629782 297.00237360904146 0.8623988414227252
2.0661599866737403 11.84406031439401 17.628463742050222 314.73010237708627 0.8909442980359834
2.067164065930781 11.77319823161615 16.53282639109272 333.77421388312706 0.9212163922705477
