M[M_sun], R[km], Lambda[1], P_c[MeV/fm^3], rho_c[fm^-3]
0.24162668629717493 15.618656898711224 2160425.4255784233 3.5677272577965504 0.1711233750220791
0.25364504517207165 15.277268581246918 1723232.5445913624 3.784840925486442 0.1738884387902012
0.2660419423270448 14.981241336898563 1382990.7725351355 4.011446304323818 0.17666720274345227
0.278818964995424 14.723442581619954 1116386.818044371 4.24779882396517 0.17945833318068927
0.2919740974809135 14.498331235657211 905776.7324626652 4.494523950760959 0.18226840147085985
0.3055109156864702 14.301162660655763 738632.5314874479 4.7517782066156435 0.1850931318249815
0.3194288812922252 14.128065878456495 605028.1277827157 5.020242427937037 0.18793911113176934
0.3337282393787594 13.975870452466717 497628.68003877136 5.300142622217588 0.19080300051800972
0.34841137819863954 13.841935659571742 410949.36456788593 5.592205228736975 0.19369105240109571
0.36347538368772975 13.7238922392261 340614.77731014875 5.896600299349937 0.19659838085670886
0.3789297830036405 13.619941005229363 283247.7425902938 6.214190821422349 0.19953264343248253
0.394764577355988 13.528368055127585 236361.37077748356 6.545231625414032 0.20248997227361523
0.41099168760981547 13.447789610736045 197825.4027024739 6.89043034974236 0.20547416683314979
0.42760173773574117 13.376977383783466 166039.21954918 7.2504899086004535 0.2084882595888188
0.44459827442260896 13.314861820204568 139769.4814343377 7.6256656866344805 0.21152773937980113
0.4619801225756923 13.26049717149646 117947.42774659797 8.016913928523723 0.21459887941028818
0.47974869233319223 13.213098423204688 99783.31008903208 8.424936535112131 0.21770327433764505
0.4979076654667579 13.171958203497322 84624.24235118895 8.850169645456806 0.22083832298140185
0.5164492520898357 13.136341994679066 71924.77382320515 9.293496099465674 0.2240075670342455
0.5353693061191862 13.105816589285649 61261.75897547348 9.755796567298301 0.22721386215632744
0.5546787480465444 13.079758013023561 51804.075080111936 10.237879149884707 0.23045853686048592
0.574363302637681 13.057801975434295 44716.18264546185 10.740213356588585 0.23373826612451207
0.5944229473582754 13.039509770671799 38318.29879663992 11.26405270250383 0.2370593459014422
0.6148609753555249 13.024482161686308 32891.62154962497 11.810330296734067 0.2404233296689695
0.635668814891715 13.012409886884662 28283.721989727026 12.38002552829572 0.2438318510662635
0.6568416591370903 13.002996814235965 24169.423973346802 12.973818023798014 0.24728275330064614
0.6783756679192435 12.995964779856404 21021.122561650576 13.593053576942365 0.25078103271765156
0.7002669725819662 12.991042753965967 18165.58546278961 14.238921383927181 0.25432922490686344
0.7225038612529885 12.987994685823075 15723.772765396896 14.9126116334782 0.2579293154462764
0.745094764031165 12.986651561901937 13629.628230115717 15.615140544035839 0.26158106383495905
0.7680178966391149 12.986760775612552 11832.322927951425 16.347801622110993 0.26528663580829936
0.7912659489634624 12.988147769821138 10286.28968467515 17.112198583030647 0.26905059152942007
0.8148438295993727 12.990671553192604 8953.120635562165 17.909787132118115 0.27287536487607034
0.8387277400415863 12.994134560387028 7804.68808423095 18.741912321802623 0.27676185272882725
0.8629104021765535 12.998421889120916 6811.430670237239 19.609959787293754 0.28071090120312825
0.8873954893042525 13.003365777004175 5953.040383539479 20.5159965842035 0.28472869410094537
0.9121543508358266 13.00886411153631 5209.044539913536 21.46181771022856 0.28881824649822685
0.9371764688140297 13.014756359647812 4563.355949923003 22.448881374791945 0.2929792685427526
0.9624641294910261 13.02096040563901 4002.8273378139615 23.47926583541785 0.2972159802429317
0.9879862334815068 13.027350782355903 3515.008681082885 24.555369359231246 0.3015342786628671
1.0137310943048905 13.033809471174242 3090.4539237758495 25.67910335306841 0.305935562318526
1.0396977034569508 13.040269268718067 2720.2067504942247 26.85249227312586 0.31042155535116944
1.0658517824352638 13.04659613390027 2397.120253771416 28.078604165780717 0.3150007687972469
1.0921875659417748 13.052727826450278 2114.661418595083 29.359456688204563 0.3196733873428038
1.1186873535477166 13.058558313563816 1867.5156005765828 30.697882168655898 0.32444461650100026
1.1453218170622956 13.064012718943344 1651.3058089894196 32.097203237262875 0.3293219885902783
1.1720883333655028 13.069018423667181 1461.3665956457085 33.559443939305304 0.3343037365876723
1.198945307703033 13.073482487574903 1294.7982161864752 35.08910916249036 0.3394031697955692
1.2258942098913557 13.077344558369694 1148.4956220014722 36.68817479974236 0.34461675642284983
1.2528920153490335 13.080508439436484 1019.6279276822746 38.36174053995076 0.34995922393431755
1.279936967649058 13.08294040280409 906.2663642989364 40.112100036910434 0.35542745331646874
1.3069894391927013 13.084545089585356 806.3501689076869 41.944625786662606 0.3610354228403756
1.334021536409048 13.085242051610102 718.1728533348131 43.862906957536865 0.3667856493861562
1.3610325019435932 13.085032376092387 640.2819194082454 45.87152976562557 0.37268531174521574
1.3879717867322625 13.083782031761402 571.4799358745938 47.97588154500054 0.37874465978997807
1.4148163380921317 13.081456539830478 510.5872170877309 50.180782181909144 0.3849696582052908
1.441549009297705 13.078013411285017 456.6448676600615 52.491336402462686 0.39136667258045316
1.4681439681545447 13.073412462520713 408.79734009491045 54.914021693753575 0.39794770264492707
1.4945539993380528 13.067539010950973 366.3364562817096 57.45503142374344 0.4047218152919483
1.5207674766461146 13.060386436111926 328.67400080082706 60.1209973829 0.41169878798425297
1.5467516654112408 13.051890688546615 295.13219765339807 62.91902925470055 0.4188891672686192
1.5724693544008073 13.042002303770353 265.321684678293 65.8567578656791 0.4263043320689619
1.5978830209123576 13.030660856934054 238.77930000307433 68.9423825987779 0.433956562317307
1.6229912108087658 13.017851268836582 215.10268422312518 72.18472340147737 0.44185911355048113
1.6477335688194654 13.003488630100264 193.9770989387134 75.59327787427327 0.4500262981762378
1.6720808781198968 12.9875472526014 175.13793752002297 79.17788722416007 0.45847191743059673
1.6960186706509883 12.969985731358054 158.27133090649977 82.94895246570043 0.4672101053775306
1.7194974397733223 12.950767459255474 143.19705453610857 86.91912032665914 0.4762620047931018
1.7424797634516183 12.929819363397165 129.70507778646515 91.09986882700524 0.4856415410197931
1.7649614117022978 12.907156146118886 117.60526338671333 95.50550953957577 0.4953714981033425
1.7868724646020417 12.882679923275713 106.76166381377101 100.14950180872249 0.5054685526692936
1.8082240240169047 12.856440047476417 97.03169864278368 105.0484904394249 0.515958850516436
1.8289368519491682 12.828304243398515 88.27886139034851 110.21902875448734 0.5268649466872752
1.8490098987320354 12.798311888757166 80.41821330016909 115.67889545158229 0.5382107265817755
1.8683828928783206 12.766362657876163 73.34370740042793 121.44805235501806 0.5500245759829363
1.8870579315177374 12.732532702494 66.96933871154144 127.54794104101293 0.5623363444065627
1.9049792184799572 12.696701532879839 61.22086980162362 134.00124980819473 0.5751761816118948
1.9221187786407588 12.65886918141717 56.04150586659792 140.83358890519958 0.5885800744970374
1.9384284121892024 12.618966673642046 51.36153065004418 148.07264992050872 0.6025862909548889
1.95392153271849 12.5771070285874 47.13690887395227 155.74680767720508 0.6172301225326694
1.9685336942382885 12.533165798722496 43.316087516969574 163.88987376831793 0.6325596863919389
1.9822445400824777 12.487149118283696 39.856613305312734 172.53581616408712 0.6486171377687513
1.9950301382115716 12.439051703629001 36.724832248981876 181.72363403746235 0.6654545981068221
2.0068600176083238 12.388879247400151 33.883015820190984 191.49552688522004 0.683127075336612
2.017701392960695 12.336589077981156 31.310277373566112 201.89756924062752 0.7016938557270114
2.0275336810516715 12.282192823888531 28.974755115138212 212.97956633391513 0.7212170536587267
2.036337464503382 12.22570641421176 26.85523562177123 224.79742544745324 0.7417682799779265
2.0440755574535965 12.167094335936456 24.92857740186166 237.41198443718 0.7634234889558374
2.0507289638609936 12.106368683693686 23.175329763942663 250.8903600556549 0.7862659693097351
2.056295092766118 12.043603792875228 21.582712104194286 265.30588916717466 0.8103845098412216
2.060735180736966 11.978736467934548 20.13205042410451 280.7399088931058 0.8358773265914006
2.064033155118831 11.91182290396311 18.81172028730696 297.2827124856695 0.8628530406342951
2.066186427676078 11.842904207338684 17.609235073725092 315.03463696785315 0.8914317980184572
2.067171558947293 11.771996198832746 16.515314216942595 334.10495277072226 0.9217387679242685
