M[M_sun], R[km], Lambda[1], P_c[MeV/fm^3], rho_c[fm^-3]
0.24162668629717493 15.618656898711224 2160425.4255784233 3.5677272577965504 0.1711233750220791
0.25363497467628693 15.277518519239662 1723437.3815293068 3.7846546491499433 0.1738861169455294
0.2660220038222493 14.981644665258322 1383501.3751862918 4.011054724396512 0.17666247073112545
0.27878575139157397 14.724077447077649 1116952.828137544 4.247188703093642 0.17945125669801207
0.2919285913695193 14.499059629637276 906418.1249937817 4.49367928967267 0.18225899597360615
0.30545432207458595 14.301882703357 739207.716801635 4.750670337644272 0.18508116472569097
0.31935870674251204 14.128843687709354 605565.7535445736 5.01886320158745 0.1879248011260599
0.33364470403775787 13.97668964052064 498183.27452027274 5.298455742022077 0.19078601643348134
0.34831191406542 13.842770730958998 411466.2657047989 5.590206494641842 0.1936717140988925
0.36336038227562767 13.724730583098346 341063.81093931885 5.89424482466685 0.19657625774001372
0.3787994360498911 13.620728835429716 283694.500928833 6.211450118677139 0.19950765152346714
0.3946165408762546 13.529166389503578 236752.05974313285 6.542108551766089 0.2024625871367886
0.41082610547804765 13.448574413851594 198186.3235786085 6.886864637868839 0.20544379973454197
0.42741820105090184 13.377690919473721 166374.20871485458 7.246448119022778 0.20845482289946463
0.44439612998818684 13.315536851943966 140053.64918015132 7.621159001123071 0.21149186326534103
0.4617594514054237 13.261145653991644 118200.69411709053 8.01186377081825 0.21455981235755922
0.4795064440673142 13.213696841960818 100007.08607828389 8.41930354983139 0.2176609221631029
0.497644819781928 13.172482376120879 84818.14384151695 8.843974611053829 0.22079346828538976
0.5161626284855155 13.136845582279356 72101.02424818656 9.28663880206613 0.22395929123305006
0.5350620832007138 13.106257120043173 61418.1921800746 9.74823054272328 0.22716206114715667
0.5543520741149025 13.080173875327805 52424.97364648727 10.229556892449464 0.23040312490893797
0.5740099532216834 13.058148164433499 44840.58108633692 10.731167477550576 0.2336801887790254
0.5940514214702091 13.039802444999289 38426.28168474154 11.254149004741345 0.2369974674186019
0.6144620707680976 13.024760956720227 32986.66197734893 11.799510312709298 0.24035752611335418
0.6352420939337466 13.012638802022222 28370.707275669232 12.368227144480036 0.24376199196021575
0.6563876114155357 13.00317654652536 24440.615327875108 12.961095417668641 0.24721003610116082
0.6779017329616581 12.996107982670983 20927.817977062376 13.57922616913929 0.2507040454155883
0.6997655635956208 12.9911437891212 18226.052971964735 14.223915084389958 0.25424781499949134
0.7219757150198857 12.988054449078078 15777.536613023787 14.896347593814564 0.25784332133779864
0.7445380328229819 12.986675298331042 13676.341342368438 15.597693469281731 0.2614918859619181
0.7674342400478084 12.98673101554824 11873.675801316105 16.328935361517896 0.26519259223106434
0.7906541208484777 12.98809855692881 10322.604455686916 17.09181851642535 0.2689514901667881
0.8142016384552283 12.990593442803132 8986.7744194574 17.8877923688584 0.27277100129710397
0.8380599892537126 12.994040735784484 7834.542024095861 18.718384079459188 0.2766536829540339
0.8622179173928312 12.99829230414689 6838.053611667195 19.5846251441632 0.28059724063712477
0.8866639542319216 13.00320792321609 5976.629196018089 20.48871738012373 0.28460915239896034
0.9113981083194506 13.008685697752137 5229.959445176993 21.432463756913414 0.28869256137065435
0.9363967110292875 13.014576755683867 4581.830725650333 22.41757490737839 0.2928492393003162
0.9616454468437116 13.020753766462931 4019.4912657318223 23.445614210730433 0.2970793109962042
0.9871436320806104 13.027142082815562 3530.0041756433016 24.519214298924513 0.3013906517718814
1.012860691741169 13.033602508984256 3103.9463635748557 25.6405847514915 0.3057869116167768
1.038797676649633 13.040046479953242 2732.205420796866 26.811139525382558 0.31026533211656576
1.0649265092730011 13.046388598754215 2407.9316329221233 28.034223847697962 0.3148365867026175
1.0912296832080368 13.052507639724983 2124.277488821856 29.312206018727707 0.319503313944746
1.1177023531454267 13.058352673270562 1866.9449129234363 30.64719739393155 0.3242658226738686
1.1443121757377517 13.063827703793725 1658.8046943111653 32.042995081193354 0.3291349621012139
1.1710484434455604 13.068840087038637 1468.2792839805904 33.501589202217986 0.334108760158615
1.1978806968634597 13.07330647062731 1301.0808048139995 35.02708038264497 0.33919805743666076
1.2248042320735717 13.077201993929089 1154.0285488395064 36.62215188071299 0.34440377670618927
1.251782549880559 13.080406023812156 1024.64567120679 38.29102431015235 0.3497353720600122
1.2787981998288072 13.082862651621037 910.7287966082379 40.036755071025524 0.3551943611631476
1.3058212932285986 13.084473745157279 810.3583949356788 41.864400774392124 0.36079289047424584
1.3328368209835428 13.085226094989238 721.8064768056579 43.776903129941786 0.3665300015326393
1.3598285914532968 13.08505970304702 643.6211173152935 45.77992721403236 0.37241894396844877
1.386741449441022 13.08384950802411 574.4201324560257 47.87828930534835 0.37846688077246754
1.413573271621311 13.081586455058469 513.2105120042627 50.07613098567358 0.3846764140206385
1.4402998113895997 13.078218333645196 459.02542520775165 52.37979226537326 0.3910604141719822
1.466867016102004 13.073644945896746 410.9680479786374 54.79509110340143 0.39762756288489937
1.4932693399610173 13.067852056224487 368.3008063167721 57.32818091186703 0.4043868600521076
1.5194641340203447 13.060766097350573 330.4298715031153 59.985649949954286 0.41134801063709836
1.5454444867431447 13.05235396178913 296.72431201509863 62.774560437856344 0.4185214826439705
1.571154328556354 13.042546479082217 266.76421125196975 65.70249141056706 0.4259185698074148
1.5965725111289708 13.031297754907817 240.07632134234018 68.77758569046387 0.4335514595553044
1.6216681125338372 13.01856518861048 216.29008648649517 72.0086014046843 0.44143330686394355
1.6463997727964232 13.004297098471508 195.06464010930037 75.40496852667444 0.44957831470091447
1.6707643192802808 12.988462210257262 176.11260087392236 78.97685098175822 0.4580018218336904
1.6946962130814875 12.971008693095298 159.16551840125547 82.7344064977292 0.46671707936799195
1.7181868364455182 12.951899236527778 144.00658578712245 86.6893757109896 0.4757417462751118
1.7411892613490016 12.931085813123978 130.43320641831087 90.85482989489608 0.4850964195914389
1.7636748432640168 12.908534622603563 118.28226333986446 95.24281805702375 0.4947950943344656
1.7856113649563954 12.884198445809545 107.37215300886061 99.8689291138251 0.5048630889660067
1.80695947728448 12.858055222975691 97.57713136072171 104.74841797427338 0.5153213727191674
1.8277045887285726 12.830076515630735 88.78811410845331 109.89716511599593 0.5261903237985843
1.8477848125675076 12.800185484780355 80.87250368151972 115.334107617327 0.5374985138933388
1.8672048418908094 12.768443008977425 73.75760679147038 121.07867753530334 0.5492726642107675
1.885902932768749 12.73472775862327 67.34952505481435 127.15203420447507 0.5615419609170561
1.9038440695180308 12.699018644876286 61.571605382777356 133.57723963612017 0.5743382677616218
1.921020552951309 12.661353278904034 56.36224204907898 140.37872861333358 0.5876938336738555
1.9373889038178758 12.621675192294367 51.660106003996674 147.58371353663273 0.6016457974944015
1.9529279852625117 12.579993591684907 47.403387563430655 155.2224150061232 0.6162363459285228
1.9675796726631256 12.53620251202218 43.559741874850396 163.32553170704915 0.6315034882033346
1.9813423466607325 12.490361738482639 40.081751687048545 171.92898381792693 0.6474966881912426
1.9941902535833567 12.44248145514958 36.92955057981575 181.0707950112663 0.6642654427684803
2.0060596268309547 12.392442633586665 34.076365707328264 190.79244638116282 0.6818631390822858
2.016962016849614 12.3403427422071 31.48458924664015 201.1395760786972 0.7003484926344449
2.0268595207072924 12.28614168933268 29.13624254345685 212.16244033411795 0.7197860565652342
2.0357282542872457 12.229846388691506 27.001888370304354 223.91556286871707 0.7402439595164106
2.0435451544418366 12.171459658254252 25.0626297835846 236.4593252533696 0.7617978771581814
2.050279702618447 12.110960856605868 23.300228828340156 249.85986039527114 0.7845292404311038
2.0559056186747204 12.048347221686159 21.69700251662036 264.1906231250973 0.8085287472030032
2.0604318038338865 11.983709500964695 20.236480620142082 279.53210770849927 0.833893596974939
2.0638269891870458 11.917034668640552 18.908708805723606 295.9736601855488 0.860731293441477
2.066060966946293 11.848314308740646 17.698859783688814 313.613231627149 0.8891564076369036
2.067136709261542 11.777620085110609 16.597291124147375 332.5613186729033 0.9193007211713851
