M[M_sun], R[km], Lambda[1], P_c[MeV/fm^3], rho_c[fm^-3]
0.24162668629717493 15.618656898711224 2160425.4255784233 3.5677272577965504 0.1711233750220791
0.25364168597797415 15.277380453417699 1723260.3447770597 3.784798310717576 0.17388790761766532
0.2660383881513948 14.981270216730925 1383043.5791301276 4.01135671947499 0.17666612016342353
0.2788113819314654 14.723574437590925 1116462.679570291 4.24765923813895 0.17945671419545645
0.2919642931983661 14.498500486093192 905952.3752931873 4.494330701013273 0.18226624959006843
0.30549786732522505 14.30132978156451 738766.8757763302 4.751524731103415 0.18509039380568415
0.3194127571098298 14.12824352525601 605210.5015014161 5.019926859390154 0.18793583698629715
0.33371012202009087 13.976048855300428 497754.4204489103 5.2997566524526585 0.19079911444291653
0.34838856357026193 13.842130874004257 411071.30085464986 5.591747893976013 0.19368662756147495
0.36344994293819055 13.724115987102614 335788.0652925608 5.896061324792412 0.1965933186936054
0.37890136618534537 13.620088820487343 283352.4998604488 6.2135636845841065 0.19952692469963967
0.3947307600522024 13.528557973608597 236448.86074498782 6.544516977317104 0.20248370577524746
0.410953728502699 13.44798769441796 197913.11369493336 6.889614393989502 0.2054672178115559
0.4275598464144604 13.377160270105252 166119.6436794715 7.249564988229107 0.20848060795962345
0.44455208507304095 13.315012656253163 139837.99007562862 7.624634357929701 0.2115195293401689
0.46193131058879544 13.26067513923722 118011.8893525321 8.015758202461157 0.21458993893482986
0.47969441158729553 13.213219751223209 99848.29824262457 8.423647399367015 0.21769358183902052
0.497847668541063 13.172053062065284 84662.65147268305 8.848751853190025 0.22082805755961435
0.5163829081768361 13.13646881276192 71956.96947050847 9.291926706146784 0.22399651840744025
0.5352994975956445 13.10589817800464 61296.66514623912 9.754064931864072 0.22720200646353667
0.5546037025001194 13.079872307809442 52317.178438065275 10.23597576518474 0.23044587209734452
0.5742810627030273 13.057896655476807 44745.731168186496 10.738142939487194 0.2337249734053862
0.5943372097299586 13.03955859394725 38342.14805407087 11.261785897124463 0.23704518286041112
0.6147715475396018 13.024528252301376 32913.26795362076 11.807853711665059 0.240408267899659
0.6355682278524394 13.012457249135167 28304.567252532346 12.37732493666032 0.2438158606627984
0.6567383141332993 13.003040834735856 24379.94603648897 12.97090582715409 0.24726610837883192
0.6782677318463254 12.995997999710784 21036.557290573975 13.589888421023947 0.2507634099774938
0.7001521668596014 12.99106391113321 18179.633277341578 14.235486297416063 0.2543105893948912
0.7223832896540351 12.98799017043205 15735.272564142617 14.908888554605722 0.25790963012485246
0.7449670125324601 12.986643943356107 13639.599925871464 15.611146576817955 0.2615606493238444
0.7678822741104573 12.986757061186932 11840.46366542067 16.343482679350704 0.2652651069618676
0.7911257120455675 12.988131294519881 10293.774795970496 17.107532988499123 0.26902790432311613
0.8146970752777715 12.990650883551092 8960.587941209733 17.904751772464596 0.2728514724545599
0.838573669246082 12.994117988559374 7810.635854116533 18.736529530947525 0.2767371215899789
0.8627530335102371 12.998375393742634 6817.887203979216 19.60415957523496 0.28068487930962277
0.8872238418475774 13.003324778346927 5958.64541614649 20.509751034229556 0.2847013251325717
0.9119812405342709 13.008818633122234 5213.882775322146 21.455096993939826 0.28878947033731045
0.9369976545579689 13.014707681259502 4567.6996725176205 22.44171348837376 0.29294949722334707
0.9622715385891308 13.020914057026975 4006.6778513934505 23.471560826267353 0.2971846879113903
0.9877943298952765 13.027303326974073 3518.4558957250333 24.5470909600913 0.30150139251302466
1.0135334394238855 13.033757209574905 3093.8280918604282 25.670283608664107 0.3059015252262829
1.0394917888575264 13.040215001424691 2722.950638919174 26.843023359529845 0.3103857835006667
1.0656427248431146 13.046556733650466 2399.4967475199496 28.06844175881316 0.3149631736349207
1.0919675673562985 13.052679256769014 2116.889577770335 29.34863680540484 0.3196344424081667
1.1184628773821854 13.058511819805654 1869.659601929068 30.686275630861513 0.32440367368684564
1.1450895209047225 13.063966211213138 1652.9248709834192 32.08484792596211 0.32927953695759804
1.1718498132517117 13.068983126085705 1463.018689673666 33.546194927527225 0.3342590860519499
1.1987019364209675 13.073447221365814 1296.1810058187277 35.074903917359606 0.33935619690097246
1.2256456184879392 13.077313877280679 1149.7339242853438 36.673054543932565 0.34456798081817275
1.2526374201588408 13.080479072692244 1020.803673953012 38.34559121480154 0.349908228051686
1.2796759386746774 13.082926831111578 907.2992209871447 40.09484408009929 0.3553740691509378
1.3067168226575003 13.084517455493295 807.2478720542188 41.926251777315215 0.3609798754264682
1.3337510456846413 13.085228106878427 718.996570972257 43.8432088921496 0.36672709654873603
1.3607565967383872 13.085039446090294 641.0362939107355 45.85054891829805 0.37262430229122
1.387685867892033 13.0837872378615 572.1763473120972 47.95352830027091 0.37868103523969315
1.4145394256812953 13.081499515225802 511.15971246122956 50.1568114290279 0.38490248951408595
1.4412603583579664 13.078059422923324 457.1635166258751 52.46578619439924 0.39129652128194664
1.4678541666859979 13.073467394256546 409.2985355696983 54.886778896938175 0.3978743699354102
1.494260414759827 13.067611000597072 366.7731233427172 57.42597374063399 0.4046450869991636
1.5204707701977218 13.060472788255451 329.0581718144239 60.089992531506105 0.41161843330530434
1.5464534140279123 13.051996338395526 295.4894032620663 62.885934066238214 0.41880493738279845
1.5721687296251141 13.042128199965573 265.65194017969714 65.82141729124056 0.426215958612076
1.5975911624252264 13.03081217681319 239.084836592849 68.90462861479031 0.43386375570250796
1.6226724797276213 13.017975054049767 215.38262177192416 72.14437380246541 0.4417615611188073
1.6474302925716484 13.003676552653143 194.2311620640248 75.55013494002046 0.4499236621580652
1.6717791819317533 12.987757231771944 175.34915474610935 79.13196152317482 0.4583647732956223
1.6957177289566543 12.970221780316482 158.48009238315296 82.89979592226351 0.4670971437838796
1.7191803219532842 12.950986185562144 143.39128876310903 86.86647989702324 0.4761428001195606
1.7421851758734446 12.930104539823153 129.87394326505785 91.04372259994408 0.48551663633126535
1.764666895631253 12.907470398809888 117.76436055771242 95.44531664067311 0.49523942144272887
1.7865959081213099 12.88305193923606 106.89631071708683 100.08520982637934 0.5053298133606258
1.807936586051068 12.856812360454205 97.15812695262386 104.97976598868804 0.5158129140012442
1.8286494344347377 12.82869669647791 88.39452269900497 110.14544899938987 0.5267110144380622
1.84873145222646 12.798748955418118 80.52369638272722 115.59988143290309 0.5380475108848259
1.8681215568151026 12.766863169177565 73.43412010781964 121.363401118701 0.5498522570870121
1.886795758423779 12.733035047980465 67.05462653144787 127.45730405440162 0.5621546350700678
1.904723121270783 12.697238852955437 61.301079097706115 133.90418719642034 0.5749845498785787
1.9218700822536667 12.659446720533008 56.11359777895334 140.72933641926303 0.5883769510092163
1.938188785986615 12.619577903973664 51.428318651660206 147.96058325178072 0.6023707251419261
1.9536930052152315 12.57776834035084 47.20072842947912 155.62661023936008 0.6170023363560199
1.9683154909996101 12.533857611124542 43.37026444841352 163.76076686964583 0.6323184373327255
1.9820392787572756 12.487887455967433 39.90706817012576 172.3967121359161 0.6483602973900533
1.9948348585466058 12.439832637991499 36.77253123123269 181.57397831425243 0.665181998131901
2.0066740364293465 12.389687729097643 33.927894900214206 191.33434763321966 0.6828373214622364
2.0175349917626684 12.337451995397242 31.35010331540065 201.72379441452597 0.7013854225521542
2.0273798341778604 12.283097207514196 29.011962189645175 212.79245026832746 0.7208897052967796
2.036199565872114 12.226656662915053 26.88858517741322 224.59523623868537 0.7414187911171289
2.04395438659239 12.16809101450248 24.958947169830576 237.19373707867885 0.7630513571610491
2.050624734831817 12.107414855289056 23.203558265202844 250.65429727853098 0.7858684814426394
2.0562026831485345 12.044676787527402 21.60744422318261 265.0502028959664 0.8099591378822614
2.0606683924501707 11.979877480138494 20.15599439448994 280.4633149668226 0.8354236481756238
2.0639905337298643 11.913025578947535 18.83350279800317 296.982628655097 0.8623668510594124
2.066157990144583 11.844141966613181 17.630204837481198 314.70865358427767 0.8909099627373498
2.067164343673322 11.7732823907075 16.534061052056135 333.75091983278236 0.9211796011787439
