M[M_sun], R[km], Lambda[1], P_c[MeV/fm^3], rho_c[fm^-3]
0.24162668629717493 15.618656898711224 2160425.4255784233 3.5677272577965504 0.1711233750220791
0.25364328053371066 15.277290542174383 1723300.6313155158 3.784807482718166 0.17388802194222794
0.26603777690534297 14.981338263111224 1383136.6092399505 4.0113760007513335 0.17666635316626914
0.2788122405285701 14.72358718750243 1116466.5499744378 4.2476892809043 0.17945706264626105
0.291966244661226 14.49846365454202 905947.323613951 4.494372293506741 0.18226671273213632
0.30550068174300793 14.301293765537155 738670.4378396517 4.751579285459277 0.18509098309684602
0.3194168111699556 14.128186531751927 605148.8197390673 5.019994777356859 0.18793654166141566
0.333713706888876 13.97599549930697 497705.9627408656 5.299839721975873 0.19079995081517803
0.3483931257306316 13.842041255500664 411018.9214346633 5.591846322343634 0.1936875798830084
0.3634548628814609 13.724055378139555 340687.6632695884 5.896177323155139 0.196594408174776
0.37890818547353317 13.620038580619386 279420.7982405627 6.213698656511506 0.19952815548110078
0.39473784050634325 13.52851652195444 236434.10904979275 6.544670782558202 0.20248505443943118
0.4109623704431936 13.44791636257163 197883.48513724713 6.889790001502799 0.20546871335883
0.427568642825531 13.377107363844505 166102.79221827738 7.249764045678355 0.20848225471088702
0.44456290752317923 13.314969501938055 139819.07639893037 7.624856315034538 0.21152129626144137
0.46194264150612085 13.260611501195577 118000.00436024998 8.016006930358044 0.21459186304620015
0.4797051972520667 13.213222934040306 99828.67627423644 8.42392483733625 0.21769566778469798
0.4978612052674858 13.17202072328592 84655.48488461919 8.849056978187857 0.22083026679496853
0.5163983534487478 13.136429043158085 71950.15694401124 9.292264455613754 0.22399889618474395
0.5353144844131774 13.105874163696623 61287.75232528135 9.754437595512075 0.22720455791613325
0.5546191309103836 13.079857547877804 52310.34651081419 10.236385771844091 0.23044860258175168
0.5742999702204635 13.05786724345468 44739.702295449955 10.738588507636727 0.23372783409092593
0.5943556336251452 13.039541943169773 38337.25456306377 11.26227372683617 0.23704823082927778
0.6147899407403821 13.024524276093095 32908.8784781762 11.808386684393302 0.24041150926309207
0.6355907870082232 13.012455572054634 28300.562905880764 12.377906113608566 0.24381930185463402
0.6567608995339062 13.00302828433004 24376.753471212578 12.971532539492912 0.24726969040956515
0.6782911883487562 12.995981614371116 21033.537020535503 13.590569567308933 0.2507672024175186
0.7001771731624851 12.991067431579186 18040.821580965476 14.236225529310156 0.2543145997639949
0.722408967604161 12.98800418087668 15734.193937935983 14.909689758375919 0.2579138663912015
0.7449945016404652 12.986643494859042 13637.668664532237 15.612006071839607 0.2615650424922695
0.7679132735204421 12.986752086589965 11838.901023386365 16.34441210370392 0.2652697399091607
0.7911548543493526 12.988133898378253 10291.403121077075 17.108537006076013 0.26903278652060364
0.8147278952776529 12.990660264960527 8959.099929820404 17.90583535633869 0.2728566139825625
0.8386081018557676 12.994122354273967 7809.712726937015 18.737687875273853 0.27674244358281486
0.86278549514157 12.998400651276862 6816.574543105929 19.60540773950091 0.28069047903550803
0.8872595516127255 13.00333804633953 5956.76213676553 20.51109502489265 0.28470721470804644
0.9120170234630105 13.008839186578045 5212.677970514123 21.456543228726318 0.28879566269585544
0.9370367889547769 13.014724935775973 4566.6975907842625 22.443255943265164 0.2929559037028253
0.9623116764802504 13.020921997068218 4005.9418757953167 23.47321885544689 0.29719142166053686
0.987834929495256 13.027320998306214 3517.647187751923 24.548872366489704 0.30150846919497215
1.0135759368786976 13.033771970424889 3093.1431588457585 25.672181497325326 0.30590884954413927
1.0395370087846854 13.040229121285972 2722.3703096266945 26.845060929292018 0.3103934810723239
1.0656853176806402 13.046555277559797 2399.143401292945 28.07062854587247 0.314971263511141
1.0920144388811015 13.052684304318685 2116.561883772877 29.35096506020755 0.3196428226959007
1.1185110770747875 13.058521857808683 1869.25926445183 30.688773146267735 0.32441248383427607
1.1451390981444332 13.06397727783218 1652.639461295494 32.08750655152203 0.32928867173315785
1.1718999618633348 13.06899422401605 1462.677681272025 33.549045843737865 0.33426869393352154
1.1987541233872756 13.073452485753585 1295.8933790162137 35.077960577490195 0.33936630444736193
1.2256984216302957 13.077321062060708 1149.5074589709136 36.6763080789044 0.34457847621835547
1.252692126160232 13.080486970608952 1020.5505475636257 38.34907905203489 0.3499192767554313
1.2797316532099485 13.082929784595214 907.0617240512886 40.098557128707455 0.355385556082882
1.3067746488102419 13.084521111453709 807.0822951908834 41.93020538294784 0.3609918277752643
1.3338091639241167 13.085231512546018 718.8406087338813 43.8474473734617 0.36673969550717667
1.3608156565787244 13.085036377166814 640.8818859966956 45.855063395567726 0.37263742977787484
1.3877459096322284 13.083778559523056 572.0462513043285 47.95833805275696 0.37869472534789034
1.4146007585710474 13.081495490464441 511.0361604070684 50.161969187352376 0.38491694212130784
1.4413229391687488 13.078046349976894 457.06141909871525 52.471283772074074 0.39131161557047733
1.4679157235858913 13.073455313501956 409.1917115967166 54.89264063212942 0.3978901486723349
1.4943241989304887 13.067593457510233 366.6812843194233 57.43222594270974 0.404661596257304
1.5205344657497977 13.06045481504745 328.96698986076257 60.09666365750203 0.41163572273465265
1.5465171926085577 13.051974882904805 295.4113737632694 62.89305491492812 0.4188230605088468
1.5722331470792779 13.042100339452182 265.5788131742403 65.82902121677314 0.42623497316393016
1.5976565692335758 13.030780158160809 239.0248655181822 68.91275176209146 0.43388372397400965
1.6227436985529855 13.0179695380489 215.31646688638753 72.1530553668741 0.44178255036627295
1.647495518481376 13.003637585913843 194.18212937178055 75.55941745393379 0.44994574503868506
1.671844221590808 12.987710609273623 175.30660958066053 79.14184271432696 0.45838782600153205
1.6957820273463546 12.970170681430135 158.43051701152072 82.91037217603436 0.467121447984242
1.719246634230179 12.950933868514957 143.34426747232618 86.8778056450816 0.47616844736653874
1.7422500788761965 12.930041471442092 129.83648496504244 91.05580255700123 0.48554350978924515
1.7647302292799298 12.9074012506583 117.73031568713934 95.45826715030712 0.49526783775257416
1.7866568521144888 12.882977937931797 106.86220615798864 100.09904216413352 0.5053596629454002
1.8079976880433748 12.85673190664817 97.12707570440722 104.99455186673443 0.5158443118442682
1.8287101115394917 12.828610316102097 88.37125419606558 110.16132583119715 0.526744305224101
1.8487914095499474 12.79865662100142 80.49957356022931 115.61688082554106 0.5380826257639766
1.868180085130181 12.7667627603071 73.41568241092847 121.38161318997795 0.5498893301901524
1.886852950185989 12.732925133789458 67.03632754190589 127.4768310299119 0.5621938255541085
1.9047780533767047 12.69712235414185 61.284021352112205 133.92506917652142 0.5750257773910955
1.9219237759318455 12.65932365153029 56.0990440417986 140.7517650403773 0.5884206504923204
1.9382404449276682 12.619448098170462 51.413310628846325 147.98469279338178 0.6024171010447203
1.9537517267464488 12.577655771447484 47.182310850246786 155.65246879848192 0.617051340914034
1.9683612066708693 12.533709365495426 43.357587263950414 163.78858141562517 0.6323704714353108
1.9820820048858896 12.487725636479253 39.896362121093304 172.42663762552536 0.6484155515346315
1.994877405004319 12.439665308176858 36.7611192422872 181.60617351231346 0.665240642131581
2.006711206273034 12.38950677904894 33.91960988348915 191.36902155579241 0.6828996551886967
2.0175709257275583 12.337266482132879 31.34204955709844 201.7611776271851 0.7014517740670743
2.027412661594759 12.282899178576832 29.00335226060045 212.8327031479254 0.7209601253013829
2.036229568958481 12.226450668007848 26.880910820554625 224.6387312506536 0.7414939732807854
2.043980404553831 12.167875672044895 24.952455968645523 237.24068606893383 0.7631314095022416
2.050647152386359 12.10719068793761 23.197669670316692 250.70514124361583 0.7859541928750585
2.056221232203577 12.044440755096181 21.601748228244617 265.1052186504227 0.8100506872940247
2.0606815382576555 11.979633213179664 20.150461873494926 280.5228134836637 0.8355212395914016
2.0640013372027664 11.912769844994548 18.829441335915742 297.04717938132234 0.8624714348021685
2.066164430366755 11.843875750057101 17.62569393221433 314.7787747040982 0.8910222128584196
2.0671656885834517 11.773004569603264 16.529985443391826 333.827073700627 0.9212998801298765
