M[M_sun], R[km], Lambda[1], P_c[MeV/fm^3], rho_c[fm^-3]
0.24162668629717493 15.618656898711224 2160425.4255784233 3.5677272577965504 0.1711233750220791
0.2536439277932409 15.277300272651198 1723197.9980068235 3.7848186392243486 0.17388816100269544
0.2660398325098928 14.981276450074535 1383030.911506285 4.011399453922396 0.1766666365840003
0.2788148882924423 14.723530454279025 1116499.385563635 4.247725824165021 0.17945748649301588
0.29196943268783526 14.49841978170271 905886.2829480786 4.49442288574639 0.18226727608846666
0.3055041584359123 14.301256565408636 738638.1268364328 4.75164564447874 0.1850916999009043
0.3194208019326785 14.128145577635973 605114.5680160463 5.020077391936472 0.18793739881956542
0.33371871919574675 13.975943933091617 497669.28525895486 5.299940767080776 0.19080096817172026
0.34839939176610357 13.842040210923987 411013.6643816977 5.591966050220097 0.19368873828314917
0.3634611597365935 13.724010902055477 340652.5360119168 5.896318423592943 0.1965957334199479
0.3789151731324691 13.620008185325517 283307.14209351345 6.213862836962817 0.1995296526091306
0.39474667963248844 13.528467775633104 236404.7923443856 6.544857872523526 0.20248669496568092
0.4109720228151528 13.447878199623528 197872.2756321167 6.890003612652241 0.20547053256101708
0.42757900506516905 13.377074016389676 166084.36215533814 7.250006182431175 0.20848425784618876
0.4445742524645768 13.31493938683621 139800.0551206269 7.625126308114955 0.21152344557996647
0.4619544321983404 13.260620519592463 117983.06469436678 8.016309488964911 0.2145942035816324
0.4797200341234876 13.213176641694515 99815.93009563626 8.42426232067421 0.21769820518760638
0.49787667713444583 13.172018723984902 84648.51743086617 8.849428141875197 0.22083295417865093
0.5164147775627366 13.136405546454363 71941.74837223311 9.292675306066192 0.22400178859754263
0.5353324250901337 13.105853060842037 61280.87264935329 9.754890918277955 0.2272076616037462
0.5546385269916367 13.079836479878951 52303.09262367565 10.236884521727829 0.2304519240614144
0.574321512560211 13.057864060433339 44731.55725115107 10.739130517557292 0.23373131396250962
0.5943781445933876 13.039525190842111 38329.614657511 11.262867147588981 0.23705193853288006
0.6148140969590045 13.024520911087569 32901.972065328024 11.809035021461922 0.24041545223419578
0.6356181190578601 13.01243667913866 28293.255712891012 12.378613091167859 0.24382348792122244
0.6567879397329637 13.003029162284157 24372.429863284637 12.972294911000818 0.24727404781247916
0.6783176626315656 12.99598537349131 21028.797563185257 13.591398158249255 0.2507718157898815
0.7002068549533292 12.991058789618185 18172.84128408249 14.237124782241114 0.25431947825503337
0.722440625875642 12.988005851206312 15730.639041558714 14.91066440128964 0.25791901969568076
0.7450281959734077 12.986648538849183 13635.126521304168 15.613051627246366 0.2615703866779645
0.7679479519589383 12.986752882250437 11837.132454000404 16.34554273008383 0.2652753757980937
0.7911917570052411 12.988130997426483 10289.321661617498 17.10975837753224 0.26903872563640424
0.814765204492834 12.990664972230439 8956.883985757036 17.90715352314875 0.2728628685898228
0.8386479691861701 12.994133303278518 7807.988592333642 18.739096990962036 0.276748917740306
0.8628276912622913 12.998396608464539 6815.097025367399 19.6069261252367 0.28069729107470875
0.8873038727801398 13.00334087156988 5955.808685076279 20.512729988256076 0.28471437937101
0.9120631365109033 13.00885266298555 5211.605450928735 21.45830257768748 0.28880319571862256
0.9370827015255486 13.014734786478718 4565.626633495398 22.445132349220273 0.2929636972248993
0.9623604469385547 13.020938515188773 4004.524158475662 23.47523586486511 0.29719961333509615
0.9878850371815268 13.027334184671242 3516.7699012378453 24.551039472725222 0.30151707807927225
1.0136264389135325 13.033786937810635 3091.951595019523 25.674490312076486 0.3059177597049166
1.0395907444854697 13.0402364150677 2721.684565741009 26.847539676864795 0.3104028453343069
1.0657411591094637 13.046564242257173 2398.4538114683533 28.073288828519562 0.31498110505343213
1.0920724899764833 13.052694513194208 2115.944402768191 29.353797449774046 0.319653017559244
1.1185702089798 13.058534134904768 1868.7383924124993 30.691811456753577 0.3244232016713925
1.145200959822934 13.063994628620328 1652.2369149348717 32.09074086692711 0.32929978452232245
1.1719630056463746 13.069004947793704 1462.1868519803345 33.5525140999777 0.33428038231464197
1.1988178263340004 13.073464713093632 1295.5185106821361 35.081679142884795 0.33937860073501647
1.2257645960649075 13.077325620478796 1149.1780219694056 36.68026616297142 0.34459124438485744
1.2527594551385994 13.08048847159723 1020.250981342065 38.35332118742567 0.3499327122003503
1.2798004777834344 13.082937734678652 906.7807862022825 40.10307426356944 0.35539953058906776
1.3068441275934202 13.084521212978402 806.8449420430036 41.935015183759575 0.3610063685317998
1.3338768050058583 13.085241561481107 718.6386783469937 43.852603762396335 0.3667550229617784
1.3608876841210031 13.085033700975016 640.6855047758721 45.86055556888243 0.37265340027181865
1.3878185470875373 13.083779805628524 571.8538081553761 47.96418946753088 0.37871138036321467
1.414675606902402 13.081488499579619 510.8597586356596 50.16824400156143 0.38493452484222046
1.441398406769437 13.078035366172216 456.9172824732138 52.47797202523957 0.3913299790077979
1.4679922217226327 13.073438054242098 409.0492243618343 54.89977193696074 0.39790934486240365
1.4944004753041598 13.067574960318405 366.5589609756224 57.43983231048028 0.4046816812589584
1.520612942340221 13.060429868954555 328.8769620026667 60.10477971278763 0.4116567569595395
1.5465958779737177 13.05194716722073 295.31899915089747 62.90171813177351 0.4188451090844746
1.572311434497094 13.042069176536094 265.48846229232583 65.83827217866938 0.42625810633296546
1.5977357141928716 13.030742237775003 238.9459397616704 68.9226344484409 0.433908017533744
1.6228219625986475 13.01792566418097 215.25450067014006 72.16361746895001 0.441808086152658
1.6475745751908846 13.003590175597694 194.11076191814246 75.57071072370948 0.44997261145984996
1.671923791577207 12.987654130669737 175.25013856400054 79.1538643861218 0.45841587242429255
1.695861308387458 12.97011187212521 158.38083513497006 82.92323952978107 0.46715101712567614
1.719341275624162 12.9509010682056 143.2918802558444 86.89158491256305 0.47619965062785563
1.7423272853603369 12.929963679958416 129.79215735973082 91.07049947395727 0.48557620501973164
1.7648071443298086 12.90732099351521 117.6881129031687 95.47402328416202 0.4953024102284255
1.7867333106791086 12.88288663040996 106.8364479977602 100.11587123379141 0.5053959793476135
1.8080730465489279 12.856635482765318 97.09373534999435 105.01254113179967 0.5158825120863412
1.8287841442392 12.828504726961256 88.33932950564368 110.18057047034159 0.5267845406453286
1.8488641777821833 12.79854364278133 80.47123414543432 115.63756335776668 0.5381253487385615
1.8682516053278424 12.766638614994417 73.38816402722563 121.40377124322781 0.5499344358665486
1.886921723018217 12.73279347324076 67.01668544313925 127.50058899619883 0.5622415076028782
1.9048452638067535 12.696982745505832 61.26202968741123 133.9504758487991 0.5750759380508734
1.9219887170022643 12.659171000392119 56.08085945507118 140.77905361424644 0.5884738190115376
1.9383034603168305 12.619299063432308 51.39831625820672 148.01402666890698 0.6024735262137444
1.9538009199052546 12.577448391773308 47.16482395773971 155.6839308376116 0.6171109646275793
1.9684193308022258 12.533526835768168 43.34331103841273 163.82236225779937 0.6324335743292305
1.982136218557813 12.487532083712185 39.883272807428256 172.4630482728191 0.6484827798138015
1.9949265850738036 12.439463040626123 36.74868629286685 181.64534594450882 0.6653119952599813
2.006765597915389 12.389307207506453 33.90750065161919 191.41121012537903 0.6829754980862183
2.017613962071458 12.337040504762168 31.3307178583031 201.80666291283913 0.7015325059623567
2.0274527913549303 12.28266068148176 28.994794984824846 212.88168031014823 0.7210458079164812
2.0362655115543093 12.226202462698526 26.872353060861926 224.6916535602752 0.7415854507528677
2.044012581939823 12.167614791117211 24.944879817294378 237.29781132452274 0.763228813310636
2.05035369066444 12.108104533801047 23.238290003024925 250.95403630989384 1.0727474346136086
