M[M_sun], R[km], Lambda[1], P_c[MeV/fm^3], rho_c[fm^-3]
0.24162668629717493 15.618656898711224 2160425.4255784233 3.5677272577965504 0.1711233750220791
0.2536450900703992 15.277272627964889 1723223.7258868646 3.7848461229935886 0.1738885035746204
0.26604254746139827 14.98121259482193 1382959.539221043 4.011457230631238 0.17666733478142918
0.27881909284876744 14.723474085625353 1116330.402581492 4.247815848840136 0.17945853064358291
0.29197527240226007 14.498323696531926 905811.0999582334 4.494547521066321 0.18226866393168042
0.30551254797973826 14.301126766046787 738596.0717794579 4.7518091228077965 0.1850934657788612
0.3194307072246813 14.128037284492006 605005.3239576779 5.020280917875045 0.18793951047973192
0.33373123833685236 13.975814028923908 497600.29862915626 5.300189699394198 0.190803474507063
0.3484141841622038 13.841916492260637 410932.44298100023 5.592261010818062 0.19369159210807535
0.3634797008648227 13.72385361484536 340610.2200923786 5.8966660397441695 0.19659899830440364
0.3789325467665901 13.619926005120025 279336.1895628149 6.214267315861437 0.19953334096966172
0.39476924084375653 13.528361397307767 236364.2012244479 6.545318794602395 0.20249073662963737
0.4109962359252047 13.447769296696638 197820.41469079745 6.890529876719403 0.20547501444665117
0.42760681907552067 13.376958393723298 166033.61029644936 7.250602727529492 0.20848919291090576
0.4446046851910533 13.314826066538004 139772.87738117308 7.625791485811075 0.21152874082213544
0.46198643836071457 13.260476430295693 117943.6376093248 8.01705490250568 0.2145999699580112
0.4797565983067296 13.213069301729565 99777.41713216194 8.4250937834495 0.21770445662531293
0.49791597499205176 13.171931294479487 84618.55505255662 8.850342588445466 0.2208395751625326
0.5164576221399984 13.136329544366676 71924.74591888786 9.293687536281983 0.224008914761367
0.535377642938115 13.105786942278069 61256.30002006946 9.756007796240688 0.22721530834147702
0.554688137793522 13.079759634638897 52287.15263777711 10.238109287985942 0.23046005548119006
0.5743736082347345 13.057789104884005 44715.410660477195 10.740465914465025 0.23373988762431144
0.5944325398767321 13.039489439679922 38315.26289542149 11.264329218693568 0.2370610735795996
0.6148729482509592 13.024468185691003 32889.70429506421 11.810632405157143 0.24042516699223856
0.6356818363368191 13.012400803716323 28280.846261193525 12.380354964825042 0.2438338016843988
0.6568541716729579 13.002993097053519 24360.461532756504 12.974173275582936 0.2472847837741709
0.6783913222671024 12.995948977091672 21019.63281033943 13.593439689492026 0.2507831824888823
0.7002806461780017 12.991056116356008 18164.438608519034 14.23934042802505 0.25433149824154583
0.7225182889409136 12.98798984266251 15721.683236123994 14.913065812980802 0.25793171686451094
0.745109777163991 12.986644769469443 13627.909021689014 15.615627772300355 0.26158355422265595
0.7680338356840752 12.986755855616513 11831.23848252298 16.34832849842086 0.26528926215455895
0.7912815172489708 12.988155392553058 10285.104099508584 17.112767752336836 0.26905335920701917
0.8148590904866775 12.990679258690609 8951.89826998873 17.91040141475636 0.2728782796032655
0.8387463422654764 12.994147554824998 7803.805774059786 18.74256899292889 0.2767648697928817
0.8629299219744142 12.998429476797988 6810.602694038718 19.610667386879964 0.2807140757562118
0.8874160602683427 13.003368628947097 5952.36387945299 20.51675851878847 0.2847320330164365
0.9121745035630828 13.008875308154686 5208.516268658777 21.462637619659866 0.2888217571129766
0.937198522224443 13.014765408756638 4562.745907381603 22.449755843207175 0.2929829005867026
0.962485711900035 13.02097180791818 4002.3372594221173 23.48020583903835 0.29721979787693686
0.988010072019443 13.027354025533127 3514.9053479462227 24.55637932373355 0.30153829077238203
1.013755761648639 13.033816224390511 3090.433434323061 25.68017936846036 0.3059397148691524
1.0397229764587155 13.040272410242332 2719.871411525665 26.853647496762658 0.3104259195780487
1.0658777147247778 13.046600658828888 2396.8358431643946 28.07984400667378 0.31500535550783454
1.092213468345535 13.052732204819723 2114.5303594900956 29.360776751434205 0.3196781387599076
1.118714565676472 13.058566239326444 1867.2542384781818 30.699298218012512 0.32444961170686343
1.145349817893683 13.064017328253941 1650.9693882725467 32.09871065026127 0.32932716791286654
1.172115771489058 13.069031457496317 1461.1578897702207 33.56106040185289 0.33430918423312195
1.1989759013183252 13.073484867970707 1294.6297748433315 35.090842306037494 0.33940890083142333
1.2259253001916426 13.077347663607961 1148.3422626033316 36.690019593894284 0.34462270744321594
1.2529100083759523 13.080499704324849 1019.5419258857256 38.148413996619524 0.34919795216058813
1.272167379929137 13.076346614933346 933.4327858977485 40.33648705870027 0.6719601835854457
1.2821812043423224 13.058214414964906 881.8025420128047 42.72283375024758 0.9345985034360323
1.2860287513913649 13.027254440279389 848.36415983382 45.5167235932841 1.1819853292018845
