M[M_sun], R[km], Lambda[1], P_c[MeV/fm^3], rho_c[fm^-3]
0.24162668629717493 15.618656898711224 2160425.4255784233 3.5677272577965504 0.1711233750220791
0.2536389833603524 15.27742434646056 1723233.9061944005 3.7847476501480055 0.1738872761581051
0.2660316584652328 14.981444203222363 1383247.2086196698 4.0112502225904025 0.17666483321142346
0.2788023827282877 14.723752082193439 1116701.826250259 4.2474933037786515 0.17945478960693473
0.2919517903285193 14.49869423078798 906173.7466004759 4.494100976790008 0.18226369155752617
0.30548265735290253 14.301493610271017 738906.1714173955 4.751223418971906 0.185087139059601
0.319393313533139 14.12847538997771 605281.944388139 5.0195517417692015 0.18793194499619767
0.33368627422417385 13.976293539564276 497909.3161282147 5.299297856080545 0.19079449512473018
0.3483617192002552 13.842351304219516 411211.4808850276 5.591204275368113 0.1936813679018992
0.3634167804904252 13.724344213717252 340842.46075409645 5.895420673860544 0.19658730156447712
0.3788637191149047 13.620378059124317 283467.46743221325 6.212818251512412 0.19952012724758567
0.3946903350720653 13.528780863126215 236555.98529326022 6.5436675380620555 0.2024762573405169
0.4109085653868533 13.448167614352002 198008.41658219614 6.88864455424916 0.2054589582493497
0.42751046051048813 13.377328464667489 166215.36087277962 7.2484656507514025 0.20847151342240647
0.4444974837886291 13.315196685716462 139916.87188316445 7.623408563015601 0.21150977122446912
0.4618697574392661 13.260856700347645 118080.40024842744 8.014384574734684 0.21457931281383527
0.4796274246857417 13.213399110158965 99904.81565877992 8.422115231839213 0.21768206208114235
0.4977768070447398 13.172222532943865 84720.40186288835 8.847066796714266 0.22081585703076062
0.5163061758184722 13.136603246135783 72012.78402350114 9.290061498419629 0.22398338722875893
0.5352151245632052 13.106027911821213 61338.731440318814 9.752006931536428 0.22718791630393056
0.5545141793579844 13.079965161793321 52359.68725896328 10.233711562999295 0.2304307933940576
0.5741847456656791 13.057976893469 44375.5540686604 10.735682374151372 0.23370917581374245
0.5942358322262002 13.039667414702262 38371.339828526856 11.259091975640656 0.23702835119023027
0.614661847757347 13.024632606761905 32663.981393939397 11.804910526396961 0.24039036842263276
0.6354540423767359 13.012530391670902 28327.630770881708 12.37411558782274 0.24379685787018787
0.6566164580481924 13.003085812545137 24402.862048572173 12.96744505213789 0.2472463280079969
0.6781383202258225 12.996028267282353 21055.179760085877 13.586127090803176 0.2507424678985452
0.7000164287931081 12.991097026975481 18196.476056926916 14.231404253118665 0.25428844410535356
0.7222384277251577 12.988030508280595 15749.792135160615 14.904464342479777 0.2578862376476232
0.7448160231426988 12.986648378140558 13653.23003544138 15.606400519661616 0.2615363906278453
0.7677249537569877 12.98674924478467 11852.215189218978 16.338350526456033 0.26523952446687604
0.7909595021865413 12.988109767932785 10235.059638700044 17.101988994115935 0.2690009457557847
0.8145214050117433 12.99063660124312 8970.163930889346 17.89876848440818 0.2728230821805578
0.8383920951520204 12.994098684450874 7818.66564459408 18.730133482951725 0.2767077350588423
0.8625633035042588 12.998350682489182 6825.0216473833925 19.597267632265797 0.2806539595080411
0.8870264715479557 13.003293393659765 5964.92575003232 20.502330040720153 0.2846688051883703
0.91177539469532 13.008776658699102 5219.218051964812 21.44711152454848 0.28875527886986474
0.9367841027421424 13.01466038772572 4572.78911036671 22.433196800161 0.2929141237491782
0.9620510922449939 13.020852722628959 4011.1191317876765 23.46240608132894 0.2971475077720556
0.9875651751398606 13.027245471374098 3522.466051189746 24.537255088320254 0.30146231926378586
1.0133002096447872 13.033713937078721 3097.401259974968 25.659804673387146 0.3058610849969201
1.0392461064932053 13.040162896779998 2726.1826694268193 26.831773305076467 0.31034328282073403
1.065390133568853 13.046492766050173 2402.412295209905 28.056367949767054 0.31491850736516463
1.0917068727427 13.052620462631838 2119.453104275738 29.33578202069859 0.3195881730761022
1.1181949262406645 13.058461585972609 1871.9617585474737 30.672486462714858 0.3243550315026925
1.144814886733997 13.063913772213986 1655.007591479526 32.070115713707416 0.3292287557986333
1.1715675699566368 13.068932405413687 1464.8288525104467 33.530454871863654 0.33420604044149604
1.198417664047667 13.073407912616268 1297.9015176054536 35.05802811591349 0.33930039320063027
1.2253488460700082 13.077271948399357 1151.2454065120053 36.6550919515187 0.3445100362755951
1.2523344131984633 13.080445415765452 1022.1572562288022 38.32633525908475 0.3498472294053004
1.2793662199668447 13.082902651075587 908.429089161343 40.074344938528974 0.35531065165523995
1.306400694458504 13.084504714034406 808.3509394766091 41.9044247548197 0.3609138890306849
1.3334292101834075 13.085229888667884 720.0345588512964 43.819809392818186 0.3666575411353931
1.360429153814914 13.085043535234936 641.9963833086812 45.82562595153554 0.37255182968940376
1.3873525259854906 13.08380772419067 572.9856963428344 47.9269754653026 0.3786054572999317
1.4142005001833453 13.081538192848036 511.8870659293104 50.12833771775291 0.3848227030372256
1.4409256869657237 13.078122620600872 457.8190878815104 52.43543678773012 0.39121319318217324
1.4675070939727324 13.073534137685586 409.88179525493416 54.85441948047252 0.3977872642059988
1.4939110114911285 13.067694168866272 367.30730754998757 57.3914591237394 0.40455394939468
1.5201182651895893 13.060580665128526 329.5326157441974 60.05316567388192 0.41152298984442515
1.5460972856762116 13.05212357057287 295.9272102371038 62.84662500738028 0.41870489270279626
1.571811011445441 13.042276528214929 266.0436843917822 65.77944197200024 0.4261109941590616
1.5972274474664956 13.030973391438167 239.4352129907192 68.85978757890287 0.4337535277396481
1.6223189849615272 13.01820230725398 215.71185853656127 72.09645076443542 0.4416456985326232
1.6470706586324573 13.003896227093081 194.52589329671213 75.49889520406153 0.4498017640405143
1.671424315453566 12.988005963016663 175.62307270608954 79.07732172178005 0.45823712244459913
1.6953591495262572 12.970502613082509 158.72487258791807 82.84141600496424 0.4669629869039558
1.718823992358435 12.951297106630426 143.60588453276054 86.80396362862818 0.4760012315302351
1.7418394353148525 12.930462662860235 130.07525740317158 90.97704395160548 0.48536830088224014
1.764319659360861 12.907855470962513 117.94877754068834 95.37383368331051 0.49508257187290655
1.7862486115470442 12.883461118130617 107.06709194055709 100.00886033039642 0.5051650544606237
1.8075911217138956 12.857253111687152 97.30389754951194 104.89815427858257 0.5156396113637703
1.8283233884163397 12.829201350535163 88.53578546151012 110.05779844363525 0.5265271973360313
1.8484020487622759 12.799265640546935 80.64699521083966 115.50605461565743 0.5378536970575419
1.867799394216987 12.767421922536967 73.54923267476944 121.26288234833578 0.5496476377065683
1.8864811416792933 12.733635745938084 67.15863588359743 127.34952934381141 0.5619383320858627
1.9044172655674463 12.697877441433496 61.39698408650037 133.78893527259396 0.5747570067955408
1.9215568514091497 12.660070808635842 56.204730402660175 140.6055500758006 0.5881357681385841
1.9379107926784664 12.620337235042026 51.508197759208926 147.8275217065535 0.602114774639457
1.953415198803084 12.578531038933741 47.26966165381333 155.48389778024907 0.6167318819602859
1.9680546944429034 12.534681449991883 43.436213290728396 163.60709105506106 0.632030689507947
1.981793342342427 12.48875656858135 39.9697631650937 172.23155956858218 0.6480553612318793
1.9946014662312463 12.440750906450436 36.82864615133149 181.39630246667977 0.6648583591119324
2.0064578486246516 12.39065730315288 33.979657497089846 191.14299552982436 0.6824933254910394
2.017341813467703 12.338495653814372 31.39987377677339 201.5174942414444 0.7010192600947684
2.0271980831685776 12.284172622345682 29.05617637346933 212.57029775242796 0.7205010328751604
2.036023334558769 12.227754368343394 26.927838886622574 224.3552161289287 0.741003910643346
2.0438097495259493 12.169282473283026 24.995027018568102 236.93466125669056 0.7626096090854486
2.0505012804622544 12.108663090036309 23.23779535252513 250.3737335038193 0.785395514336803
2.0561005290932735 12.04597499612843 21.63898017047898 264.7466243488464 0.809453965542312
2.0605858648048954 11.981234179144305 20.185018824776243 280.1344567344304 0.8348833505608342
2.063934116172562 11.914441407097588 18.859935882508758 296.62644966826036 0.861789777280189
2.0661240671081442 11.845614205544308 17.653982415811647 314.321746407891 0.8902906004467394
2.067154272485045 11.774815518630735 16.556489716973235 333.3307345638486 0.9205159521106254
