M[M_sun], R[km], Lambda[1], P_c[MeV/fm^3], rho_c[fm^-3]
0.24162668629717493 15.618656898711224 2160425.4255784233 3.5677272577965504 0.1711233750220791
0.2536447064639995 15.27727107034047 1723015.5467058325 3.7848448428765424 0.17388848761857897
0.2660424240943697 14.981223693190893 1382899.7034277804 4.011454539540622 0.17666730226118726
0.27881919555729234 14.72343698900563 1116389.932876757 4.247811655702247 0.17945848200950232
0.2919752167881544 14.498325089899206 905786.3220331752 4.494541715819054 0.1822685992889048
0.3055119086167561 14.301133441064986 738513.1386254152 4.751801508300352 0.1850933835276483
0.31943028738208445 14.128034353237338 605016.8758422827 5.0202714379846185 0.18793941212220985
0.3337305006566573 13.975902893300242 497620.1793442359 5.300178104499435 0.19080335776571214
0.3484134997301848 13.841921973472145 410943.1504764585 5.592247271936112 0.19369145918061306
0.3634789061770376 13.723859208689849 340614.18066971167 5.896649848162552 0.19659884622964258
0.3789330939824666 13.619912970777719 283252.1672912537 6.214248475591489 0.19953316916908495
0.3947684489233306 13.528353945568991 236361.49885333676 6.545297325172005 0.20249054837173663
0.41099516129966596 13.447773577778687 197817.65941142957 6.89050536359804 0.2054748056826231
0.4276051622148772 13.376974188124846 166039.99569155605 7.250574940632234 0.2084889630370259
0.4446031040109193 13.314833932807053 139767.90144813719 7.6257605019075205 0.21152849417034056
0.46198483466526935 13.260498638063265 117945.24084835581 8.017020181077829 0.21459970135969572
0.4797551305723601 13.213066965251384 99794.59889098644 8.425055053676955 0.21770416543156662
0.4979140254524446 13.171910530149018 84619.16963266101 8.850299993105839 0.22083926675407414
0.5164553773618501 13.13632820471805 71919.68618130108 9.293640385938614 0.2240085828200102
0.53537523339535 13.105810759581795 61256.46129840467 9.755955771120611 0.22721495214996648
0.5546857783128658 13.079748036414664 52286.48144467438 10.238052605560474 0.23045968144879642
0.574370216120962 13.057798722576416 44713.99348157902 10.740403710068005 0.23373948825281407
0.5944307233493574 13.039486142286822 38315.272477146005 11.264261113379792 0.23706064805636667
0.6148699111993058 13.024472069321751 32889.67352796442 11.81055799648832 0.240424714463384
0.6356787695269674 13.012398591992039 28281.605944171803 12.38027382525141 0.24383332125096252
0.6568510662761723 13.002993195959737 24361.11451622221 12.974085777717084 0.2472842836722499
0.6783862368711551 12.995957815068357 21019.447116961823 13.593344590618136 0.250782653003831
0.7002775582490598 12.991053272699755 18164.973339586406 14.239237218102897 0.254330938322681
0.7225152188191802 12.987994677006917 15722.670786917417 14.91295394919353 0.25793112539850027
0.7451063120180085 12.986650291918211 13628.499009312183 15.615507768587698 0.2615829408432785
0.768029797765337 12.986755890594182 11831.06948262317 16.34819872936472 0.2652886152883613
0.7912785998197011 12.988140742763223 10285.578074059818 17.112627566476096 0.2690526775306493
0.8148548070505914 12.990685604594002 8952.132176775314 17.910250117431417 0.27287756170827693
0.8387419783671425 12.9941372574715 7804.114141696402 18.742407255271623 0.2767641266920318
0.862924983044199 12.998428974873818 6810.707328816249 19.610493105469246 0.2807132938654355
0.8874109811796584 13.003367654546414 5952.384081895699 20.516570854578895 0.28473121064277235
0.9121702762412006 13.008866946870096 5208.665732834212 21.46243567614032 0.2888208924493061
0.9371931656168013 13.014758977779604 4562.800842967987 22.449540461711944 0.29298200601459107
0.9624804481289336 13.020966983997285 4002.509128009628 23.479974316081183 0.29721885759341565
0.9880039970027233 13.027359757924392 3514.696231844368 24.556130569247657 0.3015373025888989
1.0137495388388982 13.033819127784616 3090.53653731973 25.679914345488594 0.3059386920944638
1.0397167615026184 13.040273340961615 2720.001497188558 26.853362964588086 0.31042484466672876
1.0658712669140522 13.046604481577704 2396.906063383609 28.079538633026168 0.31500422579792536
1.0922045600718653 13.052736989484261 2114.5205352496546 29.360451618799004 0.3196769684820533
1.1187088613493748 13.058562716603953 1867.3456468983834 30.69894944368506 0.3244483813828233
1.1453431247785502 13.064013795431586 1651.0880195151847 32.0983393727799 0.3293258922400099
1.1721094542776123 13.069029556897402 1461.2119735627562 33.56066226507729 0.33430784247113854
1.1989684416113922 13.073480546141889 1294.6561349269857 35.09041543029041 0.339407489269054
1.2259176682680375 13.077350001526474 1148.4014809171247 36.689565218187916 0.34462124169752306
1.252915734454187 13.080507237928014 1019.5641327484087 38.36322075303175 0.3499638849834067
1.2799606192344415 13.082949628958962 906.146947337994 40.11368687288046 0.35543236245683235
1.3070134563836537 13.08454664734594 806.298926081196 41.94631544910655 0.36104053094592636
1.3340461777546992 13.085244264876362 718.1040676537169 43.864718395108085 0.3667910339154244
1.3610570202644674 13.085028826628616 640.2174981516222 45.87345918196124 0.3726909222258285
1.387997085906268 13.083782216134322 571.4076841136505 47.977937183247754 0.3787505108000041
1.4148423766442455 13.081451163681782 510.5043555123826 50.182986588716865 0.3849758351960966
1.4415751450738397 13.078011974837246 456.5813404010632 52.493686077603265 0.39137312390804196
1.468170700956934 13.073404161129393 408.7392257679217 54.91652704402079 0.397954446597269
1.494581524232708 13.067531821976084 366.28524197113916 57.45770369902752 0.40472887157099247
1.5207947809316282 13.060378680566913 328.63036998693826 60.12384875168561 0.4117061778220697
1.5467792065771657 13.051881900278513 295.0992105938861 62.92207288709979 0.41889691355505476
1.5724973549781776 13.041991922557113 265.28392452916995 65.86000802483761 0.4263124594920395
1.5979104926920473 13.030648318197988 238.75347192800632 68.94585474159666 0.4339650975177567
1.6230189781122875 13.017833891994805 215.0843433317745 72.18843428970679 0.4418680852919436
1.6477613366637702 13.00347222887086 193.95672302420408 75.59724569716718 0.4500357375328717
1.6721093735402033 12.98752666344496 175.1173977712022 79.18211100877504 0.4584817714717802
1.6960461739420438 12.96996534868755 158.25109860130593 82.95347343391451 0.46722049454931935
1.7195259242574477 12.950741338895083 143.18095982717978 86.9239617581594 0.47627296825342025
1.7425069759282517 12.929792865662106 129.68719223498792 91.10503273674148 0.48565302881818945
1.7649885517495023 12.907126573171787 117.59052390919082 95.5110456888761 0.4953836456510695
1.786898883333137 12.882648459831469 106.75053360393191 100.15541501855073 0.5054813131195656
1.8082507338896692 12.856407339523887 97.01707255620991 105.0548113816517 0.5159722730505039
1.8289539310717409 12.828252953188777 88.26892320449976 110.22579088521708 0.5268790845038519
1.8490349913476192 12.798273456174474 80.40924691385041 115.6861629318038 0.5382257386880985
1.8684067743073118 12.766321117026902 73.33063099420983 121.45583841042291 0.5500404255384697
1.8870815696969747 12.732486657035992 66.958003543825 127.55625978656073 0.5623529937171503
1.8985747673827797 12.70086636456294 62.79204593849925 135.03737152469304 1.5701640843935243
