M[M_sun], R[km], Lambda[1], P_c[MeV/fm^3], rho_c[fm^-3]
0.24162668629717493 15.618656898711224 2160425.4255784233 3.5677272577965504 0.1711233750220791
0.25364502719392373 15.277268683539978 1723268.395697314 3.784839150873102 0.173888416670502
0.2660418644905445 14.98122758197791 1382926.0460974057 4.011442573699705 0.17666715766106153
0.2788179661114504 14.723463808104842 1116441.5206350386 4.247793011083785 0.17945826576002502
0.2919737997166764 14.498344018838488 905788.2200945398 4.494515903053053 0.18226831185776451
0.3055106574464859 14.301132543847642 738580.6386137804 4.751767650784083 0.18509301780185455
0.31942822380125363 14.12805572808837 605032.3935715253 5.020229286188506 0.1879389747810561
0.3337262128742248 13.975939726365546 497643.14106529823 5.300126548518936 0.19080283868253536
0.3484104440225615 13.841947785072527 410957.600168407 5.592186182918817 0.1936908681275657
0.3634747924692223 13.723900507027135 340637.33566629596 5.896577853466219 0.19659817004021893
0.378928590498485 13.619956258458936 283256.6437644964 6.21416470379285 0.19953240527114918
0.39476327637402275 13.528381083759816 236377.11437624937 6.545201863118362 0.2024897112984891
0.41099010871907743 13.447796852823352 197834.83556819137 6.890396368149222 0.2054738774316428
0.42760127108962886 13.376968299221675 166054.06600266704 7.250451388767418 0.2084879409241119
0.44459675517956104 13.31487801284559 139777.7056778936 7.625622734992112 0.21152739745711008
0.4619800850829938 13.260533337868125 117960.00288052142 8.016865795798449 0.21459850706474456
0.479746577936557 13.213096140245664 99788.43869775055 8.42488284589657 0.21770287066980018
0.497905836280634 13.171931885323584 84625.41054537521 8.85011059768325 0.22083789545029214
0.5164458768212776 13.136358696313522 71924.61595565297 9.293430737433305 0.22400710688146278
0.5353673192321186 13.10579500883069 61264.313215186616 9.755724447744937 0.22721336838769002
0.554674575228112 13.079784537971692 52292.11628764817 10.237800574283186 0.23045801836079086
0.5743600340307828 13.057806269854991 44718.711707712144 10.740127126341628 0.23373771249961584
0.5944196382581975 13.039488387214703 38318.89623529266 11.263958292329079 0.23705875602496188
0.6148584772251949 13.024475904200616 32892.714201048395 11.810227148785065 0.240422702357341
0.6356645959451124 13.012429741131117 28284.137867263245 12.379913049918333 0.24383118507344478
0.6568374116654518 13.003011163672074 24364.082540377283 12.973696731518432 0.2472820600437143
0.6783709410034255 12.995973449103783 21021.834985437716 13.592921748131356 0.2507802987301509
0.7002622908883043 12.991055651211811 18166.825744177477 14.23877831158952 0.25432844873244903
0.7224990771168399 12.987987412016164 15723.96438699503 14.912456565186613 0.2579284955417654
0.745088823398491 12.986654692581707 13629.5441016261 15.61497419221671 0.26158021355480515
0.7680119816192089 12.986762576215135 11832.542357398532 16.34762173366139 0.2652857391094957
0.7912590082932334 12.988142150367029 10286.810893803182 17.11200425493086 0.2690496465776758
0.8148369213308488 12.990674193076972 8953.407854568657 17.909577401471036 0.2728743697191464
0.8387214841603572 12.994145896855736 7804.995846715866 18.741688118922454 0.27676082263259855
0.8629046815817507 12.998414442819943 6811.663698878417 19.609718196512663 0.2807098173376568
0.8873885106122331 13.003365852632133 5953.307737649497 20.51573644249189 0.28472755411962947
0.912147033117907 13.008864877610366 5209.265720607859 21.46153777490448 0.28881704789623475
0.9371682607643189 13.014759440710115 4563.545047338176 22.448582812086727 0.29297802848325094
0.9624543432849775 13.020968752393253 4002.9774179706023 23.478944897917 0.29721467682038094
0.9879779862889573 13.02734951741031 3515.2136188511136 24.55502453596863 0.30153290884373996
1.0137227500431423 13.033804677070044 3090.5566116806635 25.678735978971368 0.3059341445511332
1.0396891977126854 13.040264034637614 2720.3026978612274 26.85209785613614 0.31042006531480476
1.0658439760419534 13.046590471365457 2397.2377617635957 28.078180859220062 0.3149992028022113
1.0921773279782176 13.05272505475911 2114.746836145721 29.359005992552742 0.3196717651151858
1.11867858734302 13.058558136333485 1867.617697019841 30.69739870201716 0.32444291104110423
1.145311916396824 13.064017170720579 1651.2475124284172 32.09668857780456 0.3293202202710714
1.172077585747539 13.069022192629019 1461.409423099015 33.558892048924136 0.3343018766601855
1.1989347378414508 13.07347797554376 1294.8154367500413 35.08851743576921 0.33940121311571986
1.2258838782292163 13.077345721170943 1148.5538845354035 36.68754495410336 0.34461472463831644
1.2528818894399576 13.080507915281245 1019.6473297953476 38.36107001879496 0.3499571125274785
1.2799259547318778 13.082942553747673 906.2985200968827 40.111381217437085 0.3554252295291603
1.3069705668862743 13.08452653335531 806.4099307762417 41.94386038856524 0.36103310892596996
1.334011249176497 13.085236276650846 718.2749133465464 43.862086397548964 0.3667832102575098
1.3610211089226638 13.08503286741663 640.3120546630284 45.87065576341121 0.3726827702655006
1.3879540520199265 13.083766370707734 571.5450853051115 47.97495036662656 0.3787420093557348
1.4148043032757163 13.081461424340993 510.57169038064944 50.179783614352964 0.3849668601089539
1.441535964308708 13.07801902309017 456.6612736738632 52.49027203123797 0.3913637502158555
1.4681322723029662 13.073412330832975 408.8182725717497 54.912886804871675 0.3979446477281623
1.494543436203784 13.067539922835891 366.35592792694706 57.4538209213236 0.4047186188986317
1.5207551376560615 13.060389644193338 328.69080829849946 60.11970575497247 0.41169544049691564
1.546739168310149 13.051896903282913 295.1444781326688 62.91765053559652 0.41888565831888647
1.5724563399243923 13.04200800246795 265.32988368934974 65.85528559462787 0.4263006504739585
1.5978704099846497 13.030667889231312 238.79293423790043 68.94080977428534 0.43395269600966446
1.6229682929349911 13.017844674758468 215.13213785514804 72.18304243100505 0.4418550495012424
1.6477209669612676 13.003496521761434 193.98679934496678 75.59148051868311 0.4500220223098831
1.6720723796253023 12.987553885343297 175.14809970500087 79.17597392412556 0.4584674537235058
1.6960057185808413 12.969995572930408 158.28684632293113 82.94690454912266 0.4672053992711994
1.7194860264680678 12.950776475335994 143.20646793390287 86.91692724865236 0.47625703855043133
1.7424667555889939 12.929822022796994 129.70821470661974 91.09752967482028 0.4856363372671926
1.764949049728853 12.907168212187834 117.6100690577516 95.50300177315728 0.4953659955038633
1.7868754891784522 12.882728286396992 106.76829363384047 100.14682324429603 0.5054627724434675
1.8082119156675924 12.856455804542122 97.03593775334303 105.04562718375371 0.5159527703870166
1.8289248181195532 12.82832164303684 88.28866620563137 110.21596565320758 0.526858542557308
1.8489978181066509 12.798330953082715 80.42087287930454 115.67560344233992 0.5382039264266658
1.868370551565824 12.766383217299394 73.3462873283557 121.44452544703286 0.550017396490746
1.8870470140278748 12.73255361110718 66.97231724918439 127.544172840647 0.5623288026518728
1.904969197657978 12.69672363832678 61.22601477924019 133.99720572084777 0.5751681973277939
1.9221085907535482 12.65889317244429 56.04712362682498 140.82924521035773 0.5885716113276618
1.9384187105488406 12.618991728730233 51.36462589393731 148.0679805985227 0.6025773092817356
1.9539115364117448 12.577133622512891 47.14009066297186 155.74179953448913 0.6172206316009005
1.9685240858737607 12.533194580349937 43.316402350142106 163.88449644719086 0.6325496415113849
1.9822353489652986 12.487180277657613 39.85865711438351 172.5300201369039 0.6486064360382819
1.9950198984155671 12.439087642397803 36.725925358692635 181.7173982879667 0.6654432396026522
2.0068522364518158 12.388913656339064 33.8842013200979 191.48881090719524 0.6831150019423707
2.017694545129061 12.336624434376985 31.31168805716423 201.89032835022203 0.7016810038607966
2.0275268018463746 12.282229167979827 28.976580528542513 212.9717694525278 0.7212034134812121
2.0363312109784255 12.22574386466734 26.856276438295954 224.78900038384697 0.7417537170549108
2.044070745795869 12.167136171275148 24.9305932749573 237.40289013531952 0.7634079823357485
2.050724289285463 12.106411621447554 23.176766177072817 250.88053079068365 0.7862494304006621
2.056291300020884 12.043649374480012 21.583291470141358 265.29525202439754 0.8103668412925007
2.060731713484622 11.97878405713752 20.132750034293718 280.7283828615303 0.8358584212169564
2.064030953773243 11.9118735387586 18.81263153713362 297.2702074245404 0.8628327801945952
2.06618599554879 11.842955221836268 17.61049201778004 315.02105242639635 0.8914100518394585
2.0671471025059436 11.772477406194106 16.522947991200528 334.18093559070496 1.1564820795527095
