M[M_sun], R[km], Lambda[1], P_c[MeV/fm^3], rho_c[fm^-3]
0.24162668629717493 15.618656898711224 2160425.4255784233 3.5677272577965504 0.1711233750220791
0.25364134380200276 15.277375181956645 1723207.7912884033 3.7847882429978825 0.17388778212839615
0.2660360200084505 14.981336857175972 1383032.7362184834 4.011335555304311 0.17666586440691112
0.2788095060991255 14.723618501602273 1116537.8813101905 4.247626261691353 0.17945633171835879
0.2919621522273861 14.498541339645486 906045.1675479511 4.4942850471592175 0.18226574122380781
0.305494634973558 14.301350235383035 738754.5641338306 4.751464849912882 0.18508974697454142
0.31940839633875623 14.128304437668485 605200.9423423012 5.019852309972332 0.18793506350731382
0.3337048040424233 13.976145751578716 497799.47598759446 5.299665472399547 0.19079819641107676
0.3483834697320987 13.842168941534112 411096.9041393457 5.591639855848936 0.19368558226287522
0.3634427997890372 13.724133492583936 340734.6986163193 5.895934001693784 0.19659212284811867
0.37889436170939916 13.620123350856327 283382.0588039814 6.2134155360440255 0.19952557376333657
0.3947229853889979 13.528599863866324 236470.74252794977 6.544348157365942 0.20248222545234035
0.4109447505645362 13.448028472742859 197931.22387986208 6.889421644009042 0.20546557627183792
0.4275487531970729 13.377199261676754 166136.53333779183 7.249346499868133 0.20847880046140688
0.44454219604971834 13.315034628428943 139859.6660402102 7.624390735264464 0.21151758994710476
0.4619191813646926 13.260681129005192 118023.51807925705 8.015485196719064 0.2145878270146991
0.4796806726074949 13.213273311070852 99853.36415037069 8.42334288216398 0.21769129229536094
0.49783348261287835 13.172089490976958 84679.33270127726 8.848416947489758 0.2208256326992502
0.5163679860458188 13.136500373026797 71968.403214933 9.291555992911366 0.22399390856315163
0.5352829133486346 13.105922572748707 61307.08928910986 9.753655898132847 0.22719920600209853
0.5545849224208774 13.079892299632952 52323.23093221947 10.235525745324422 0.2304428751406281
0.5742630154474311 13.057930182829196 44752.27126843201 10.737653888913394 0.2337218335492135
0.5943170108424252 13.03958086906505 38013.65616361908 11.261250462353239 0.23704183745427113
0.6147493934472203 13.02456414376831 32919.299802855974 11.807268730341663 0.24040471023719295
0.6355459947696194 13.012465953417736 28309.3068901422 12.376687049170172 0.2438120836836361
0.6567143720157573 13.003061247413136 24384.540403173458 12.970217962728793 0.247262176827849
0.6782415824201427 12.996011533968925 21039.96837694752 13.589140813447854 0.2507592474988062
0.7001248324737187 12.991077751141015 18183.349824104043 14.234674939096053 0.2543061877364068
0.7223542240761854 12.98799983195782 15739.065250496198 14.908009180493226 0.2579049805424371
0.7449376259224234 12.986654626027699 13642.605735771544 15.610203226549185 0.26155582754301937
0.7678516756726197 12.986749978666802 11843.018720067055 16.342462580274862 0.2652600220238242
0.7910926374478126 12.988114141365827 10295.712319455719 17.106431022201328 0.26902254583416707
0.8146609175071013 12.990654591994922 8962.329448266943 17.90356248123747 0.27284582935272556
0.8385394168441297 12.994112967556118 7812.28405427263 18.735258189272354 0.27673128043279127
0.8627147096430301 12.998379623944958 6819.28259026529 19.60278965578578 0.28067873334501725
0.8871832301907006 13.003333212593683 5959.616820684507 20.508275945278427 0.2846948610640717
0.9119404551264209 13.00880907838768 5215.027545632342 21.453509692442744 0.28878267397196183
0.9369545543283783 13.014701502153487 4568.529225224948 22.440020585622438 0.29294246586911077
0.9622273219310922 13.020901066811211 4007.6035354946252 23.46974108200642 0.2971772973892479
0.9877470091916777 13.02729982894225 3519.248236269255 24.545135811196683 0.30149362563461907
1.0134858037226857 13.033752788790212 3094.3342128212507 25.668200622146284 0.30589348658015003
1.0394438927281817 13.040206078338382 2723.6426492779265 26.840787076153916 0.31037733522475897
1.065593484941124 13.046543287574064 2400.087478334803 28.06604171344632 0.3149542948234891
1.0919156681519224 13.052664362377302 2117.402032340108 29.346081502814823 0.3196252448878064
1.1184093446135346 13.058499947150553 1870.122319390081 30.683534570585614 0.32439400441910615
1.1450355457874357 13.063956335257974 1653.4081925851422 32.08193005263652 0.3292695114322503
1.1717933946316585 13.068976836456455 1463.3766239001989 33.54306602334122 0.3342485413222395
1.1986443311765296 13.073438778670026 1296.5276773122812 35.07154921883311 0.3393451038224062
1.2255864543851054 13.07730814095182 1149.9906014248384 36.669483784196736 0.3445564621000067
1.2525762844868986 13.080471631036588 1021.075176984759 38.341763321196915 0.34989610212390426
1.2796148255806523 13.082922372529747 907.5032633007322 40.09076902906681 0.3553614623044299
1.3066535226385816 13.084512405484606 807.4384838645345 41.921912728734775 0.36096675782524656
1.333686306791572 13.08522897822945 719.2194885107689 43.83855721166314 0.3667132693486583
1.3606915354590865 13.085040681689186 641.2170575788581 45.84559435045141 0.37260989508094916
1.3876185372711278 13.083793006348252 572.3215877631869 47.94824968853974 0.37866601060673327
1.4144718286810523 13.08150984823214 511.2926170247647 50.15115090881464 0.3848866281126462
1.4412000322323528 13.078085764084054 457.2993819740339 52.45975274934879 0.39127995570237456
1.467784327474758 13.073482936829947 409.413377247324 54.88034581941154 0.39785705324767223
1.4941908957276473 13.06762391016082 366.88098859625893 57.41911216002199 0.4046269686459494
1.5204009283494746 13.060493337420775 329.15394316222745 60.082671220609484 0.41159945880421395
1.5463823135180126 13.052022849873223 295.57839354466154 62.87811922833436 0.41878504799902594
1.5720974465458044 13.04215658845236 265.72794170091345 65.81307232568258 0.4261950909984147
1.597520376056596 13.030846639839478 239.16011399970887 68.89571385872793 0.4338418415031434
1.6226072612902742 13.018047376360272 215.4533681733617 72.1348462459789 0.44173852653293966
1.6473584975572118 13.003721861063585 194.2908311473598 75.5399479116218 0.4498994274589202
1.671708323730562 12.98780896595416 175.41685959148697 79.12111751551942 0.45833947434982575
1.6956460945308647 12.970280888163686 158.522446070792 82.88818917137944 0.4670704715041524
1.719111293664336 12.951053640716504 143.42502422274015 86.85405067516731 0.4761146540473505
1.7421156927999368 12.930173356663465 129.9156679044002 91.03046573276673 0.48548714468147314
1.7646007426945887 12.907554100010763 117.79312139785539 95.43110446633945 0.4952082367588165
1.7865267936619573 12.883131583264475 106.92974210620814 100.07002997137558 0.505297055892087
1.8078675200904937 12.856900191664238 97.18294271009455 104.96353976436832 0.5157784575798898
1.8285826981159254 12.828791057663333 88.42150651885223 110.12802194916122 0.5266744671527381
1.8486660824456562 12.798853479556044 80.54422455240375 115.58122623021217 0.538008975673482
1.8680574393836091 12.766973777777581 73.45798493872611 121.34341520270264 0.5498115730860605
1.8867333449393648 12.733154200497571 67.07551292761394 127.43587525760297 0.5621116276458763
1.9046632267882917 12.697364594182385 61.32111276118376 133.88127151622263 0.5749393072106129
1.9218112653940844 12.659582713782262 56.131701015641426 140.70472358606727 0.5883289958503635
1.938139735808395 12.619754006897795 51.44613651358841 147.93412592995935 0.6023198331670689
1.9536342654734786 12.577910677447406 47.21167281975213 155.59823370817048 0.6169485599888848
1.9682629912155336 12.534021654248658 43.380945637195424 163.73021008319802 0.6322612217659408
1.9819906586344387 12.48805894593919 39.92161173508861 172.36387298612752 0.648299663490527
1.99478986091666 12.440015141864993 36.781181925774646 181.53864864566768 0.6651176446507003
2.006630576792334 12.389879093846291 33.9397574861322 191.29629811376074 0.6827689193847698
2.0174955045834926 12.337656275836032 31.359781348804095 201.68277207015257 0.701312611937412
2.0273443653941725 12.283312080328956 29.02114757494302 212.74827913148096 0.7208124305355418
2.036167913240393 12.226881101963755 26.896373723111537 224.54750765467818 0.741336291123416
2.043455822156069 12.169477216018416 25.026376226127017 237.33824903225295 0.9711475376495654
2.046444155178933 12.113309871161729 23.647594603246976 252.1023427227493 1.3594450267978444
