M[M_sun], R[km], Lambda[1], P_c[MeV/fm^3], rho_c[fm^-3]
0.24162668629717493 15.618656898711224 2160425.4255784233 3.5677272577965504 0.1711233750220791
0.25364410967383544 15.277268562132601 1723250.0542785448 3.784822018765495 0.17388820312704548
0.266040693934719 14.981240032402214 1383015.0673573099 4.011406558402172 0.1766667224374456
0.278816187511399 14.72349650073319 1116391.1687155045 4.24773689394912 0.17945761488582962
0.291970089650843 14.498409264514377 905839.4310850471 4.494438211324756 0.18226744674233863
0.30550503537911883 14.301216691927698 738675.7110982436 4.751665746237525 0.18509191703826397
0.3194216074259318 14.128142146758606 605100.5805219618 5.0201024179608185 0.1879376584742272
0.3337218037661774 13.975939996566604 497688.2076219312 5.299971376250241 0.19080127635526697
0.3484012130649588 13.842025857147524 411005.8226715003 5.592002318968842 0.19368908919327046
0.36346424066578964 13.723981367671179 340645.3993852107 5.896361166763186 0.19659613487284824
0.3789172566120372 13.620004118405966 283299.8451449416 6.213912571820817 0.19953010613115088
0.3947496219677757 13.528457114186889 236415.50749547806 6.544914547442388 0.20248719192815529
0.41097516921216687 13.44785940077978 197863.97175492212 6.890068321754769 0.20547108365088831
0.427582623178575 13.377060650102464 166083.13726010371 7.250079532954126 0.208484864656267
0.44457791800514956 13.314945910097258 139800.89825477582 7.625208097334887 0.21152409667474742
0.461959523387359 13.260603772429473 117982.98297527668 8.016401143501868 0.21459491260357527
0.47972393827446386 13.213155818342903 99809.8701536366 8.424364555252719 0.21769897384871545
0.4978819661544586 13.172021645384874 84644.54606929973 8.849540579548664 0.22083376827544773
0.5164196247972624 13.136402228164785 71938.11249021253 9.292799766452656 0.22400266480642256
0.5353384926093955 13.10585926153098 61273.79525519023 9.755028245270108 0.22720860181702587
0.5546454628474904 13.07982129322576 52298.748395925686 10.237035610497594 0.23045293025368113
0.5743280049373874 13.057836141068403 44730.509160360285 10.739294711628478 0.2337323681393076
0.5943845230462378 13.039533912083263 38328.7951256888 11.2630469162387 0.23705306173065666
0.614821255962623 13.024503223881554 32900.72674581221 11.809231426701148 0.2404166467057452
0.6356254516441863 13.012438005416485 28292.598447306096 12.378827261264748 0.24382475603825818
0.656794838969476 13.003034805997235 24370.91640446161 12.972525862450757 0.24727536783626092
0.6783290050354476 12.995967239098938 21028.10122604851 13.591649170663537 0.250773213359754
0.700216100354564 12.991063925215045 18171.9615624033 14.237397201537794 0.2543209561430133
0.7224503364616353 12.988000319757118 15729.407185249062 14.91095965986597 0.2579205808390724
0.7450374614238867 12.986654810966755 13537.221672686179 15.613368368666922 0.2615720056500035
0.7679587549105479 12.986756175509047 11836.187974462056 16.34588524375353 0.2652770831428317
0.7912034965769531 12.988136457162271 10288.908128915242 17.110128382496043 0.269040524845249
0.8147781167888286 12.990667969242114 8956.43000738421 17.907552852423823 0.2728647633786796
0.8386601123977769 12.994131255726202 7807.2254305384095 18.739523873351764 0.27675087904401197
0.8628414505652015 12.998404786452063 6814.57413264739 19.60738611133062 0.28069935474221414
0.8873214422065351 13.003353206417662 5955.367587318149 20.51322529200621 0.2847165498688412
0.912076804016084 13.008843978073642 5211.199027389291 21.458835564654184 0.2888054778144679
0.9370963197337483 13.014740334220317 4565.255337197908 22.445700799155947 0.2929660582423058
0.962380706608902 13.020958228812297 4004.605352033114 23.475846911511763 0.2972020949770878
0.9879006147920972 13.027336713001596 3516.5284038833947 24.551695992283125 0.30151968611981134
1.0136440103158701 13.033791311115074 3091.930292431556 25.675189763224072 0.3059204590216018
1.0396077094722023 13.040246803017602 2721.4317711095046 26.8482906106478 0.31040568222691883
1.0657573600650525 13.046570009901044 2398.281716970039 28.07409476010128 0.3149840865447988
1.092089817457864 13.052700424465357 2115.7822683042896 29.354655522763522 0.31965610609514666
1.1185876038428781 13.058535298096553 1868.6012956045677 30.692731915797502 0.32442644865031417
1.1452187187792917 13.063992916670827 1652.1319860402073 32.091720707810794 0.3293031511590883
1.1719818465296472 13.069005939270184 1462.0534380043957 33.55356481624689 0.3342839233368025
1.1988370125726933 13.073462655177646 1295.4851341563437 35.08280569376459 0.33938232593336737
1.225782645512439 13.077329475125527 1149.0612139933546 36.68146527926839 0.34459511254841224
1.2527783922758942 13.080492592955629 1020.1789265854877 38.354597735507426 0.3499367319278815
1.2798210198402602 13.082933614349434 906.7124512632381 40.104442752891046 0.3554037642378461
1.30686508377305 13.084525544242641 806.730028519104 41.93647234091376 0.3610107737386352
1.3339014365944106 13.085234816327587 718.5892066725795 43.854165924685454 0.3667596665159925
1.3609094751245479 13.08503476299359 640.6292209744119 45.862219463028204 0.37265823864997166
1.387840805759036 13.083774371377256 571.8100498497666 47.96596220057508 0.37871642613370915
1.4146975485907871 13.081483967320816 510.8192610814599 50.17014501226497 0.3849398516837075
1.4414212630921686 13.07803023454443 456.8809883024722 52.47999829577506 0.3913355423875104
1.4680152101604 13.073433424185197 409.01744414065996 54.9019324395062 0.39791516054669807
1.4944241076204599 13.067569915903952 366.52820174931054 57.44213674397587 0.404687766233018
1.5206357930786283 13.06042537622869 328.83718423076715 60.10723856800491 0.41166312952746625
1.5466195514440997 13.051937538858393 295.28736193962857 62.90434276287749 0.41885178897930164
1.572335150969959 13.0420598829472 265.45952513135467 65.84107488199707 0.4262651148376553
1.5977598035731977 13.03073156753586 238.91685577255063 68.92562854930544 0.43391537761435683
1.6228464315338496 13.017912291528463 215.23678081147216 72.16681741738299 0.44181582260502705
1.6475989517664256 13.003572340554914 194.09841191003096 75.57413220016527 0.44998075107125507
1.671946530661049 12.987638773708827 175.23064038853786 79.15750655243306 0.4584243695566277
1.695885156701695 12.970092277372952 158.363013516803 82.92713792119578 0.4671599756177932
1.7193651549194526 12.950881621355133 143.28009082247837 86.89575959706346 0.4762091042342652
1.7423477911332625 12.929941676199281 129.78169038321366 91.07495218922078 0.4855861106722074
1.7648301353273113 12.907295168246211 117.67581600452739 95.4787969250198 0.4953128846623697
1.7867576181138487 12.882858641242551 106.82173070165798 100.12096995679532 0.505406982170654
1.8080966365357083 12.856605981272015 97.0846250301823 105.0179913765253 0.5158940856924402
1.8288063900786342 12.82847336960723 88.33017869394901 110.1864010759748 0.5267967308907213
1.8488865239584122 12.79850830963215 80.46524048394451 115.64382962850367 0.5381382926915803
1.8682635563824657 12.766570640110672 73.38873501318575 121.41048458017613 0.5499481017604118
1.88694309516617 12.732752744879138 67.00937920100432 127.50778709079293 0.5622559541212939
1.904865305856328 12.69694079528887 61.25573868877938 133.9581734849768 0.575091135574783
1.9220083809037891 12.659125042939166 56.075654861385885 140.78732145260022 0.5884899279047509
1.9383221674456848 12.619239944279496 51.390986672610524 148.0229142213105 0.6024906218629758
1.9538190090635348 12.577398238535215 47.16182809329365 155.69346321142712 0.6171290294301638
1.9684365247484845 12.533470936248708 43.338921387686895 163.83259721894427 0.6324526933217077
1.9821526052380523 12.487473923189937 39.87922566504183 172.4740800601265 0.648503148802874
1.9949425990143932 12.4394001552395 36.74445783108197 181.6572145491572 0.6653336140879158
2.0067794636367338 12.389243358883189 33.903353785569216 191.42399262049054 0.6829984773309832
2.017627755379707 12.336971906853563 31.327466991757788 201.82044431905683 0.7015569665989696
2.027464888464294 12.282588777177034 28.991969173003387 212.8965197638245 0.7210717686528716
2.0362758288249116 12.226127692350074 26.869595461270276 224.70768841366265 0.7416131673786838
2.0440256465209763 12.167534495715953 24.934937344201405 237.315119695488 0.7632583256731058
2.050682668038331 12.10683256570333 23.18771928329702 250.7856676576943 0.7860898118803059
2.0562562623086458 12.044089979348787 21.59333283207726 265.1924427683864 0.8101958332939307
2.0607048034054842 11.979243846757411 20.14148680626053 280.6171454340745 0.8356759659456444
2.064012268254113 11.91235101910608 18.821181133501266 297.14952218821134 0.8626372484872269
2.0661744778257667 11.843454124519106 17.618914746131537 314.88995010125393 0.8912001828027483
2.067168493137692 11.772566820107885 16.52324418045148 333.94781488026666 0.9214905811783799
