M[M_sun], R[km], Lambda[1], P_c[MeV/fm^3], rho_c[fm^-3]
0.24162668629717493 15.618656898711224 2160425.4255784233 3.5677272577965504 0.1711233750220791
0.25364527127868663 15.277269173711224 1723150.6599681508 3.784849515889888 0.17388854586543598
0.2660428915276834 14.981207718483292 1382907.5693086064 4.011464363259745 0.1766674209750353
0.2788197436085088 14.723436555237699 1116345.774372225 4.247826962594585 0.17945865954638646
0.29197623631598213 14.498307947153062 905746.442689121 4.494562907668778 0.18226883526506982
0.30551377502524024 14.301115282400065 738573.5498918087 4.751829304807239 0.1850936837829731
0.3194323671766749 14.128000304915915 605011.3184455346 5.020306044030024 0.18793977117328764
0.33373306336074454 13.975836794515502 497594.68549920106 5.300220431327533 0.1908037839266382
0.3484159655601971 13.84190487048686 410929.3723665352 5.592297425355118 0.19369194442873866
0.36348180714094575 13.723839330942834 340594.3497171797 5.896708955129901 0.1965994013747883
0.37893635967659994 13.619894329011167 283239.37360991444 6.214317251569458 0.19953379632319235
0.3947718344538182 13.528338012893236 236356.59129321028 6.545375698881549 0.20249123560329163
0.4109993116692268 13.447779460129576 197816.04493857874 6.8905948482886235 0.2054755677717989
0.42760885014686156 13.376990573840061 166036.03054885363 7.25067637623716 0.20848980218778973
0.4446088253698473 13.31481529385132 139765.18284012497 7.625873608187277 0.2115293945690545
0.4619897511097203 13.260487450421337 117937.0824884424 8.017146931204303 0.21460068187439707
0.47976015550090945 13.2130640626848 98705.42174443034 8.425196436291603 0.2177052284311795
0.49791964829098745 13.171908436406321 84609.06566499913 8.850455487006034 0.22084039259634897
0.5164621157114213 13.136324737176377 71917.08003470254 9.293812507931536 0.22400979456957093
0.5353832704041774 13.105777669009246 61252.719596121475 9.756145688553582 0.22721625242524174
0.554693856288052 13.079756582596321 52283.867363800666 10.238259524559023 0.23046104685275862
0.5743792966812341 13.057789191785565 44710.59483057563 10.740630787125795 0.23374094615786475
0.59444000336761 13.039483266485057 38312.8088059804 11.264509731857709 0.23706220142911577
0.6148806418858027 13.024462500557618 32887.28804473327 11.810829625510992 0.24042636642104487
0.6356881323826443 13.01241928728496 28279.694395956383 12.380570025615668 0.24383507507529825
0.6568621925372323 13.002990906268213 24359.007701956623 12.974405189197288 0.2472861092972899
0.6783976688869998 12.995960457286575 21017.75111960611 13.593691749807215 0.2507845858931863
0.7002897392250597 12.991045936254261 18163.050073593487 14.239613986937021 0.25433298231199436
0.7225282239000926 12.988002663129565 15720.664812621417 14.913362309263627 0.25793328455212333
0.7451199211241697 12.98664418969497 13627.04616412483 15.615945843743363 0.2615851799928875
0.7680443204792848 12.986763976671165 11829.985512701154 16.34867245328842 0.26529097668330687
0.7912935118815022 12.988153616744341 10284.749024284443 17.113139317376575 0.2690551660019849
0.8148707680927894 12.990676317352934 8951.146737131705 17.91080243121819 0.27288018239770284
0.8387582345862585 12.994141041935569 7803.06155196253 18.742997681949475 0.2767668393971216
0.8629435320843761 12.998427385060332 6810.37700512246 19.611129323721098 0.2807161481754897
0.88742839534313 13.003381984403552 5951.963373119237 20.517255927411817 0.2847342127381485
0.912188252349427 13.008879063194412 5208.168301645925 21.463172876346945 0.2888240489271073
0.9372123024202563 13.014771987077653 4562.80037184765 22.450326717953388 0.2929852716753916
0.9624995956390258 13.020975413669401 4002.054640655704 23.480819497649467 0.2972222901268924
0.9880249454115412 13.027362217380007 3514.3264396420664 24.55703865553514 0.3015409099846303
1.013771832351721 13.033826107642343 3090.2267835096386 25.68088182084222 0.30594242576817865
1.0397396000876677 13.040281807766378 2719.679482980484 26.854401659530605 0.31042876866918423
1.065894558054012 13.046610545550713 2396.789609347265 28.080653411146617 0.3150083498469356
1.0922307907637816 13.052734484509244 2114.392332182776 29.3616385283994 0.31968124062784853
1.1187331747331841 13.058567539987578 1867.1319260878577 30.7002226589551 0.32445287273219064
1.1453681385048162 13.064024070058894 1650.7980415413863 32.09969473738874 0.3293305491393078
1.1721355589627351 13.069028852324074 1461.129886032336 33.56211568156344 0.3343127406345504
1.198994435153306 13.073491264361039 1294.4964160886007 35.091973760632385 0.3394126422450306
1.225941253822596 13.07735534201667 1148.186317458688 36.69122393925293 0.3446265924749143
1.2529445973671876 13.080513616883682 1019.4457333550281 38.36498659819132 0.3499694454605287
1.2799900279376029 13.0829457517105 906.0576653301541 40.11557991857149 0.3554382189077747
1.3070430427318058 13.0845505435413 806.173223460049 41.94833116615961 0.3610466247639576
1.3340758319503314 13.08524336432768 718.0096528902205 43.866879389738514 0.3667974575090502
1.3610876434563555 13.085032058515296 640.1239325958124 45.87576092503984 0.3726976153820329
1.3880289066085378 13.083781336862618 571.3410983043194 47.98038950908142 0.37875749091095473
1.414874236739072 13.081452632161852 510.44208424879463 50.185616396200516 0.38498320420647664
1.4416067103866415 13.078005849163487 456.50993729284846 52.49648919087149 0.39138082020684073
1.4682026651279816 13.07339978211969 408.70316743051507 54.9195158787523 0.397962492002836
1.4946139026555778 13.067522327128486 366.2401136413825 57.460891676774445 0.4047372895886656
1.520827271709627 13.060368879809946 328.58900381955084 60.127250389951186 0.4117149937827481
1.5468114195532878 13.051870116847361 295.0530112104999 62.92570389840533 0.4189061547675056
1.5725297964749638 13.041977952084059 265.24900485613273 65.86388542578112 0.4263221554104153
1.597943226535177 13.03063248658843 238.71769039816263 68.94999697302619 0.4339752799259713
1.623052377452239 13.017815081664548 215.0528040446698 72.19286134926881 0.44187878850674656
1.6477942004581319 13.003451353653864 193.92830610245153 75.60197928564897 0.45004699862769176
1.6721427713761872 12.987505155319784 175.09286733099367 79.18714996524807 0.4584935272995824
1.696079439745904 12.969941221051853 158.23098610414365 82.95886693862407 0.4672328888074335
1.7195587126875347 12.950714590878597 143.15746819508755 86.92973758527135 0.4762860476600678
1.7425403582056302 12.92976180871437 129.67221271582915 91.11119329003277 0.48566673378164443
1.7650208423145228 12.907093324176957 117.57643005758669 95.51765033716639 0.4953981377241647
1.7869315165265585 12.882610632168097 106.73522590251865 100.1624695133771 0.5054965364133502
1.8082817159556335 12.856366994341787 97.00185679003744 105.06235231672844 0.5159882862419457
1.8289852629796353 12.828207041263067 88.26055564490005 110.23385817616162 0.5268959510632549
1.8490648782257857 12.798227077743126 80.40095189337929 115.69483312813244 0.5382436483218588
1.8684372892436698 12.76626831558415 73.32420922932236 121.4651272912226 0.5500593342957827
1.8871133191052267 12.73242699106449 66.9514900651724 127.56618419167079 0.5623728566282257
1.9050308911395908 12.696596073621654 61.20393394677336 134.0208286704161 0.5752148363651026
1.9221694049519142 12.658753128648504 56.02810422067808 140.854618326919 0.5886210478076317
1.9384767162537706 12.618855827265687 51.35310336320853 148.0952558819195 0.6026297746463793
1.9539673086561937 12.576976979376802 47.125209747814374 155.77105405695218 0.6172760718493869
1.9685748510586485 12.533022209345713 43.3030270643407 163.91590755061702 0.6326083177136295
1.9822862290922278 12.48700080209334 39.846118695213384 172.56387715229752 0.6486689493153568
1.9950673573364484 12.43889604303941 36.715522907558494 181.7538239866296 0.6655095895178376
2.0068969075966288 12.388712789750231 33.875088332286566 191.52804191878909 0.6831855280024182
2.017735921698939 12.336413623781242 31.302122754522422 201.93262571034424 0.701756077502723
2.027564224884426 12.282008674806695 28.966763622073657 213.017314715421 0.7212830921937573
2.0363651340162323 12.225512630803602 26.84868910349282 224.83821528342102 0.7418387861804652
2.044099681061091 12.166892474639372 24.922042978138833 237.45601451413026 0.7634985642817094
2.050749622900991 12.106158225417758 23.169600368093022 250.937948607185 0.7863460427159338
2.056312124618784 12.04338245008578 21.576946774533432 265.35738924121375 0.8104700526967004
2.0607480367406876 11.978506552033407 20.126166773314647 280.79571274135213 0.8359688578907565
2.0640429396939126 11.911581207805936 18.807567176287904 297.3432565680633 0.8629511328961292
2.0661892492789757 11.842649866197192 17.60640328380402 315.1004076679226 0.8915370839731672
2.067173377316641 11.771736933895914 16.5115827521625 334.17638405369274 0.9218515879298297
