M[M_sun], R[km], Lambda[1], P_c[MeV/fm^3], rho_c[fm^-3]
0.24162668629717493 15.618656898711224 2160425.4255784233 3.5677272577965504 0.1711233750220791
0.2536410566001765 15.27735351832873 1723244.385826968 3.7847836744347405 0.17388772518346055
0.2660365508793332 14.981302827148893 1383214.636560177 4.0113259513833075 0.17666574834919366
0.27880825660565434 14.723643531077913 1116639.7014254488 4.247611297610639 0.17945615815757288
0.2919608490490966 14.498538774199321 906029.2201731392 4.494264330367595 0.182265510537525
0.30549357560472523 14.301392409129392 738817.671356792 4.751437677116127 0.1850894534564764
0.3194063772275868 14.128330760759143 605210.4955639992 5.0198184811331865 0.18793471252005095
0.3337005072999902 13.976225313337919 497828.9887756915 5.299624097059999 0.1907977798300616
0.34838118448871447 13.84213450145763 411101.4566819669 5.59159083083306 0.1936851079323603
0.3634384542612067 13.724187687809222 340751.4356114565 5.895876225781417 0.19659158020452303
0.3788909464276941 13.62015774958445 283390.66621010733 6.213348310254151 0.19952496074507806
0.39471924192901137 13.528602134122298 236479.683579917 6.544271551623533 0.2024815537234687
0.41094067494958114 13.448047293663892 197939.8563381411 6.889334179705158 0.20546483138912308
0.4275447767128965 13.377207150699913 166147.00704507792 7.249247356479141 0.20847798027355802
0.4445372014939395 13.31505566207632 139862.9740629945 7.6242801869296555 0.21151670991127733
0.46191370347871824 13.260707072632187 118027.76124124679 8.015361315558273 0.21458686869376678
0.4796741861243605 13.213281517222923 99856.39982152249 8.423204702449564 0.2176902533770802
0.49782701737643603 13.172099953810603 84681.19608614495 8.84826497880786 0.22082453238106206
0.5163619052673422 13.136495442042117 71974.16756448077 9.291387776394364 0.22399272430838485
0.5352754374136176 13.105934498676765 61308.48207681767 9.753470293565352 0.22719793525498325
0.5545777829273014 13.079888077599747 52329.78716137923 10.235321543221737 0.23044151523428372
0.5742564127487767 13.057909581507099 44756.22099622921 10.737431976581076 0.23372040880330017
0.5943080671721411 13.03957710959862 38348.6198902617 11.261007503214852 0.23704031944117782
0.6147389352955029 13.024578747958424 32922.23196133941 11.807003289544893 0.2404030959142704
0.6355378498830109 13.012462002424284 28309.07159706929 12.376397602364344 0.24381036984762097
0.6567008420418939 13.00306849606233 24192.25390317921 12.96990583907079 0.24726039285701218
0.678229727725838 12.996018652551529 21041.884315811167 13.588801581659723 0.2507573587470955
0.7001126440804504 12.99108383046707 18184.507441595906 14.234306780835007 0.2543041904598726
0.7223412225492636 12.988021134165619 15740.122170447223 14.907610160608018 0.2579028707738923
0.744922461128098 12.986658019866276 13644.060074207931 15.609775178010613 0.261553639642826
0.7678382911019513 12.986759992707437 11844.00105098883 16.34199970775087 0.26525771472038456
0.7910777962057618 12.988131781916987 10296.713872942322 17.105931003366372 0.2690201144118932
0.8146462605393845 12.990653983428297 8963.244628288696 17.903022839829305 0.27284326879283
0.8385217533769183 12.9941180955453 7813.096192702914 18.734681318523414 0.27672863001018083
0.8626979290912793 12.998377958140292 6820.175890774381 19.602168056852005 0.28067594462262335
0.887167347972043 13.003314892450037 5960.354011083564 20.50760662739504 0.2846919280093273
0.9119213724523706 13.00881275099303 5215.354505488377 21.45278946008579 0.28877959014557925
0.9369357341477912 13.014703225886533 4568.948292522926 22.439252438533348 0.2929392754234193
0.9622089045988018 13.020891324582406 4008.152960356048 23.468915383099034 0.297173943980646
0.9877270195410152 13.027287564660382 3519.626901992285 24.54424867529812 0.3014901014648373
1.013462756353791 13.03374946236797 3094.5863226916244 25.66725548259329 0.30588983910459144
1.039421450141741 13.040206671322013 2723.89355575625 26.83977238174991 0.3103735018920162
1.0655700859575354 13.04653203273892 2400.3388238698194 28.064952716099437 0.3149502661487706
1.091891189552867 13.052657496466578 2117.5173366680956 29.3449220612974 0.3196210716102444
1.1183851954182895 13.058493411667788 1870.3359826769315 30.682290846572048 0.324389617102057
1.1450107924058017 13.063954994354782 1653.6874770682916 32.080606104442396 0.32926496247665893
1.171768327123971 13.068966160338471 1463.530587786518 33.54164632615661 0.3342437567963505
1.1986185243132725 13.073428461673466 1296.682937582304 35.07002707448254 0.33934007050369314
1.2255597027365963 13.077303170462903 1150.1526832161408 36.66786360869344 0.3445512356646308
1.252548531478187 13.080468857493262 1021.1837770691034 38.34002647985227 0.3498906001912779
1.2795864320586319 13.082915342398696 907.6003557097524 40.08892004824898 0.3553557421754841
1.3066259376730445 13.084511039066037 807.5864895066829 41.91994396811205 0.3609608059636181
1.3336580429197846 13.085232003242876 719.3092831179897 43.83644660604443 0.3667069955372346
1.3606615693173798 13.085038303341323 641.302755000822 45.84334632093696 0.37260335811649287
1.3875888045799056 13.083790618029894 572.4126200915166 47.945854636553236 0.3786591935156401
1.4144408149632142 13.08151440783039 511.3668181573253 50.14858258174848 0.3848794313771713
1.4411693438396398 13.078089895456458 457.3533864997743 52.45701522303044 0.3912724394807669
1.4677527670102535 13.073486933926295 409.44923986557313 54.87742697689502 0.39784919624856013
1.4941585609839758 13.067633434154057 366.9209994111395 57.41599890309435 0.40461874793240665
1.5203686729459347 13.060503589765293 329.19082207076036 60.07934938195864 0.41159084965866716
1.5463503634354843 13.052033431689976 295.62453145766455 62.87457347495289 0.41877602377477025
1.5720650563492902 13.042168153668815 265.75940407965936 65.80928605253564 0.42618562295631224
1.5974874290934742 13.030861480996075 239.1904200220735 68.89166907158858 0.43383189863189286
1.6225745162908476 13.018061624998237 215.4835281768966 72.13052343220387 0.4417280753511249
1.6473270372533277 13.003739337549613 194.31761764158867 75.53532589748629 0.44988843179682575
1.6716753722669009 12.987830876074794 175.43317421243876 79.11619743162599 0.4583279958503918
1.6956144659240173 12.97030423032529 158.54612728331045 82.88292303560928 0.46705836993949007
1.719078562086651 12.95107872534617 143.44619592644207 86.84841139083629 0.47610188384292135
1.7410055736996382 12.930268816983586 130.44994085818144 91.11224287274696 0.6238188286226621
1.757441996252342 12.90495521548524 120.62674619530186 95.9357200569259 0.8241456461648997
1.7690947930291616 12.872988867296044 112.91877356182057 101.35605006510532 1.0170856822828482
1.7766711118587706 12.833718592664473 106.6682960606209 107.38888425635311 1.2036008380795438
1.7809536819839893 12.787475954653402 101.41681378542852 114.05518614428394 1.3843565236898612
1.7824783290354551 12.73438772425735 96.881998590007 121.3773361926121 1.5601210082043304
