M[M_sun], R[km], Lambda[1], P_c[MeV/fm^3], rho_c[fm^-3]
0.24162668629717493 15.618656898711224 2160425.4255784233 3.5677272577965504 0.1711233750220791
0.2536448180501947 15.277295293154497 1723135.0522723424 3.784850113587423 0.17388855331544742
0.26604271415092684 14.98121561895754 1382997.900341963 4.011465619754871 0.17666743615903735
0.27881984983175234 14.723434374709663 1116350.816964555 4.247828920412564 0.17945868225412465
0.29197732509692936 14.498260180235283 905774.253961549 4.494565618200878 0.18226886544747384
0.3055135603312326 14.301134488357706 738602.0569628003 4.751832860107798 0.18509372218700454
0.3194323238619475 14.12801899834058 604995.1179435884 5.020310470305703 0.18793981709760618
0.33373276271620966 13.975838019478434 497589.4790761734 5.300225845132543 0.19080383843467152
0.34841630165566034 13.841900641159251 410925.1237583934 5.592303840224269 0.19369200649436236
0.36348210186383656 13.723835563973001 340590.6301913487 5.896716515208751 0.19659947238064873
0.378935999160284 13.619905688122868 283231.6147523388 6.21432604837133 0.19953387653943339
0.39477213643735454 13.528331504040986 236354.07871638882 6.545385723290867 0.20249132350381904
0.41099978099788764 13.447749734218409 197807.54937998025 6.890606293860822 0.2054756652470947
0.4276100131766762 13.376957129538035 166032.7785846067 7.250689350406739 0.20848990951976967
0.44460925682992497 13.314813200414047 139755.93736492403 7.6258880751113525 0.21152950973507234
0.461991007791411 13.260462909318063 117938.11446455862 8.01716314326632 0.21460080728780365
0.47976081559855466 13.213065119643879 99777.88520942179 8.42521451994747 0.21770536439499114
0.4979203837751746 13.171907046503714 84612.3596450509 8.850475375591966 0.22084053659820885
0.5164635233789168 13.136316468091403 71912.9679453095 9.293834523366993 0.22400994955960907
0.5353843977740786 13.105779541836576 61253.63640169526 9.75616998015289 0.2272164187383889
0.5546945909913283 13.079762877261564 52283.1801238258 10.238285990781497 0.23046122149638865
0.5743807078916728 13.057799934942897 44711.897554894655 10.740659831713087 0.23374113263311205
0.59444043637011 13.039478770588582 37978.076551583275 11.264541531754727 0.2370624001154478
0.6148819492597635 13.02446206760051 32887.94782662887 11.810864368632902 0.2404265777171937
0.6356895601746992 13.012402272931412 28047.83418758466 12.380607911603532 0.24383529940104365
0.656863650731841 13.002989080745667 24359.41112487956 12.974446044068982 0.24728634280698317
0.6783994086723081 12.99597343666276 21018.05559774337 13.593736153833554 0.2507848331229084
0.7002913570268045 12.991052149338579 18163.12879684446 14.239662178278364 0.2543332437523731
0.7225303087717466 12.987989447606752 15720.848933439664 14.91341454138574 0.257933560723042
0.7451217027203825 12.986650523508375 13626.881038736883 15.616001876671893 0.26158546639605
0.76804593812558 12.98677056007492 11829.555962476725 16.348733045997836 0.26529127872276614
0.7912955445315368 12.988146029058521 10284.431419722087 17.113204774064904 0.2690554842956948
0.814872691068287 12.990678349694948 8951.126925988141 17.91087307625537 0.2728805176033529
0.8387612215990952 12.994143281592788 7803.389506514628 18.7430732019598 0.2767671863724939
0.8629449859920438 12.99841968985294 6810.237699073616 19.611210700885763 0.28071651326350566
0.8874310298539114 13.003385407809201 5951.900628146596 20.51734355352331 0.28473459672935564
0.9121906306710713 13.008875631430769 5208.075838812483 21.463267170032008 0.2888244526653605
0.9372154659716665 13.014769882761925 4562.798235636848 22.45042728635859 0.29298568937929187
0.9625032071971078 13.020980019949295 4002.0535696799175 23.48092760316307 0.2972227291755044
0.9880271434305417 13.027359834731564 3514.3487161649023 24.557154807167446 0.30154137139992565
1.0137736514932718 13.033823007744079 3090.089258887559 25.681005568905743 0.30594290333578833
1.039741703678923 13.040280994476053 2719.58674976144 26.85453451728159 0.31042927058184383
1.0658974937096077 13.046608747384738 2396.7579073822185 28.080796000696292 0.3150088773476825
1.0922342573784396 13.0527325138219 2114.1982865129416 29.36179034428346 0.3196817870718157
1.1187363526156888 13.058566575644509 1867.1015046844213 30.700385514217796 0.32445344721468256
1.1453707677989284 13.064029974436774 1650.8430740512447 32.09986810038953 0.329331144797503
1.1721381472952799 13.069035464252392 1461.1097652676137 33.5623015864276 0.3343133671531102
1.1989975685981538 13.07348896920871 1294.48222135563 35.09217308509375 0.33941330135698733
1.225943308361431 13.077366617729274 1148.0949952247138 36.69143610475055 0.34462727688796707
1.252946680007092 13.080515387256705 1019.4630398427877 38.36521246600702 0.3499701566966272
1.2799936138387604 13.08294573255503 906.0307892627479 40.11582205673565 0.3554389680023615
1.3070465024809639 13.084549699584569 806.1642839442372 41.94858899533646 0.36104740422062015
1.334080786621512 13.085236506658994 718.022179206522 43.86715580155673 0.36679827914792357
1.3610910947734425 13.085028978765575 640.1487905339358 45.876055340167206 0.37269847150123003
1.3880326188679726 13.083777809787724 571.341282117146 47.980703185455695 0.37875838373517284
1.4148777819517988 13.081451292203996 510.42509232541875 50.185952774554316 0.38498414677569365
1.4416103328887138 13.07800550736641 456.50499069158616 52.496847737056804 0.39138180464032996
1.4682064907635348 13.073397110723333 408.6808984206654 54.91989818090481 0.39796352109147504
1.4946179150899983 13.067521953540245 366.238255845755 57.4612994516973 0.4047383663391262
1.5208311220100508 13.06036579442059 328.5849504219913 60.12768549463741 0.41171612143522185
1.5468164072666086 13.051868433824533 295.04434994358127 62.926168342710156 0.4189073368151863
1.5725340714484835 13.04197580911945 265.24632081990046 65.8643813863733 0.42632339562092986
1.5979479642422287 13.030629099995565 238.7157884332869 68.95052680875969 0.43397658236496267
1.6230570542855245 13.017812923323042 215.05026291879688 72.19342761813871 0.4418801575638523
1.6477993748399016 13.003448830568392 193.92773169504034 75.6025847635116 0.45004843904517816
1.6721469114252512 12.987501178428925 175.09054037219175 79.18779450359149 0.4584950310001636
1.6960836073398966 12.969937228167241 158.22707736922902 82.95955682836015 0.46723447417203773
1.7195640228403426 12.950710016475565 143.15701190288948 86.93047637914934 0.476287720664708
1.7425445110088322 12.929755582432849 129.6716546119051 91.11198129551798 0.4856684868037946
1.7650251205065883 12.90708854509774 117.5705825671045 95.51849514848533 0.4953999914288357
1.7869362473222883 12.882605080402712 106.73388013777868 100.16337186622634 0.5054984836516515
1.808285296301792 12.856361063733464 97.00259094075064 105.06331689203063 0.5159903345196217
1.8289884859025443 12.82820546418284 88.26192095018236 110.23489007977284 0.5268981084992116
1.849069304619938 12.798220739267789 80.39769343675354 115.69594215203388 0.5382459391825444
1.8684408703648492 12.766261471699941 73.32064226931111 121.4663154538048 0.5500617529593871
1.887117219026991 12.7324204775689 66.95079199564418 127.56745364699458 0.5623753973425487
1.905035446335494 12.696584341142726 61.205339492662254 134.0221910746089 0.5752175261740019
1.922171508202871 12.658744952817308 56.02622162634488 140.8560816722526 0.5886238989608237
1.9384796025252236 12.618843817844285 51.346734853134826 148.09682893538988 0.6026328004929938
1.9539712956630715 12.576967174718247 47.12437291835711 155.7727412638204 0.617279269275294
1.9685793383222794 12.533012852238558 43.30401629696512 163.91771913958198 0.6326117017768714
1.982289250150056 12.486990145422228 39.846444732761654 172.56582981157172 0.6486725546872073
1.9950695181461042 12.438886214021203 36.714869253070276 181.75592479737165 0.6655134161737336
2.0068994490965726 12.388701464280668 33.875389200059125 191.5303045294794 0.6831895955247921
2.0177384423890956 12.336401823401086 31.30171935940757 201.93506517723716 0.7017604073158243
2.0275661577743227 12.281995395726737 28.967343854780523 213.01994151024164 0.7212876876141399
2.0363672001801447 12.225498946960343 26.847666509330065 224.84105373168057 0.7418436925058556
2.0441017129885295 12.166878370037937 24.92211474639446 237.4590784496945 0.7635037885733043
2.050751143024501 12.106143691887684 23.169498245823217 250.94126017672227 0.7863516148261197
2.056313999701846 12.043367098590092 21.576547729863925 265.360973014319 0.8104760054295951
2.0607490299197413 11.97849018344504 20.125900620527148 280.79959601604713 0.8359752273650806
2.0640431518983755 11.91156532251722 18.806827550793027 297.34746971910346 0.8629579589557314
2.0661896293235156 11.842632446992713 17.606288698886956 315.1049845445834 0.8915444106524988
2.0671756066083953 11.771720748449411 16.512159776486786 334.1813548571479 0.9218594389168221
