M[M_sun], R[km], Lambda[1], P_c[MeV/fm^3], rho_c[fm^-3]
0.24162668629717493 15.618656898711224 2160425.4255784233 3.5677272577965504 0.1711233750220791
0.25364466287096393 15.277259554892527 1723120.767841449 3.784842588167718 0.17388845951472118
0.26604222328416455 14.981227343504717 1382965.8907478484 4.011449799644602 0.17666724498234115
0.27881907569229464 14.723426242110493 1116380.4916164456 4.247804270211449 0.1794583963489388
0.29197441079462016 14.498335024535098 905794.2771714507 4.494531490881405 0.18226848543185098
0.30551168780764504 14.30115152482181 738574.850712556 4.751788096672717 0.18509323865647337
0.31942945138430207 14.128051630952518 605035.3413715349 5.020254740820019 0.1879392388826826
0.3337286512682532 13.975894236933616 497594.9528959186 5.300157682138161 0.19080315214642093
0.34841215423233224 13.84188229132246 410943.51877425954 5.592223073333615 0.1936912250524771
0.36347604864143995 13.723894695237192 340618.3015674232 5.896621329582022 0.19659857837709907
0.3789320635268027 13.619911830306268 283247.9510072531 6.21421529183911 0.1995328665732191
0.39476606986706164 13.528373371088179 236364.88460512203 6.545259510646316 0.20249021678943127
0.41099313681305144 13.447803287498784 197829.11582947723 6.890462188185479 0.20547443798269188
0.4276030992177885 13.376982657225872 166038.08894379955 7.250525999086377 0.20848855815615966
0.44460103385418454 13.314842938657707 139770.71909399444 7.625705929447262 0.21152805973846692
0.461982434516814 13.260503542149175 117950.27242316578 8.016959025689438 0.2145992282733245
0.47975085201656537 13.213098663082038 99794.52213045795 8.424986838367978 0.21770365254780635
0.49791040477774795 13.17192147038774 84619.38461467657 8.850224969355232 0.22083872355006454
0.5164517838751332 13.13633757312348 71923.95048920091 9.293557339444797 0.2240079981675164
0.535372373748974 13.10579245531854 61260.97883081188 9.755864138672578 0.22721432478572337
0.5546801473064762 13.079769472040898 52287.35161183498 10.23795277019477 0.23045902266151802
0.5743660787977974 13.057804208416144 44314.248396308205 10.740294148855238 0.2337387848358903
0.5944261994415373 13.039503351674002 38317.802810757064 11.264141158891166 0.237059898578551
0.6148667390953012 13.024464102648716 32891.39095874529 11.810426939917644 0.24042391742077124
0.6356726710361456 13.012413549036848 28282.565163639636 12.380130913564441 0.2438324750602595
0.6568456196199478 13.00300830280012 24362.374044504544 12.973931667198334 0.24728340283972072
0.6783800716706709 12.995975099266364 21020.851648967557 13.593177092490306 0.25078172041913066
0.7002712341699373 12.991057700104365 18166.099860916092 14.239055434045055 0.25432995213529525
0.7225089085469767 12.987996634913186 15724.709932742913 14.912756923156609 0.2579300836475735
0.7450991322923931 12.986653782674654 13628.749596322645 15.615296405771362 0.26158186049676385
0.7680225036293036 12.986758440193496 11831.472111127492 16.34797016695263 0.2652874759620624
0.791270413413844 12.988148936607997 10285.777993928436 17.11238065706897 0.269051476893813
0.8148468964927509 12.99067286228174 8952.413231983777 17.909983637546617 0.2728762972802778
0.8387342419531933 12.994144911853748 7804.384576664325 18.742122386965416 0.27676281786955964
0.8629157287151095 12.998424762778798 6811.197546145465 19.610186144039524 0.28071191672309076
0.887401684787675 13.003366762544479 5952.658158280023 20.516240322243426 0.2847297621988285
0.912160523806515 13.00886778417512 5208.89283350582 21.462079993905768 0.2888193695209787
0.9371833791382256 13.014762185633336 4563.175300989046 22.4491611114038 0.2929804304093803
0.9624710735735782 13.020969088901294 4002.672673220811 23.479566536132875 0.29721720147788233
0.9879928467297218 13.027358621754322 3514.8907060674796 24.55569243976689 0.30153556210846166
1.0137384559916978 13.033818862538649 3090.6624495511983 25.67944756265842 0.3059368906896249
1.039706008164939 13.040272579549184 2720.099239117149 26.85286182064838 0.3104229514351653
1.0658614297935247 13.046592127496252 2397.0712162620985 28.07900078150584 0.3150022360512759
1.0921960885878474 13.052729395660377 2114.6103899335144 29.35987896624686 0.319674907284476
1.118696701210582 13.058559005784996 1867.4338626451572 30.698335151647843 0.32444621442785687
1.1453300497118453 13.064011805539188 1651.2283302610597 32.097685446526356 0.32932364541381187
1.1720963469396386 13.069028084624788 1461.2537118028024 33.559961032323564 0.33430547924445836
1.1989547232450173 13.073483014529112 1294.7277135060567 35.08966358045294 0.33940500310546845
1.2259032296872672 13.077351406720338 1148.4438464161651 36.688764933490475 0.3446186601029705
1.2529023545594706 13.080508319456577 1019.6220580321685 38.36236878492991 0.34996120221752924
1.2799468112089945 13.082943651629604 906.2143059131632 40.11277353543226 0.35542953689589396
1.30699920162595 13.084549603292638 806.3361042738338 41.94534292743553 0.3610375908655785
1.3340326291196656 13.08524163224682 718.1359079976176 43.86367578281137 0.36678793473247917
1.3610435967411036 13.085028066567704 640.2573790640176 45.87234866413411 0.37268769299083965
1.3879826735148242 13.083780266712596 571.4411115831372 47.97675401532467 0.3787471431221601
1.4148277460823204 13.081459908043627 510.56488958914235 50.181717793355546 0.3849722798916701
1.4415600626162983 13.078011482709373 456.61365947300135 52.492333669453835 0.3913694107019672
1.468155404462865 13.073406832644787 408.77965058525797 54.915085033164665 0.39795056496338427
1.4945659759382282 13.067534342827912 366.30720402612303 57.45616561027604 0.40472481016927614
1.5207790316531256 13.06038260290893 328.65983931385796 60.122207581124414 0.41170192443178993
1.5467632392896573 13.05188652462405 295.1116467778692 62.92032105429624 0.41889245500129285
1.5724812287976804 13.041998149980222 265.3055605384603 65.85813732022855 0.4263077815648767
1.5978947438943143 13.03065607277 238.76787783107997 68.94385626851522 0.4339601848833307
1.6230039020213236 13.017842207043293 215.0961452454614 72.18629840043732 0.4418629213944793
1.647745472784402 13.003481033147759 193.9724221542914 75.59496192234754 0.45003030448669734
1.6720936010212029 12.987539183943463 175.1326049708132 79.17967990842591 0.4584760997424793
1.696029996502119 12.96997744536771 158.26262645968842 82.95087128154248 0.46721451481074716
1.7195100378792871 12.950755146756102 143.19078805949673 86.92117515443397 0.4762666579670173
1.7424913620605476 12.929807042561109 129.69416269258124 91.10206052191464 0.48564641673423264
1.764973273528649 12.907144027758704 117.60049931384133 95.50785922127176 0.49537665382964197
1.7868843929598255 12.88266782167608 106.75601452069789 100.15201152333373 0.5054739685245437
1.8082353492450431 12.856425567889271 97.02493539606701 105.05117320467728 0.5159645473740727
1.8289391949668399 12.828271447001054 88.27443434981224 110.22189876977778 0.5268709471258013
1.8490204065578963 12.798296002906454 80.41754910388194 115.6819799479708 0.5382170980869363
1.8683924489188208 12.766348043347179 73.33820804380096 121.45135694574891 0.550031302918667
1.887068037660511 12.732513220516205 66.96314468985155 127.55147171677244 0.5623434107745585
1.9049886628911599 12.696680733312476 61.21742287112101 134.00503898376857 0.5751836626210062
1.9221277086880757 12.658846648233359 56.038894362926065 140.83765880646777 0.5885880042124131
1.9384379506755776 12.618940091866877 51.3601695105106 148.07702492765 0.6025947064987953
1.9539303185032981 12.577082210413609 47.134581008928826 155.7515001524159 0.6172390152429172
1.968542188624537 12.53314185411028 43.314695523944984 163.89491215650185 0.6325690981429385
1.9822519134813357 12.487121338308622 39.853792132559725 172.54124687244348 0.6486271649779499
1.9950355753710263 12.43902195302624 36.72229431531266 181.72947675803258 0.6654652407033546
2.0068687932431817 12.38884630197701 33.883674459700316 191.5018195721694 0.6831383877754102
2.0177082460486226 12.336554511207252 31.308357065144097 201.90435376261175 0.7017058975842955
2.027539238783246 12.28215758435518 28.973802174120184 212.9868718113925 0.7212298341545005
2.036342502943558 12.225667115546953 26.853027861298134 224.80531952373693 0.7417819250767141
2.0440805248608593 12.167054810114518 24.92760835066581 237.4205055816755 0.7634380182899679
2.0507324864978567 12.1063276946605 23.17388185059938 250.8995698526954 0.7862814658902303
2.0562981553155435 12.04356046094312 21.58120804429442 265.31585593810394 0.8104010648862598
2.0607382765532845 11.978691778995701 20.130823348912806 280.7507085456626 0.8358950405351908
2.064035067598088 11.91177549556907 18.81084474103918 297.2944294823771 0.8628720242684259
2.0661845644034442 11.842851045491429 17.60963744541071 315.0473654319663 0.891452173786006
2.067171443621644 11.77194646517433 16.514214894283384 334.11877668192125 0.921760601687761
