M[M_sun], R[km], Lambda[1], P_c[MeV/fm^3], rho_c[fm^-3]
0.24162668629717493 15.618656898711224 2160425.4255784233 3.5677272577965504 0.1711233750220791
0.25364162468934925 15.27736564310291 1723252.4170565056 3.784797605073359 0.17388789882215056
0.2660376579733036 14.98128361715187 1382998.9867651446 4.0113552360804 0.17666610223747536
0.2788113390690021 14.723610740828473 1116487.034190043 4.247656926819139 0.17945668738762974
0.29196378303197823 14.498521083631077 905996.8776155646 4.494327501128527 0.18226621395860915
0.3054979030227654 14.301300853820246 738708.6052637104 4.75152053401573 0.1850903484691269
0.3194124789574915 14.128244641341587 605178.132961843 5.019921634194436 0.18793578277287484
0.3337093489280105 13.976062541944753 497755.1670441 5.29975026159925 0.19079905009762704
0.3483881549214637 13.842134167664407 411072.85565238947 5.591740321520642 0.19368655429588613
0.3634482413537499 13.724114072946175 340709.80574099784 5.896052400627884 0.1965932348759636
0.3789008319536767 13.62012577764706 283357.07872317825 6.213553300733467 0.1995268300114248
0.3947304042209333 13.528559529562678 236451.65413757888 6.544505144573476 0.2024836020180711
0.4109530989811077 13.447990483951177 197914.39604702557 6.889600883947415 0.20546710275436822
0.42755919348109755 13.377142212765804 166127.5168876367 7.249549674134117 0.20848048127004026
0.44455209621774316 13.315004629847108 139842.86680057598 7.624617282119458 0.21151939340573966
0.46193043184987304 13.260649258729051 118010.40009942983 8.015739067126116 0.21458979090754307
0.47969279221014777 13.213242621571748 99852.16360087301 8.423626055319566 0.21769342136162212
0.4978467935499285 13.17205646412008 84669.34575918359 8.848728379138072 0.2208278875974485
0.516382219908664 13.136474522621679 71960.52799006389 9.291900722251253 0.22399633547919579
0.5352979606626379 13.10590674788487 61297.346374562934 9.754036261979863 0.22720181017433352
0.5546012519985789 13.079866918524889 52316.63314766456 10.235944222464832 0.23044566203513478
0.5742797130744306 13.057899457205256 44744.74058507703 10.738108660989164 0.2337247533268107
0.5943348414057961 13.039567196349902 38343.73121016249 11.261748367413443 0.2370449483740975
0.614768958317757 13.024535701233663 32913.24277645242 11.807812709075368 0.24040801853550234
0.6355674583120803 13.012454314678601 28305.158316427867 12.377280225698891 0.2438155959258781
0.6567361457122545 13.0030413010803 24380.627979677323 12.970857613138032 0.2472658328072872
0.6782648368708651 12.995995755542609 21036.663996490195 13.589836019395129 0.2507631182192638
0.7001494927996188 12.991065324295135 18180.43012378733 14.235429427259831 0.2543102808715181
0.7223814691141465 12.988004497356586 15735.849853423179 14.908826916960482 0.2579093042233876
0.7449654070925412 12.986641068815016 13543.462978772794 15.611080454835555 0.2615603113521308
0.7678816163293409 12.986761379277366 11841.213718583542 16.343411177731348 0.2652647505442283
0.7911231563913612 12.98812031001698 10293.731868994024 17.1074557484621 0.26902752873097174
0.8146950469466117 12.990658196236003 8960.984995414274 17.904668411445424 0.2728510769124845
0.8385728501966673 12.994120409900296 7810.849670675973 18.736440418657022 0.2767367121651119
0.8627503813859345 12.998384784334217 6817.962889209872 19.604063553179675 0.28068444851921864
0.8872212335249299 13.003324832366342 5958.8007338544185 20.509647640352178 0.28470087204456956
0.9119782484728509 13.008820174410873 5213.921411093633 21.454985734546323 0.28878899395680674
0.9369938546921853 13.014709744524414 4567.658831059307 22.441594826882945 0.29294900437106985
0.9622692089815307 13.020909991140384 4006.9205918451826 23.471433273817382 0.2971841698829914
0.9877902899500682 13.027306250952252 3518.47871194178 24.546953916432475 0.3015008481036258
1.013531046201264 13.033756233071342 3093.846525509113 25.67013760421062 0.305900961766978
1.0394883853671828 13.040217829670349 2722.9478509890464 26.842866609673827 0.3103851913279365
1.0656398262936733 13.046553436120302 2399.5877790231198 28.068273529975663 0.3149625512832993
1.09196409253416 13.052675487066983 2117.0399648894354 29.348457693737394 0.31963379771613903
1.1184591583612131 13.058510995115116 1869.693034876408 30.686083498368763 0.3244029959270276
1.145085509300167 13.063967573652706 1652.9396959575695 32.08464339963191 0.3292788342252725
1.1718464427092672 13.068979418266633 1463.0613642738022 33.54597560877798 0.33425834692515227
1.1986982750516018 13.073446171860184 1296.238965665389 35.07466877129922 0.33935541933669905
1.2256406629785235 13.077311192925553 1149.7611478425622 36.67280425282494 0.34456717341780374
1.2526322906364598 13.080477412612902 1020.8319589784313 38.34532289953751 0.3499073780877501
1.279671205110914 13.082928573865932 907.2773293161689 40.094558440001926 0.35537318547590274
1.3067123299268746 13.0845199665392 807.2486274247746 41.92594763192246 0.3609789559488681
1.3337466006239203 13.085229006073327 719.0055253509784 43.842882832268344 0.36672612733014315
1.3607514183851654 13.085036775434183 641.0565318640264 45.85020162700164 0.372623292415306
1.3876805533728853 13.083784829408259 572.1972528281811 47.9531582945154 0.3786799820838725
1.4145350526803684 13.081501096419686 511.17611868965116 50.156414652564926 0.38490137770271105
1.441255817975102 13.078057888938083 457.16863610802903 52.465363276969555 0.3912953601091382
1.4678493504942147 13.073466320228968 409.3029717414503 54.88632796635886 0.39787315611138874
1.4942555496279135 13.067609645380568 366.78734715502276 57.425492773095066 0.404643816979871
1.5204656176661393 13.060477406967518 329.0679335956729 60.08947933799677 0.4116171032715249
1.5464483466380783 13.051999777107762 295.49848180608166 62.8853862776197 0.4188035432172132
1.5721630236877393 13.042130183848553 265.6541425812465 65.82083234181346 0.426214495874025
1.597585909061942 13.030815030337079 239.08436256222376 68.90400372418767 0.43386221960021293
1.622667544042118 13.017982266562678 215.39143311629437 72.1437059556833 0.4417599464787818
1.64742496092852 13.003680736288821 194.23697663634604 75.54942086536866 0.44992196339139096
1.6717742466181735 12.987763002253693 175.35571264059038 79.13120139541468 0.45836299992625434
1.695712672743076 12.970226780272986 158.47665982975175 82.89898232725531 0.46709527414492036
1.7191755421779689 12.950990745723269 143.39492575321 86.86560864779399 0.47614082716871914
1.7421809125050327 12.930109645175945 129.87989795906276 91.04279333379793 0.4855145690561407
1.7646617764358572 12.907475297573608 117.76946084588991 95.4443204083329 0.4952372354865266
1.7865911285790064 12.883057116354431 106.89998766649072 100.0841457604797 0.5053275171525775
1.8079313346342383 12.856818729553815 97.15670133246518 104.9786285730461 0.5158104986967444
1.8286447554459406 12.828703203386445 88.39789983513612 110.14422740627728 0.5267084525637662
1.8487270974600933 12.79875647809717 80.52156086054262 115.5985737467159 0.538044809656411
1.8681166007919148 12.766871330737638 73.43483691032382 121.36200014971058 0.5498494052275454
1.886792008082578 12.733042252680216 67.05469073473863 127.45580193940683 0.5621516203372589
1.9047188382021945 12.69724784459732 61.301614624012885 133.9025808508157 0.5749813784535892
1.921866241093521 12.659456618541384 56.116950662811135 140.7276111025148 0.5883735894360859
1.9381852702298823 12.619588790853301 51.43068948861615 147.95872863521382 0.6023671576946869
1.9536913364378499 12.577776620217278 47.20174802084342 155.62462108490996 0.6169985667092198
1.9683116387168003 12.533869099527848 43.37182891566981 163.75862487701156 0.6323144265928257
1.9820357096345633 12.487899262101719 39.90880671669809 172.39441014705116 0.6483560470193085
1.9948312820663021 12.439845168055772 36.77227241548618 181.57150173667276 0.6651774870115
2.0066697844274737 12.389697717421326 33.92739651897093 191.33168038981512 0.6828325265267793
2.0175319336785287 12.337467057124403 31.351543364705087 201.72091877071603 0.7013803185680504
2.027377412267592 12.283112563445902 29.01284305803459 212.78935388815177 0.7208842883649128
2.0361969307944174 12.226672219241758 26.888197796684942 224.59189047332023 0.7414130078820439
2.0439523812555787 12.168107588936296 24.959440610512413 237.1901256334214 0.7630451993151321
2.050623650219627 12.107431960051933 23.204384985490147 250.65038623367337 0.7858618883050578
2.0562013089980797 12.044694817454857 21.608314105611928 265.04597095980836 0.8099520956946241
2.060668242263209 11.979895873304246 20.157304944278163 280.45873822032803 0.8354161412461442
2.0639898493828 11.91304539848753 18.83424765140456 296.97766329917084 0.8623588062931139
2.066157279315213 11.844162668698349 17.63039266919439 314.7032597627452 0.8909013282899593
2.067164517200805 11.773303772152442 16.53421887217715 333.74506198348035 0.9211703491736931
