M[M_sun], R[km], Lambda[1], P_c[MeV/fm^3], rho_c[fm^-3]
0.24162668629717493 15.618656898711224 2160425.4255784233 3.5677272577965504 0.1711233750220791
0.25364415181372135 15.277275052778519 1723149.6985419374 3.7848218069780377 0.17388820048721698
0.26603999145702595 14.981249509818579 1383025.9032293817 4.011406113181786 0.17666671705722
0.27881545864743185 14.72348240176634 1116473.0929049733 4.247736200232407 0.17945760683976117
0.29196992662347715 14.498407209907507 905832.5330873447 4.494437250907132 0.1822674360478655
0.305505290465086 14.301217780710818 738665.2902876717 4.751664486507305 0.18509190343077336
0.3194215538847238 14.128142160898152 605106.9752837884 5.0201008496375366 0.1879376422022678
0.3337203168605076 13.975956555653365 489697.771932225 5.299969458043054 0.1908012570421035
0.34840109921245965 13.842026817662221 411006.421376358 5.592000046087521 0.19368906720251844
0.36346364621936345 13.723991810742353 340646.0563774982 5.896358488142899 0.19659610971467964
0.3789170200325449 13.620000104930131 283296.84957361285 6.213909455045197 0.19953007770991008
0.3947498530787998 13.528445047826953 236417.02229136194 6.544910995746466 0.20248716078458015
0.41097479391328645 13.44788375658462 197867.50501572952 6.890064266571627 0.205471049115247
0.4275827914187071 13.377052877679677 166077.89120436565 7.2500749362289705 0.20848482662873785
0.4445776297842552 13.314947998030421 139803.40537573159 7.625202971771685 0.2115240558719686
0.46195917802446734 13.260569251430091 117981.68844728167 8.016395399696453 0.21459486817059673
0.4797243605058686 13.213145768490591 99810.52870977295 8.424358148414116 0.21769892567824575
0.4978816316856723 13.17197981214737 84644.51141079134 8.84953353329915 0.22083371725759063
0.5164193354913877 13.136408406969263 71939.221226363 9.292791966759262 0.2240026098960948
0.5353379784953449 13.10584015532532 61275.98726326645 9.755019639246896 0.22720854289563555
0.5546440823629937 13.079830068440453 52300.11232801352 10.237026142045028 0.2304528671974807
0.57432753671369 13.05783647646923 44729.797605237596 10.739284421886573 0.2337323020759772
0.5943839281397263 13.0395206408086 38328.17924237554 11.263035650460901 0.2370529913418731
0.614820916206457 13.024522873486003 32902.81482696196 11.80921911833208 0.2404165718503252
0.6356237264003837 13.012442983372743 28292.358512475337 12.378813839596798 0.24382467656756632
0.6567951185281133 13.003016383404155 24370.62511713247 12.972511389118514 0.2472752851126289
0.6783295034899403 12.995976547137465 21028.293638993877 13.591633440137208 0.2507731257763978
0.7002155279452406 12.991063514857464 18172.307625228204 14.237380129469695 0.25432086352621064
0.7224499571611573 12.987999633604508 15729.803575611888 14.910941156488713 0.25792048300474196
0.745037934585937 12.986643679700457 13537.7061805357 15.613348518986443 0.2615719041916037
0.76795820638034 12.986750580008998 11836.455057584953 16.345863778956662 0.2652769761462029
0.7912021565737315 12.98814537679147 10289.004148070226 17.11010519485112 0.26904041209158375
0.814777133072771 12.990669368033291 8956.4335504741 17.90752782705676 0.2728646446351023
0.8386585399737204 12.994129631986361 7807.366391389048 18.739497121261373 0.2767507561319985
0.8628414573123968 12.998403098415647 6814.841462987751 19.607357284665415 0.2806992254151474
0.8873201334677187 13.00336422926791 5955.454376522768 20.513194252018806 0.2847164138468036
0.9120760727213466 13.008853958392713 5211.143136794046 21.458802163095843 0.28880533479866777
0.9370966461120911 13.014736935989937 4565.312695410833 22.445665175167598 0.2929659102805394
0.9623796750014493 13.020952869489431 4004.4929473283055 23.475808618025543 0.2972019394558622
0.9878992978703114 13.027330366085245 3516.444166195989 24.551654849048404 0.3015195226772714
1.0136425555057875 13.03379025404186 3091.887520672338 25.675145929503607 0.30592028985883263
1.0396058764126606 13.040246296119046 2721.4356962800384 26.848243550550965 0.31040550444234705
1.0657567030045976 13.0465715318839 2398.309952740529 28.074044253333362 0.31498389969830226
1.0920893136001035 13.052703343940797 2115.7758717245874 29.35460174833306 0.31965591254021464
1.1185882472353361 13.058534463012807 1868.6415348489888 30.69267423167496 0.32442624516583407
1.1452173466804927 13.063990909713393 1652.082026782811 32.091659302268944 0.3293029401756947
1.1719806497826406 13.069006024502407 1462.0598773762954 33.55349896898711 0.3342837014247479
1.1988369726021346 13.073462540738074 1295.4301636316106 35.082735093991914 0.33938209247905876
1.225781762926991 13.077334940340876 1149.0643530638424 36.681390131862436 0.34459487013451323
1.2527780201957472 13.080491051414699 1020.1826613382439 38.35451773549302 0.3499364800155055
1.279819310826282 13.082933944319558 906.7248414729562 40.10435699096007 0.35540349891908285
1.3068631543840545 13.084524391437817 806.74328023246 41.93638102221037 0.36101049766836013
1.3339009125191197 13.085237607871132 718.584898421891 43.85406802534848 0.3667593755085332
1.3609077032330577 13.085032699678433 640.620864908627 45.862115188193954 0.3726579354329183
1.387839396259083 13.083772947411417 571.8091399233288 47.96585110484383 0.3787161099193955
1.414696105365114 13.081483799695583 510.8219159493582 50.17002587740388 0.38493951785469777
1.4414183495035167 13.07803196720116 456.8658396342627 52.47987131091185 0.39133519373465314
1.4680134862715644 13.073438173838257 409.00763799950613 54.901797042351404 0.39791479608190805
1.4944226643300254 13.067571166990891 366.53100260729957 57.44199232669281 0.40468738489182376
1.5206342788816025 13.06042551099159 328.83060353788017 60.10708447313217 0.4116627301627388
1.5466180971761478 13.051939175108997 295.2897622877716 62.90417827884387 0.41885137035435904
1.5723339797905729 13.042058652636394 265.46643462590873 65.84089923818405 0.42626467561867865
1.5977582944658626 13.030731475121199 238.91904579519874 68.92544091060762 0.4339149163620462
1.6228450538015344 13.017911044610283 215.23909033098258 72.16661687820708 0.441815337765407
1.6475972842391775 13.003572438155995 194.09235599302707 75.57391777780548 0.44998024096554257
1.6719480000834663 12.987637004716165 175.23311078415367 79.15727829942075 0.4584238370449613
1.6958833764872163 12.970091880431442 158.36168743902996 82.92689361050648 0.46715941419254076
1.7193636086339696 12.950881757795463 143.27729255768037 86.89549797101863 0.4762085117799961
1.7423465866410324 12.929943098075219 129.7832186295007 91.07467313892161 0.4855854898880065
1.764829471268706 12.907295933461858 117.67923941148953 95.47849776220251 0.4953122282323488
1.786755639351985 12.882859157508703 106.8207506017254 100.12065042096803 0.5054062926262015
1.808094866459136 12.856607483078303 97.08279786638765 105.01764981069276 0.5158933603766789
1.8288048884060086 12.828474122576504 88.33034205895795 110.18603567275329 0.5267959669297853
1.8488850422732934 12.798511153045677 80.46177848290988 115.64343692190714 0.5381374814952645
1.8682621111920656 12.766573046222936 73.38762284516336 121.41006385568703 0.5499472453195303
1.8869419448538012 12.732755592545981 67.00980246449556 127.50733598623947 0.5622550487580545
1.9048639863802 12.6969430558683 61.25564313727332 133.9576910738385 0.5750901831454086
1.922007086966521 12.659126997530592 56.075278098034495 140.78680330646955 0.5884889183590473
1.938321393123605 12.619242458472705 51.39184976693714 148.02235723720278 0.6024895504763329
1.9538177566557544 12.577401432887099 47.16206169614334 155.6928658158341 0.6171278973057149
1.9684361404696096 12.533474604267314 43.34341718194594 163.83195579158462 0.6324514951300693
1.982151601910056 12.48747736273547 39.87953267913731 172.47338869488016 0.648501872272539
1.994941436796866 12.439404649461919 36.745740378524054 181.65647073971581 0.6653322592287049
2.006778845204848 12.389247398241775 33.903227156011106 191.42319153653986 0.6829970372127575
2.0176267658799465 12.336976222087113 31.328516317082027 201.8195806321894 0.7015554336399755
2.0274637761488505 12.28259379367848 28.9921856218078 212.89558976786424 0.7210701416805789
2.0362757527022217 12.226131474357244 26.870777116391483 224.70668350044346 0.7416114303622607
2.0440215982394343 12.167540787539341 24.94222140736739 237.3140349692121 0.7632564761151608
2.0506824866474527 12.106837654795722 23.187500249170828 250.78449528129644 0.7860878392173754
2.0562551188390565 12.044095900598624 21.59294706821873 265.1911716337596 0.8101937180520603
2.0607046725296194 11.979249484110525 20.142114720613296 280.61577070952995 0.835673711077427
2.0640121306039467 11.912357161932121 18.82149156868498 297.14803071203136 0.8626348320285709
2.066173733808988 11.843460674274604 17.618824370720723 314.8883298965237 0.8911975891736449
2.0671684218107504 11.772573419667921 16.52326753083505 333.94605526064163 0.9214878019997396
