M[M_sun], R[km], Lambda[1], P_c[MeV/fm^3], rho_c[fm^-3]
0.24162668629717493 15.618656898711224 2160425.4255784233 3.5677272577965504 0.1711233750220791
0.25364433976506956 15.27732377607775 1723309.590294064 3.7848459244228008 0.17388850109953133
0.2660424842009266 14.981231810095691 1382925.139266659 4.011456813191211 0.17666732973691282
0.2788194866162263 14.723428411565049 1116345.8132897855 4.247815198403499 0.1794585230994981
0.2919755250617188 14.498315023948633 905815.3237283044 4.494546620560223 0.18226865390433603
0.3055130971253763 14.301114989064208 738628.1544555589 4.751807941650226 0.18509345302010516
0.31943060038071996 14.12803898070284 605022.2922308302 5.020279447360189 0.18793949522257272
0.33373169429110805 13.975862516875258 497604.46441275603 5.30018790080081 0.190803456398212
0.34841407819130743 13.841914658137995 410935.7357648191 5.592258879650246 0.19369157148844046
0.3634795781848031 13.723854483934405 340610.7671090652 5.896663528114467 0.19659897471464596
0.3789338543095433 13.619913136021426 283240.4299417485 6.214264393368065 0.19953331432004107
0.3947690270631462 13.528338858862988 236363.02997799427 6.545315464274376 0.20249070742715972
0.4109961538072979 13.447773816069612 197822.78920790448 6.890526074254782 0.2054749820632668
0.42760682066148337 13.376967873645832 166040.57600620386 7.250598417237418 0.20848915725296405
0.44460462653743743 13.314824308942939 139765.1705831936 7.625786679599937 0.2115287025616044
0.4619862189163839 13.26047521895024 117945.3088352389 8.017049516530276 0.2145999282931371
0.47975460176689944 13.213084767684057 99782.36289093344 8.425087775700042 0.21770441145543568
0.4979155673081013 13.171904779463881 84615.80864869323 8.85033598106953 0.22083952732230774
0.5164572621517411 13.136327350793316 71920.29883848185 9.293680222333993 0.2240088632707172
0.5353768360586842 13.10581177356732 61255.11497946341 9.755999726117347 0.22721525308914087
0.554687790175583 13.079759932886386 52287.318242426394 10.238100495421259 0.23045999746137197
0.574373201396124 13.057789117666989 44715.31169719709 10.740456265331762 0.233739825673887
0.5944328258801181 13.039483761015354 38315.01237331114 11.264318654209507 0.237061007572512
0.6148729896504144 13.024466478666813 32889.4940724632 11.810620862895838 0.240425096796032
0.6356814781147406 13.012394810846708 28281.349612227597 12.380342378464656 0.243833727159625
0.6568537010479494 13.003005193410603 24360.892511633087 12.974159702923167 0.24728470619841342
0.6783890044960457 12.99595806217084 21019.344410004996 13.593424937762208 0.2507831003552029
0.7002804308985067 12.991056003785014 18164.733691694346 14.239324418107325 0.2543314113869608
0.7225176270393335 12.987990148255028 15722.165002867798 14.913048460673066 0.25793162511631895
0.7451091786056981 12.986651085090095 13628.002429918199 15.615609157325 0.26158345907524977
0.7680327846195851 12.98676495573887 11831.095148673334 16.34830836864207 0.2652891618126604
0.7912816758260571 12.988138620603742 10285.325575674282 17.112746006699414 0.2690532534653481
0.8148584574587117 12.990684088890973 8951.860854071301 17.910377945504035 0.2728781682433414
0.8387456328520999 12.994146993788211 7803.950520327818 18.742543904167988 0.2767647545230066
0.8629290454713803 12.99841964012012 6810.519798988736 19.61064035232621 0.280713954469219
0.8874148920013553 13.003377528215077 5952.544711895817 20.51672940828833 0.2847319054497113
0.9121737398861194 13.00887666081338 5208.57900956612 21.462606294145598 0.28882162298619596
0.9371977188746509 13.014766450289155 4562.679877853433 22.44972243318707 0.29298276182049987
0.9624845586735091 13.020980734886987 4002.338429534147 23.480169925145177 0.29721965201994566
0.9880085161399803 13.027353842369948 3514.9870661121013 24.556340736874983 0.301538137485111
1.0137548043841047 13.033815531383086 3090.451202472879 25.680138258024318 0.3059395562160623
1.0397220635475082 13.040277001748454 2719.8741724321394 26.853603360045806 0.3104257528374801
1.0658768884731806 13.046605455063151 2396.8614081542023 28.07979663701282 0.3150051802668607
1.0922125069777682 13.052731706325917 2114.550079974286 29.36072631674522 0.3196779572259943
1.1187144528665658 13.058561372922627 1867.308040602037 30.699244116005925 0.32444942085852946
1.1453487320622606 13.064024382061598 1651.0016512492266 32.098653057548304 0.32932697002997746
1.1721154491891073 13.069027310744504 1461.1815081509521 33.56099864270372 0.33430897609842164
1.1989745713746225 13.073488787231698 1294.65659676448 35.09077608887414 0.33940868186921563
1.225924179959505 13.07735098609506 1148.3468850682152 36.689949110913595 0.34462248007603075
1.252922989851266 13.080514483168553 1019.5237022844993 38.363629438236345 0.3499651718939367
1.2799670495849214 13.08294901892034 906.1481207852653 40.114124996945804 0.3554337178663228
1.3070206117337344 13.084545855479806 806.273863128575 41.94678196382347 0.3610419412905923
1.3340540958480462 13.085238590689451 718.1016986499685 43.865218532327084 0.3667925205818912
1.361064342040283 13.085027563357674 640.1968366083734 45.87399189348452 0.3726924712785748
1.3880047778072113 13.08378017556525 571.4036190591278 47.97850474506738 0.3787521262641557
1.414849650271944 13.081452150315574 510.488388886841 50.183595226138294 0.3849775406652247
1.4415826952121695 13.078010408023948 456.56961509205195 52.49433482418927 0.3913749051231028
1.468178108648605 13.073403412933455 408.73733035784306 54.91721877317255 0.3979563086077407
1.494590390002486 13.067528307586247 366.27577989682794 57.45844151693585 0.4047308198167724
1.52080225235511 13.060376087688569 328.62424915678264 60.124636018177554 0.4117082181655438
1.546787019877078 13.051877889810953 295.08707584956016 62.92291323856533 0.4188990523163455
1.5725035288744813 13.041989485211587 265.271497128739 65.86090539946876 0.42631470348777345
1.5979182560669702 13.030646087171464 238.74479231252863 68.94681340719892 0.43396745410373444
1.6230272471564737 13.017830951019699 215.07586555858157 72.18945887437408 0.4418705624101355
1.647768995100222 13.003466778537685 193.95078543249593 75.59834122314948 0.45003834376322144
1.6721172874741135 12.987521663493366 175.1119866952723 79.18327720741114 0.4584844921998561
1.6960539428915178 12.969959297287238 158.2469984845067 82.95472168704656 0.4672233630313813
1.7195332935094458 12.950734986763974 143.17590262960658 86.9252984935893 0.4762759953014826
1.742514911404456 12.929784785911307 129.68423107669088 91.10645851079568 0.48565620064065146
1.7649954136194115 12.90711922147629 117.58671594118611 95.51257424130337 0.4953869996364041
1.7869065534342583 12.882638709783464 106.74524337459853 100.15704768045235 0.5054848363331182
1.8082581006933753 12.856398101321446 97.01439004738569 105.05655662192744 0.5159759790718875
1.8289620193611995 12.828242196470729 88.26959174918957 110.22765794154402 0.5268829880219801
1.8490428784517507 12.798262011658318 80.40868722386772 115.6881695199818 0.538229883606854
1.868414450157816 12.766307837035757 73.33241382328322 121.45798818222265 0.5500448016860504
1.8870885533976207 12.732473856612598 66.95690401591844 127.55855663926319 0.5623575906859838
1.9050096174054376 12.69663844475388 61.2098447096017 134.0126426406448 0.5751986746005944
1.9221479276128473 12.658801871182524 56.034346447659985 140.84582579951658 0.5886039166206226
1.9384567647246762 12.618894594743605 51.35533707023893 148.0858041818924 0.6026115938311257
1.9539477741565958 12.577032193681863 47.129936536336835 155.7609164755191 0.617256860117785
1.968557571369824 12.533077484287801 43.30834107280133 163.90502263046983 0.6325879845923346
1.982268699101823 12.48706306555894 39.85071182997032 172.55214462580838 0.6486472864880025
1.995050813659919 12.438960733303226 36.71902829398436 181.7412013078649 0.6654865971334443
2.0068816220031453 12.38878173404508 33.87863700053702 191.51444708373447 0.6831610884043949
2.0177217102771543 12.336487036949679 31.305751709698374 201.91796825683963 0.7017300619685908
2.027551697327699 12.282085426183123 28.971801615080718 213.0015317261327 0.7212554807982636
2.036353569993837 12.225592882149291 26.851288932716983 224.82116060472035 0.7418093067623167
2.0440898007133876 12.166976516238401 24.925202176764643 237.43760502831373 0.763467174417268
2.0507411842759553 12.10624537808495 23.172234157941276 250.91805125173053 0.7863125630454173
2.056305058619859 12.043474852759848 21.579408691059825 265.3358563963723 0.8104342861260947
2.0607421525480927 11.978602877012767 20.12805209248206 280.7723803947106 0.8359305874117082
2.0640384941202554 11.91168169279893 18.808828427246834 297.31794222192116 0.8629101191195262
2.0661868677554627 11.84275382269427 17.607436865631065 315.0729079494121 0.8914930623326104
2.0671711483491313 11.771846684641632 16.512107616541375 334.146517508118 0.9218044161068172
