M[M_sun], R[km], Lambda[1], P_c[MeV/fm^3], rho_c[fm^-3]
0.24162668629717493 15.618656898711224 2160425.4255784233 3.5677272577965504 0.1711233750220791
0.2536453083890801 15.277276981986631 1723084.603345583 3.784847327214791 0.17388851858465676
0.2660426508982705 14.981230107903512 1382886.8520854225 4.011459762173083 0.17666736537361835
0.27881963996833276 14.72343530309171 1116436.0767963498 4.24781979337802 0.1794585763942781
0.29197624442228687 14.498310287980159 905749.1745074464 4.494552982138283 0.1822687247419842
0.30551273562762254 14.301148319890109 738577.8359333093 4.751816285877657 0.18509354315368662
0.3194311535153832 14.128038365074438 604985.0098025306 5.020289835739566 0.1879396030060183
0.3337331170850874 13.975804051994047 497602.4094067509 5.300200606877395 0.19080358432732
0.3484148296641661 13.841911406063721 410935.8163077187 5.592273935185862 0.19369171715488917
0.36348044882770847 13.723848234772836 340607.2276015134 5.896681271408982 0.1965991413634229
0.37893503581184385 13.619893063093755 283245.2606798654 6.214285039194745 0.1995335025851212
0.3947693071390849 13.52837704111574 236353.73422875363 6.545338991235319 0.20249091372682382
0.4109973998893771 13.447772147014836 197822.0190767088 6.890552936610108 0.20547521083435713
0.4276079450971004 13.376952829150566 166037.49708414686 7.250628867124971 0.20848940915708014
0.4446060435277491 13.314821053594484 139763.94945638804 7.625820632894123 0.211528972851658
0.46198803424940194 13.26047605452027 117943.15381712961 8.01708756555435 0.2146002226330996
0.4797566205622436 13.213079098167386 98707.06473734084 8.425130217232041 0.21770473055642414
0.49791747521836877 13.171905175725925 84617.04001889123 8.850382658649515 0.22083986528793062
0.5164592474952858 13.136322756024022 71916.90706086959 9.293731891477684 0.22400922702470996
0.5353800133518984 13.10578426522752 61254.01869483766 9.756056737247889 0.2272156434175183
0.5546893313150657 13.079750091782495 51799.19180373375 10.238162610225906 0.23046040734060477
0.5743757836077691 13.05778875359648 44712.327058375166 10.740524431351943 0.23374026332085174
0.5944357281894487 13.039479667305214 38313.71920072646 11.264393286712686 0.23706147387774243
0.6148754122931126 13.024469585596405 32889.18477566616 11.810702402894565 0.24042559269527075
0.6356831048427811 13.01242199221668 28280.457632118498 12.380431294490323 0.24383425363801084
0.6568571015989558 13.00300084963313 24360.09997293527 12.974255586651388 0.24728525423048495
0.6783922724567244 12.995968058369101 21018.921153647818 13.593529151022038 0.25078368058671324
0.7002843053675618 12.991052764779194 18163.975019595557 14.239437519827964 0.25433202496931523
0.7225223556453625 12.987986361748295 15722.173460527247 14.913171045702386 0.25793227326957774
0.7451133223707184 12.986638116379728 13627.515706297601 15.615740662464818 0.2615841312422937
0.7680356321359094 12.986763681536399 11829.941635580215 16.348450575108785 0.26528987067623033
0.7912864037174309 12.98814813835931 10285.107931372357 17.11289962839996 0.26905400047565714
0.8148649906177572 12.9906770474283 8951.856893918737 17.91054374368502 0.272878954943855
0.8387529573022019 12.994140069542961 7803.672300294347 18.742721143370726 0.2767655688454371
0.862935162538375 12.99842559938657 6810.536976473202 19.61083133759196 0.28071481129965825
0.8874205671285302 13.003370390060123 5952.222550736093 20.516935059090784 0.28473280664341427
0.9121793084492094 13.008866004306062 5208.3970688782265 21.462827592933028 0.28882257052351845
0.9372035204720264 13.01476699892849 4563.084573981239 22.449958457982323 0.2929837421331272
0.9624909714615817 13.020974371676747 4002.228393753102 23.48042363857904 0.2972206824255862
0.9880143327095762 13.027360797107864 3514.876966394457 24.55661333350673 0.3015392203821212
1.013761503787917 13.033814235421774 3090.283776789571 25.680428682500335 0.3059406770200478
1.0397288727828042 13.040280921962353 2719.805153434862 26.85391516372962 0.3104269307756512
1.065883868884691 13.046602277492063 2396.712886547097 28.08013127988648 0.3150064182563643
1.0922202845149245 13.052735806008826 2114.476436104433 29.361082612561216 0.3196792396721651
1.118721217751296 13.058572934157098 1858.135759710852 30.69962631966168 0.3244507691066913
1.1453565217467367 13.064019200872448 1650.8982282778209 32.099059921368955 0.32932836797399073
1.1721231873690574 13.069026532529397 1461.1115383423905 33.561434940410805 0.3343104464666787
1.1989824207061364 13.07349108987419 1294.512176258121 35.09124388033624 0.33941022872876225
1.2259312772595716 13.077354983706595 1148.2340835237162 36.690447038348005 0.3446240863128567
1.2529310387886794 13.080509390159797 1019.5089687714595 38.3641595229064 0.34996684107974535
1.2799758017481866 13.08295075784678 906.0867918737108 40.11469326551291 0.35543547589942315
1.3070300894460565 13.084551505510312 806.2136408747382 41.94738705669412 0.36104377057801146
1.3340611235112028 13.085239474672546 718.0317519670576 43.86586723556227 0.3667944488633908
1.3610727834048781 13.08503077105716 640.1673754932634 45.87468284750376 0.3726944804790038
1.3880142320845674 13.083779351760768 571.376015658339 47.979240901987225 0.3787542216043862
1.4148596177183261 13.081451754490635 510.4688150234853 50.18438466061369 0.38497975274762225
1.4415921072653364 13.07800593072946 456.55632761230896 52.49517628268561 0.3913772154528665
1.4681877563401537 13.073400739660352 408.7166697507287 54.91811598269369 0.39795872373441205
1.4945990253615655 13.067527704019641 366.26839717962275 57.459398506432855 0.4047333467962993
1.5208120136780907 13.060372407972295 328.6150497273397 60.12565714558889 0.4117108646018792
1.5467973044936878 13.051875999900059 295.0852208318978 62.9240032205544 0.41890182640716506
1.5725147661055499 13.041984766131286 265.2641966836959 65.86206934416188 0.42631761407476276
1.5979281922214796 13.030638785452835 238.73650921059797 68.94805685025904 0.4339705107279345
1.6230367409971393 13.017824402023503 215.06138051788818 72.19078781878933 0.44187377537290196
1.6477784221645912 13.003462179452741 193.93850244811262 75.59976218316287 0.4500417241934189
1.6721272840191412 12.987514237370869 175.10498870029286 79.1847898345361 0.45848802114163306
1.6960640675928398 12.969951964513216 158.236913514225 82.95634074442698 0.46722708362052606
1.719543076462548 12.950726524210895 143.16951802614656 86.92703231859534 0.47627992156206317
1.7425245783074912 12.929776123321032 129.68007506676224 91.10830782501083 0.48566031468407206
1.765005548796184 12.907110105288458 117.58342608592152 95.51455686630469 0.49539134995835565
1.7869170682294362 12.882629197072786 106.74185721247127 100.15916534276833 0.5054894061565239
1.8082674587671193 12.856385719328806 97.01445506204645 105.05882030641094 0.5159807860106331
1.8289711824915535 12.828227464677946 88.26727372768556 110.23007963022611 0.5268880511288263
1.8490515287276488 12.798247436632854 80.40591462071191 115.6907721917779 0.5382352598286717
1.868423228508367 12.766293092881202 73.3265248874572 121.46077657376851 0.5500504778294063
1.8870991612023345 12.73245457517155 66.95740967657282 127.56153580562321 0.5623635532515816
1.9050183307457034 12.69661969298257 61.05770575125036 134.01583993521277 0.5752049870528226
1.9221554163207186 12.65878254937386 56.03074948191275 140.84925997772615 0.5886106077057268
1.9384646497466989 12.618874495690987 51.352218850369745 148.08949581717147 0.6026186948752553
1.9539548222536003 12.577011075306215 47.12701462858214 155.76487599963608 0.6172643638123406
1.9685649578074593 12.533055647832954 43.30899618653891 163.90927404697229 0.6325959262736929
1.9822760402797237 12.487038853439527 39.849698494815726 172.5567270963916 0.6486557475188975
1.9950575414470941 12.438936074290586 36.71780733574022 181.74613144982192 0.6654955774553792
2.0068880406735516 12.388755365201561 33.87819401762365 191.51975692550684 0.6831706339706312
2.017726578473552 12.33645915760904 31.302836877250186 201.92369313034644 0.7017402230543531
2.027556574580512 12.282055310322654 28.969476585246255 213.0076962051362 0.7212662651854712
2.0363593235072837 12.225560764267255 26.85040854426497 224.82782177246253 0.741820820749339
2.04409370280545 12.166944376057002 24.924443504070318 237.4447953481779 0.7634794345731505
2.0507446366971736 12.106211124307098 23.170733992509177 250.9258226939469 0.786325639422599
2.0563076153590725 12.043439269451193 21.578882622836584 265.3442666167243 0.8104482557033728
2.060744996487606 11.978564799841104 20.1279687580772 280.7814934513871 0.8359455349457031
2.064041273953779 11.911642416584757 18.809257172654604 297.32782939281367 0.8629261381079664
2.0661878317010975 11.842713596689471 17.607610586028844 315.08364866550744 0.8915102561065427
2.06717202943095 11.7717987170047 16.511917870933406 334.1581826399228 0.9218228402506987
