M[M_sun], R[km], Lambda[1], P_c[MeV/fm^3], rho_c[fm^-3]
0.24162668629717493 15.618656898711224 2160425.4255784233 3.5677272577965504 0.1711233750220791
0.25364122826064794 15.277355410721547 1723194.4735485204 3.784785819600906 0.17388775192192193
0.26603644305269203 14.98131676080726 1353373.3726217481 4.011330460896775 0.17666580284400257
0.2788086447919476 14.723654618942858 1116491.8218606883 4.24761832397977 0.1794562396528663
0.2919609545794276 14.498538753135911 905965.5369691716 4.494274057912209 0.1822656188559919
0.3054940239650254 14.301383058892108 738804.4472503677 4.751450436064666 0.18508959127747146
0.31940768117184737 14.128309178709227 605218.6647939807 5.019834365410568 0.18793487732555955
0.33370275040687447 13.976128718893193 497822.5572148301 5.2996435247763705 0.19079797543492907
0.3483818294994588 13.842139594154304 411097.17416703375 5.5916138504321395 0.19368533065331386
0.363442979203028 13.7241111063848 340728.6679679012 5.895903354335407 0.1965918350016431
0.3788927683379752 13.6201409386848 283380.81401995075 6.213379875964628 0.19952524858635
0.3947208684834328 13.528602739093218 236484.74046904236 6.544307521655043 0.20248186913205193
0.41094258823375207 13.448038333467961 197935.5585102127 6.889375248330092 0.2054651811467668
0.4275471932380662 13.377216645348991 166140.97794749466 7.249293908967962 0.20847836539036765
0.44453961887179383 13.315047594446867 139852.91520827753 7.624332094558938 0.21151712312938292
0.4619162958401708 13.260719166431947 118030.11443630996 8.015419483551955 0.2145873186702247
0.4796771348279897 13.213273038438313 99855.55840990416 8.423269584256934 0.21769074119756854
0.49782977543930784 13.172097226391065 84679.00842308268 8.848336335152752 0.22082504903148728
0.5163643886311726 13.13650004857632 71972.71434335328 9.29146676182098 0.2239932803707124
0.5352779870570139 13.105938668832382 61308.05960220828 9.753557443451482 0.2271985319292348
0.5545816434152415 13.079901043587778 52327.78375962143 10.235417425469711 0.23044215377265145
0.5742600706786452 13.057900908101999 44753.04771337105 10.737536174559413 0.2337210777865976
0.5943062201224517 13.039646342746643 38348.63135760147 11.261121583586796 0.23704103221740616
0.6147435297772516 13.024551793331836 32919.67166845943 11.807127926031182 0.24040385391205843
0.635540679846616 13.0124918668499 28308.79095031867 12.376533510708507 0.24381117457101156
0.6567071628880873 13.00305851636999 24385.44725206818 12.970052395174152 0.24726123051160084
0.6782346969891835 12.996005318281082 21040.35118064971 13.588960866189925 0.25075824560068477
0.7001184222779278 12.991079961817306 18183.85926236928 14.234479647575446 0.25430512827037627
0.7223480043199585 12.987995006125496 15739.005327637633 14.907797518187897 0.2579038614040421
0.7449291356329418 12.986660983126809 13643.170976993188 15.609976165771185 0.26155466695893764
0.7678444347034998 12.986761793430434 11843.587363571993 16.342217046833692 0.2652587981012019
0.791084551846872 12.988116617405984 10296.024849911402 17.1061657841928 0.2690212560715487
0.8146519129454545 12.990657356431381 8962.790252185574 17.903276225099255 0.272844471087818
0.8385289686680191 12.994110296220017 7812.580252736495 18.73495218451462 0.2767298744992606
0.8627056450231397 12.998383395221724 6819.768095021736 19.602459924566094 0.28067725404898514
0.8871761162011285 13.003315566722067 5960.187560168984 20.507920901108758 0.28469330520546976
0.9119300232645167 13.008809863393347 5215.238814798497 21.45312764021736 0.2887810381349701
0.9369443899361786 13.014705571155368 4568.806770054951 22.439613116583246 0.2929407734746996
0.962219908544462 13.020893697625887 4007.8675705738124 23.469303084047755 0.29717551854939595
0.987736723893403 13.027289400164507 3519.31065803622 24.544665223377265 0.3014917562126111
1.0134744641947027 13.033750147677807 3094.4924127232894 25.667699265716326 0.3058915517491311
1.0394319519909585 13.04020293973203 2723.844077373944 26.840248823636095 0.3103753018036695
1.065580211531281 13.046539854277283 2400.2282965927548 28.06546404614958 0.3149521577809694
1.0919033732540995 13.052661235190628 2117.519286266132 29.345466467669908 0.3196230311389182
1.1183957762937344 13.05850029727341 1870.2231803880775 30.6828748268678 0.32439167713039124
1.1450220466660213 13.063955775235176 1653.5385863916742 32.081227753129085 0.3292670984003164
1.1717797851672165 13.06896911987309 1463.4755214049483 33.54231293269294 0.3342460033291079
1.1986307777413632 13.073428601957 1296.6247918273223 35.07074178389596 0.3393424338539651
1.22557169609631 13.077301050955477 1150.1091639174404 36.668624347503524 0.3445536896902723
1.2525616689181627 13.080476110304353 1021.136332238441 38.340841997702015 0.3498931835730466
1.2795996337675892 13.082921574077407 907.5736543217251 40.08978821984501 0.3553584280083648
1.3066385601817103 13.084516783803055 807.5489697088774 41.92086838085621 0.36096360060339167
1.3336712408071147 13.085232952796364 719.2822236448762 43.83743762030255 0.3667099413441246
1.3606760954187231 13.085038062012902 641.2678071163954 45.844401860847164 0.37260642748316747
1.387603002283273 13.083789705696999 572.3683458351783 47.946979208973595 0.3786623944117683
1.4144550732689567 13.081511307572402 511.3387490120817 50.14978851315735 0.38488281052987533
1.441183745394896 13.078087856498454 457.3219698242024 52.45830059968772 0.39127596864347874
1.467767680307727 13.073486443716256 409.4402621987752 54.87879748810869 0.39785288541826624
1.49417492401829 13.06762828931181 366.9077799568962 57.417460698905714 0.40462260787872734
1.5203838921238435 13.06049930519451 329.17624988683997 60.08090911438235 0.41159489198728727
1.5463650934456905 13.05203019357906 295.5994116343977 62.876238343330876 0.4187802609971551
1.572080299547263 13.042162366841117 265.7462760074992 65.81106385346267 0.4261900685663815
1.5975035139864988 13.030854762170248 239.17648678622572 68.8935682539236 0.4338365671904073
1.6225889966531097 13.018055691471934 215.4429509905389 72.13255315774431 0.4417329825786302
1.6473419485681595 13.00373088089293 194.3104036133256 75.53749610795224 0.4498935946760939
1.671693419957145 12.987818045654405 175.42670939557266 79.11850759618453 0.4583333854378769
1.695629287822527 12.970294468514446 158.53620005334446 82.88539568331845 0.4670640520767242
1.7190932942402586 12.951066279644175 143.4414831340044 86.8510592444024 0.47610787992847986
1.742097780322129 12.930190484314746 129.926332398801 91.02727511390538 0.4854800467289312
1.764584087916578 12.907572379834024 117.8035250641184 95.42768393676572 0.4952007313531646
1.7865100292090785 12.883151333138029 106.93769620589119 100.0663765531616 0.5052891719740803
1.807851183707494 12.856921431252522 97.19090102225724 104.9596345205866 0.5157701647865336
1.82857524459518 12.828838445768346 88.42663891976109 110.12382770932817 0.5266656711673083
1.848650172273416 12.798877194937061 80.55405149635507 115.5767364179016 0.5379997012705635
1.8680417784903944 12.76700045382916 73.46170185083093 121.3386051363142 0.5498017815535864
1.8867178900461865 12.73318295707432 67.07623868963258 127.43071794378626 0.5621012769581971
1.904647908892134 12.697396164015165 61.32456405940216 133.87575636529664 0.5749284185902458
1.9217975142234809 12.659615679749926 56.137085724544534 140.69879999687382 0.5883174544459875
1.938125491190901 12.619788448127125 51.44923404094861 147.9277584463484 0.6023075849955413
1.953620209722142 12.577942873228587 47.21744774396456 155.5914043482828 0.6169356176682691
1.968251404386089 12.534060542409735 43.386711402096445 163.7228560275115 0.6322474517818166
1.9819787743056745 12.488102555273434 39.920349217440645 172.35596966226353 0.6482850708671438
1.994777857108283 12.44006037219869 36.78566373600681 181.53014596196022 0.6651021568944309
2.0066201880955155 12.389925448368885 33.94038548917722 191.28714088278105 0.6827524573208131
2.017485674858598 12.337705685860444 31.36070677621866 201.6728994155039 0.7012950889492677
2.027335559731112 12.28336355442822 29.023341096567396 212.73764870723028 0.7207938332443133
2.0361599486146287 12.226935916524772 26.89836132413007 224.53602112260674 0.741316436379275
2.0439189490692 12.168387537163472 24.968531789337476 237.12982003889175 0.7629423727366929
2.050595181155542 12.107721529712974 23.212559066480367 250.585078050699 0.785751793470753
2.056177435160712 12.044996756392159 21.615865785483763 264.97530468414976 0.8098345029063041
2.0606472366079873 11.980213118063855 20.161894853055735 280.3822103128431 0.8352904484095827
2.06397660104657 11.913374476229311 18.840330398509476 296.89475080812235 0.8622244732012628
2.0661494435848637 11.844505229216068 17.63581467790061 314.6131930679139 0.8907571492262899
2.067161870373364 11.773662410645063 16.54003745762889 333.64724732323936 0.9210158587312224
