M[M_sun], R[km], Lambda[1], P_c[MeV/fm^3], rho_c[fm^-3]
0.24162668629717493 15.618656898711224 2160425.4255784233 3.5677272577965504 0.1711233750220791
0.2536444196030947 15.277248995740084 1723073.4426425148 3.7848282556557558 0.1738882808668738
0.2660410230391071 14.981240602774884 1382942.595243472 4.01141966963195 0.17666688087891977
0.2788167972229033 14.72347236601049 1116440.1312142208 4.2477573231346675 0.17945785183359583
0.29197118482423967 14.49840374296581 905899.1778215298 4.4944664945878126 0.18226776168303696
0.3055078549535386 14.301193309564324 738657.8066117478 4.751702843976773 0.18509231776464993
0.31942403328329194 14.12811815636862 605076.9266850908 5.020148603493393 0.1879381376669536
0.3337232310553742 13.975884857545058 489679.88151556515 5.300027865572911 0.19080184510901352
0.3484045660327672 13.841997567304558 410988.1963059168 5.592069253168376 0.19368973680006393
0.36346786719632895 13.723962665336021 340666.9523066796 5.896440049676806 0.19659687575786636
0.3789223350705082 13.619964349449496 283287.21252315433 6.214004358107786 0.19953094311157016
0.3947549271296324 13.528449280258885 236394.4438518048 6.54501914185172 0.20248810907982498
0.4109803206732192 13.447863039752345 197857.93466994865 6.890187743560574 0.20547210069709998
0.42759010530776814 13.377008472956932 166072.72812927281 7.250214902870401 0.20848598453689202
0.444584852295393 13.31493028442366 139789.51385241857 7.6253590412563295 0.21152529828541872
0.46196697043109014 13.260549699372026 117976.12714815262 8.016570294360724 0.21459622112222113
0.47973229291285246 13.213154268490149 99804.78980265777 8.424553232149437 0.2177003924352133
0.49789013525485426 13.171990354790127 84637.2388359539 8.849748086837826 0.2208352707168823
0.5164290341538376 13.136388523551584 71932.41729172811 9.293029462391393 0.22400428188015115
0.5353480741845771 13.105833353164869 61271.766943475355 9.75528168736057 0.2272103370157319
0.5546563039441119 13.079788729142345 52300.33793360498 10.237314450887023 0.23045478722189874
0.5743395936815775 13.057825404552784 44725.82471195916 10.73959773877391 0.23373431366744732
0.5943966187219559 13.039519467847656 38322.09940568285 11.263378687432235 0.23705513464307768
0.6148345312743702 13.024493633037558 32898.5386164214 11.809593902021232 0.24041885116046802
0.6356399607932448 13.012431887598234 28288.970628395877 12.379222523079733 0.2438270964127943
0.6568111936133232 13.003007310902293 24367.850886103242 12.97295209564713 0.24727780401042626
0.6783437617118903 12.995978298537867 21025.858252827114 13.592112428132086 0.25077579265322475
0.7002328612110054 12.991061108404592 18170.414813708823 14.237899967361276 0.2543236836721432
0.7224682235980343 12.988012306822798 15728.199509746348 14.911504577741173 0.25792346202528693
0.7450561462422759 12.986641842638278 13632.37480538782 15.6139529351802 0.26157499356626107
0.7679778722594909 12.986760679436674 11835.010568094438 16.34651737554804 0.2652802341612832
0.7912242789258814 12.988131139563558 10218.977441601162 17.110811252334578 0.2690438454100347
0.8148001258893309 12.99066168169348 8955.427966684816 17.908289843428896 0.2728682603483013
0.8386831377215475 12.99413540344642 7806.535826777581 18.74031171659314 0.27675449877606506
0.8628638781224625 12.9984136690111 6813.220563313968 19.608235051214365 0.2807031634000741
0.8873450436679483 13.003369869793744 5954.538648106256 20.51413941475141 0.2847205556964476
0.9121020875531992 13.008859250347196 5210.473553769149 21.45981923630677 0.2888096896116258
0.9371236856121343 13.014739030213999 4564.729633218283 22.44674992196768 0.29297041570118576
0.9624078181373322 13.020955148595931 4003.9399356859044 23.47697465193654 0.2972066750660372
0.9879284903529397 13.027337375883969 3516.075065601822 24.55290765886913 0.3015244994959524
1.0136718684725994 13.033798776834768 3091.7339123268175 25.67648066560161 0.3059254408624905
1.0396377290928067 13.040247755308517 2721.05555328422 26.849676531234895 0.31041091798533477
1.065789162207582 13.046585833901384 2397.8353242540566 28.07558218680442 0.31498958918295644
1.0921218236313517 13.052714725797813 2115.2929472298147 29.35623918366509 0.31966180630201957
1.118620573889593 13.058544723831476 1868.3273494993882 30.694430719274823 0.32443244128966015
1.1452520176478365 13.06400377530166 1643.9350627398583 32.09352910908419 0.32930936464774335
1.1720168414089658 13.069014900319376 1461.802177771413 33.555504028864064 0.33429045868326357
1.1988738614284922 13.073473573788283 1295.2115225318553 35.08488487101587 0.3393892012088711
1.2258197937186934 13.077337548770533 1148.847753890326 36.68367838726319 0.34460225169222175
1.252815734155774 13.080495094859367 1020.0063185061339 38.356953756118685 0.34994415081092284
1.2798599621350852 13.082936308999882 906.5528817408644 40.10696846636222 0.35541157795153955
1.3069032869627706 13.084522881856563 806.6274479628294 41.939161705527304 0.3610189040952989
1.3339412933867623 13.085238502512572 718.4625318070113 43.85704909450891 0.3667682367877735
1.3609511814386905 13.085033514248462 640.5208353241918 45.865290396549014 0.37266716850749537
1.3878821474368488 13.083771045396547 571.7122185336095 47.969234015434594 0.3787257387749641
1.4147389408622173 13.081479975802461 510.7335962094692 50.17365358722323 0.38494968309739347
1.4414630806883832 13.078025550252018 456.79505868959404 52.48373806075994 0.39134581038099003
1.4680578743927828 13.073426823467232 408.93830153871727 54.90591995480782 0.3979258942207511
1.4944671668665215 13.067558759195947 366.4562888766763 57.44638991133972 0.40469899693814776
1.5206782713932452 13.060413641538446 328.7707485821567 60.11177675074137 0.4116748910486607
1.546663353907394 13.051922736472948 295.23369367645864 62.909186917956966 0.4188641177391063
1.5723800113783546 13.042039437709038 265.4200327189128 65.8462477054634 0.42627805011951875
1.5978038587567938 13.030710281975248 238.88085418195192 68.93115463650834 0.43392896180845286
1.6228903550349238 13.017886981272463 215.18788726546973 72.17272343970751 0.44183010147900315
1.647642915228508 13.003545282495711 194.05970830108942 75.58044710014914 0.4499957740686642
1.671991996051218 12.987612095417289 175.1932546808113 79.16422878278235 0.45844005244312525
1.695928893649431 12.970055444306935 158.33577655440908 82.93433307225649 0.46717651005397504
1.719409252979276 12.950843042503001 143.2486322052403 86.903464710061 0.4762265525242169
1.7423917881080726 12.929899908406384 129.7598368434256 91.08317047125685 0.4856043933246968
1.7648732544002907 12.907250451346574 117.65789555893264 95.48760755135352 0.49533221714386316
1.7868009126334277 12.882810472221045 106.79746435048307 100.13038059926275 0.5054272899288297
1.8081384087593768 12.856550436830897 97.06720415006744 105.02805083725353 0.515915446978382
1.828847749284959 12.828414061110928 88.31199093494523 110.19716258645965 0.5268192303464998
1.8489267328256607 12.79844393713873 80.44525735174878 115.65539527050508 0.5381621833169591
1.8683025719690431 12.766502951006814 73.37176657454988 121.42287539769112 0.5499733249241442
1.8869811123341953 12.732680081489132 66.99784459211914 127.52104166787753 0.5622825074409564
1.904903788699609 12.69686157632251 61.245199369239415 133.97238108482102 0.5751191857882961
1.922044340991118 12.659041166907542 56.06352352243652 140.80258151584903 0.5885196603110683
1.9383574457638735 12.619150442823331 51.380964141187555 148.03931813911612 0.6025221756150207
1.9538526484183483 12.577302907155572 47.15542350449271 155.7110573272515 0.6171623720408468
1.9684678834160676 12.533369239311957 43.33190433931713 163.8514881598994 0.6324879817564065
1.9821847413197102 12.487363231501513 39.87299949120637 172.49444177882754 0.6485407444901512
1.9949715233154615 12.439285489629512 36.737716492178414 181.67912086300723 0.6653735167423419
2.006805697461065 12.389123627453117 33.89716476723572 191.44758579651256 0.6830408910664756
2.017652078052951 12.3368455104513 31.322071526486635 201.84588129502973 0.7016021147221707
2.027487845062391 12.282457852190888 28.986613202269982 212.92390969708785 0.7211196857024281
2.0362962876085837 12.225987932812213 26.86459093891741 224.73728484299312 0.7416643255113725
2.044040116960157 12.167389202642255 24.937936021898395 237.3470668170111 0.7633127984500153
2.0506976466639526 12.106679454324054 23.183149543075913 250.82019629895393 0.7861479104319149
2.0561527591091675 12.044482239110478 21.60791202204891 265.32041054758434 1.0248098972097293
