M[M_sun], R[km], Lambda[1], P_c[MeV/fm^3], rho_c[fm^-3]
0.24162668629717493 15.618656898711224 2160425.4255784233 3.5677272577965504 0.1711233750220791
0.2536442925474085 15.277287185498603 1723227.8779202013 3.784825283730701 0.1738882438232617
0.2660405708003931 14.981271540385553 1382955.8161171542 4.011413422028648 0.17666680538032095
0.27881584292232364 14.723489460345501 1116396.7504615148 4.247747588462584 0.1794577389260695
0.2919709767354025 14.498386718432512 905861.1590525114 4.494453017376539 0.18226761161116156
0.3055061494695531 14.30122769467912 738670.0380336605 4.751685166583578 0.18509212681506562
0.31942322052805855 14.128116249192875 605066.2505661151 5.020126595676017 0.1879379093273541
0.3337219313180298 13.975906464468947 497651.96532783285 5.300000947892519 0.19080157409263648
0.34840296828114914 13.842011048601348 410996.59399674565 5.592037358391424 0.19368942820932297
0.3634665210472816 13.723955566285618 340643.483275931 5.896402461204052 0.19659652271897568
0.3789192758327862 13.620015445019973 283300.0131092986 6.213960621028439 0.1995305442820694
0.3947514663599822 13.52845066749455 236401.2102448757 6.544969301549435 0.2024876720477049
0.41097773624034795 13.447860228974626 197860.21048103514 6.8901308378218955 0.2054716160639498
0.4275872375583912 13.377031032375609 166074.65238827368 7.250150397655664 0.20848545090178178
0.4445818721131351 13.314930616222128 139800.5395799027 7.625287114826676 0.21152472570479014
0.46196338769493484 13.260555842047156 117977.00109253137 8.016489692083576 0.21459559759844324
0.47972858522178913 13.213163507290963 99807.79849545777 8.424463325449375 0.2176997164625161
0.49788595956068804 13.17200508259634 84641.39067465471 8.849649207194526 0.2208345547860168
0.516424723068908 13.136390509105086 71935.71734094038 9.29292000954088 0.22400351132525995
0.5353432597101223 13.105841295906032 61274.04489728441 9.75516091912333 0.22720951017245342
0.5546510613200358 13.07981504698155 52298.25023880928 10.237181579982858 0.2304539023535101
0.5743335866903477 13.057834060349322 44325.99364821358 10.739453342516425 0.2337333865987459
0.5943914658652402 13.039513313967445 38324.93132220302 11.263220594192244 0.2370541468736533
0.6148284298974144 13.024497827368487 32899.63705244413 11.809421177781706 0.24041780070890767
0.635633165245063 13.012428257582007 28290.145887998533 12.379034175549444 0.2438259811930915
0.6568040647329757 13.003017812924186 24369.60423391649 12.972748989752896 0.2472766431404223
0.6783363793773634 12.995973379815554 21026.370808019776 13.591891679558037 0.25077456358430655
0.7002246130783837 12.991051482332976 18171.483996139355 14.237660392389069 0.2543223839662265
0.7224604608690386 12.98799467967133 15729.156563109153 14.911244916592166 0.2579220890989121
0.7450474796764978 12.98665559320395 13632.851879939248 15.61367438077138 0.26157356978089563
0.7679686476101462 12.98674842451437 11835.726192558135 16.346216155440175 0.2652787326545941
0.7912136643160881 12.988145448293903 10288.07639048976 17.110485854635144 0.2690422631112112
0.8147887901530619 12.990670063025155 8955.812399682029 17.90793865600311 0.27286659398907703
0.8386714367498509 12.994124513478097 7806.857038645998 18.739936297145483 0.2767527739179503
0.8628527207455604 12.998401844687498 6814.024239148734 19.607830518066105 0.2807013485149636
0.8873334532845762 13.003356220294455 5954.821996319362 20.51370382072286 0.2847186468558746
0.9120904431332625 13.008856857854628 5210.86258223425 21.459350500872834 0.2888076826222373
0.9371106353953991 13.01473662624092 4564.981393432115 22.446249997787344 0.29296833930075433
0.9623948514099293 13.020950775798047 4004.295124794936 23.476437264894187 0.29720449257758497
0.987916050053883 13.02733288743114 3516.334120802169 24.55233027931015 0.30152220584105954
1.013658639877379 13.033793557485632 3091.6460370764657 25.6758655285872 0.3059230669302832
1.039622727829281 13.040250172743665 2721.1626493919193 26.84901611606602 0.3104084230557474
1.0657745124695768 13.046579359852954 2398.0108313537494 28.074873401827045 0.3149869670791218
1.0921068066430908 13.052705303666395 2115.582681023021 29.355484541067423 0.31965909005202087
1.1186050530149796 13.058538138367027 1868.4372693651103 30.69362120874249 0.32442958568880237
1.14523633851618 13.063995667088284 1651.9776687802348 32.09266737283515 0.32930640380686926
1.1719999256270799 13.069012103260809 1461.9362680485306 33.55457995809693 0.33428734446950265
1.1988566054941925 13.073463747378186 1295.38636846852 35.08389410393815 0.33938592501074266
1.2258022247383333 13.077331663004587 1148.9573901816195 36.68262379917358 0.34459884975429134
1.2527986858184446 13.08049865538248 1020.0862131327573 38.35583106691433 0.34994061557024664
1.2798426676108425 13.082937700666584 906.6319187641813 40.10576491452685 0.3554078545642416
1.306885216642061 13.084524009151409 806.6892512337076 41.937880170097145 0.36101502981954176
1.3339225080985437 13.085232396505553 718.5175668845475 43.85567520622442 0.36676415288126923
1.3609313688835505 13.085034741773013 640.5553151380421 45.86382703435406 0.3726629132490152
1.3878624061750227 13.083774729188011 571.7578638792562 47.96767492839837 0.3787213011099748
1.4147196322378515 13.081484819634436 510.77214511829055 50.17198167806552 0.38494499822368533
1.4414424896398925 13.07803125173671 456.8185914208912 52.48195598377807 0.3913409174652844
1.46803739044726 13.073429047779836 408.9712525878113 54.90401981853122 0.39792077939562653
1.4944466964455816 13.067566096317568 366.48960948228114 57.44436318504684 0.4046936452641065
1.5206590608705624 13.060416030301374 328.8118773798932 60.10961420722358 0.41166928642608475
1.5466425854351518 13.05192939703658 295.2623348125268 62.90687857056916 0.4188582428114826
1.5723601167506929 13.042047809728277 265.43827512853966 65.8437827388288 0.4262718861670061
1.5977829108850743 13.030721546013885 238.89420034352702 68.92852133016048 0.4339224886307359
1.6228690951052378 13.01789773238845 215.21254759791262 72.16990908387132 0.44182329726626896
1.6476216810430546 13.003559809040405 194.08084565367304 75.57743790275904 0.4499886152593861
1.671970603301093 12.987623520255067 175.2077996492641 79.16102548121127 0.4584325791772081
1.695908287688087 12.970071170727023 158.35222064411127 82.93090441049674 0.467168630999237
1.7193873900820613 12.95086104433759 143.260685178615 86.8997930367071 0.476218237990568
1.7423679578733025 12.929912918167721 129.76780881297586 91.07925425806084 0.48559568119184193
1.7648530773297135 12.907276864282917 117.67221840262508 95.4834090685221 0.4953230047350554
1.7867792792638848 12.882834976180206 106.81466682535711 100.12589619094923 0.5054176127702397
1.8081180266540025 12.856576756770384 97.07579260317908 105.02325724753392 0.5159052677805647
1.8288280290647667 12.828442014952229 88.3222898277247 110.19203444863305 0.5268085087744289
1.8489079113260696 12.798473901833013 80.45658707305384 115.64988393881538 0.5381507988075025
1.8682833474446519 12.766536514597108 73.38035429298668 121.41697084396036 0.549961305416526
1.8869631583329314 12.73271442613041 67.00093881178528 127.51473318917557 0.5622698815203003
1.90488658731084 12.696898649422597 61.25032327771962 133.9656107764093 0.5751058190973293
1.9220274272462703 12.659080223630514 56.0689824310858 140.79530967414897 0.588505491998095
1.9383410677337871 12.619192571726998 51.385700049653224 148.03150121268328 0.6025071393681108
1.953837800005947 12.577347777874895 47.15700199079875 155.70267323174775 0.6171464833406074
1.968452605408928 12.533417170651843 43.33288312099522 163.84248608330495 0.6324711658025156
1.9821683655913245 12.487417049669398 39.875499761051856 172.48473882553768 0.6485228290478005
1.994958104347574 12.439341310139556 36.74269276471728 181.66868185615905 0.6653545019466229
2.0067939219832374 12.389180151295921 33.90011198551728 191.4363429399822 0.6830206796484533
2.0176416220888442 12.336905323259876 31.32554979038121 201.83375980136424 0.7015806002666012
2.0274784384333353 12.282518872073195 28.989080054107696 212.91085754841438 0.7210968517492091
2.036285900144536 12.226054561154518 26.866704933609192 224.72318121690165 0.7416399470579137
2.0440311535058564 12.16745933422153 24.93930381486762 237.33184299797665 0.7632868404400777
2.0506911375769437 12.10675205571837 23.18534546576233 250.80374228741746 0.7861202245976755
2.0562635889700114 12.044005534406047 21.59130922137979 265.2120399853591 0.8102284442015476
2.060709329507432 11.979156928892593 20.140135851925855 280.6383397303871 0.8357107295245263
2.064015190888624 11.912260059891489 18.820037849234097 297.1725164860621 0.862674503369889
2.066175831610913 11.843359733014161 17.616570407685813 314.9149290560909 0.89124016919646
2.0671685211630355 11.772465659983446 16.521756099512626 333.9749432497906 0.9215334282710441
