M[M_sun], R[km], Lambda[1], P_c[MeV/fm^3], rho_c[fm^-3]
0.24162668629717493 15.618656898711224 2160425.4255784233 3.5677272577965504 0.1711233750220791
0.25364476464092917 15.277269735519107 1723182.5158164853 3.7848340681792525 0.17388835331717514
0.26604077263374437 14.981261397712176 1382992.127804013 4.011431888782865 0.17666702854014732
0.2788170239907385 14.723515430033936 1116460.7664908639 4.247776362374324 0.17945807266008434
0.29197253422801084 14.498371363573133 905846.646338501 4.494492853591079 0.18226805519665595
0.3055090880473752 14.301185850153527 738639.8761127003 4.7517374178353835 0.18509269122830813
0.31942648086881653 14.12808524838281 605059.2080152421 5.020191646960749 0.1879385842595407
0.3337266458952594 13.975868518213202 497652.7735886893 5.300080511960025 0.1908023751707756
0.3484076911629681 13.841971194416523 410971.7806840326 5.5921316339957166 0.19369034035172883
0.3634705420481535 13.723940511644312 340635.1729164214 5.896513566526999 0.19659756624368122
0.37892539164492495 13.61995766125185 283276.18470780435 6.214089900745057 0.19953172315742204
0.3947585995533404 13.52842305333232 236382.4913446179 6.545116621536023 0.20248896384496773
0.41098557373059785 13.447817593082917 197837.1866808758 6.890299042274005 0.20547304856364823
0.42759421413947113 13.377024001374766 166064.6937323532 7.250341065151654 0.20848702824511223
0.44459104510919956 13.314882683894865 139783.82506114276 7.62549971847519 0.211526418166536
0.46197378383442494 13.260523809023049 117964.89925751084 8.016727940449838 0.21459744064217182
0.4797401297432515 13.213112013691736 99792.97020970754 8.424729076557922 0.21770171453933915
0.4978981037070458 13.171955627005646 84633.25506897553 8.84994148125714 0.22083667097510923
0.5164384183453584 13.13636412271261 71923.4249801039 9.293243536789054 0.22400578897725665
0.5353583046673495 13.10581748099291 61266.49788952741 9.755517893394373 0.22721195420727047
0.5546661609173421 13.07979884831915 52296.91039999998 10.237574328431414 0.23045651790496582
0.5743504349885682 13.057815977045562 44720.347366480404 10.73988015869014 0.23373612689079226
0.5944083882491555 13.039506756105167 37987.46512512483 11.26368789725476 0.23705706659164438
0.6148476536941461 13.024480367198624 32895.214711532964 11.80993172864162 0.24042090570997124
0.6356529976250219 13.012417740122395 28286.144145354563 12.379590907374434 0.24382927764353843
0.656825373534882 13.003002890702504 24366.036182876498 12.973349345922108 0.24728007453009787
0.6783582935108058 12.995970333007973 21023.14898661242 13.592544185921202 0.25077819656491973
0.7002481712865511 12.991058646866964 18168.22152288961 14.238368547974158 0.25432622574483715
0.7224842010303202 12.987994578947719 15725.332096756916 14.912012445262798 0.2579261473123159
0.7450737629586323 12.986639171452335 13630.930665789876 15.61449775637684 0.26157777833082413
0.7679957403386329 12.986766095444406 11833.36162554632 16.347106529119902 0.26528317094407416
0.7912424704909837 12.988143164490944 10286.326796571351 17.11144769550664 0.2690469402176627
0.8148195013904034 12.990672533243341 8954.197128615768 17.908976729502598 0.2728715195736063
0.8387022161345788 12.994147780065607 7805.626611571835 18.741045998810296 0.27675787242292504
0.8628837407277868 12.998411227063183 6812.224315725266 19.60902627796497 0.2807067131355035
0.8873689005838306 13.003366876718054 5953.874955505204 20.514991394695677 0.28472428920466497
0.9121267765982874 13.008860108308292 5209.969357359678 21.460736038934257 0.28881361509498255
0.9371483057536645 13.014744822106692 4564.138912564382 22.447727727977586 0.29297447695067264
0.9624331740350356 13.020957484963656 4003.50880624523 23.47802573337264 0.2972109438200559
0.9879550499210149 13.02734340131939 3515.502855143829 24.55403696373899 0.30152898568809416
1.0136978051039112 13.033808002369724 3090.9571550635983 25.677683822207094 0.30593008407554595
1.03966544349967 13.04026246464777 2720.6403319220435 26.85096825000133 0.31041579786623513
1.0658180699783775 13.046588048788061 2397.5369197300797 28.07696851504204 0.3149947178139291
1.0921518007339646 13.052718707786045 2115.0581426143294 29.357715207589134 0.3196671190818628
1.1186518712969915 13.058551979306174 1867.8420562565948 30.69601406309523 0.32443802663758475
1.1452846526930545 13.064005080795594 1651.6105039257925 32.09521460465566 0.3293151558445123
1.1720498049458914 13.06901583392444 1461.6336965921246 33.55731144912496 0.33429654987589563
1.1989066897101361 13.07347449258379 1295.01611529288 35.08682274775934 0.3393956092419022
1.2258536788837695 13.07734446475434 1148.6958742489517 36.68574109639932 0.34460890567259433
1.2528506967610773 13.080496039803144 1019.8313957214025 38.35914966962849 0.3499510655320506
1.2798947894964132 13.082940351186615 906.4162149961902 40.10932254614409 0.35541886068793743
1.306939836377749 13.084524993931938 806.5460637554405 41.94166832013825 0.3610264819710182
1.3339778019910433 13.085236688755833 718.3515948860032 43.85973635076707 0.3667762247031193
1.3609872030095342 13.08503469031365 640.3994389355763 45.86815266316392 0.37267549159000196
1.3879201340292686 13.083770132943078 571.6092779427893 47.97228351949848 0.37873441864793134
1.4147710579929809 13.081460052237189 510.6458642440665 50.176923771897066 0.3849588465152313
1.4415018535098567 13.07802234711971 456.7210906971045 52.48722373412824 0.39135538073409043
1.4680975539317103 13.073419077368003 408.8768611183828 54.9096365530329 0.39793589863475737
1.4945074419630748 13.067549576402987 366.40444918750086 57.45035412103101 0.40470946463582025
1.5207195124065294 13.060400203213455 328.72566834161887 60.116006620921624 0.41168585352211395
1.5467041875538055 13.05191012525173 295.1933983768742 62.91370198320076 0.4188756089391154
1.572420306489779 13.042023011705984 265.3703668061085 65.85106912145356 0.426290106663729
1.5978345338066446 13.030685128397899 238.83260833139516 68.93630532940571 0.4339416232105404
1.622931871741168 13.017861887845976 215.16200052106402 72.1782282709007 0.4418434104010742
1.6476841583982758 13.003520005972936 194.02932541911085 75.58633304814742 0.45000977659946506
1.6720337291266447 12.987582061054121 175.16914943085212 79.17049440502339 0.45845467006813023
1.6959700639971318 12.970022761336581 158.3104458031976 82.94103950861033 0.46719192142518384
1.7194503063575848 12.950806931229884 143.2279588749925 86.91064648851587 0.47624281571891497
1.7424274958796109 12.929830455740412 129.74348567023407 91.09083058098544 0.48562143424925786
1.7649144765821942 12.907205834979225 117.63551056052766 95.49581979620997 0.4953502366427834
1.786840732619969 12.882765623307732 106.78875464996095 100.13915213023131 0.5054462185121177
1.808177864328933 12.856501378447438 97.04860913943811 105.03742714559472 0.515935357588798
1.8288911726712436 12.828370612569206 88.30092191914784 110.20719329250464 0.5268402018845942
1.8489650630053351 12.79838343559076 80.43255175590838 115.666175532107 0.5381844516174463
1.8683401984171775 12.766437784980237 73.36162124872234 121.43442483099199 0.5499968353379496
1.887017295831988 12.732612014801482 66.98450762456338 127.53338120864882 0.5623072040548425
1.9049387339482182 12.696787477930965 61.233874219908714 133.98562400349394 0.5751453314216461
1.9220776893713318 12.658962954862286 56.05336440228448 140.8168054786448 0.5885473739996941
1.9383903887164269 12.619065363121939 51.37395552475028 148.0546083395541 0.6025515870762981
1.9538839301048747 12.577215431735135 47.146834980992935 155.72745696511865 0.617193450996232
1.9684985110732043 12.533274010568883 43.32577755402452 163.86909663179767 0.6325208745282491
1.982211327738869 12.487267024358749 39.86481993928538 172.51342124381895 0.648575787997086
1.994994690498102 12.439180256310982 36.73031677113234 181.6995401325699 0.6654107107249795
2.006831006912585 12.389010912306768 33.89079350744349 191.4695774924094 0.6830804258019401
2.0176752625755205 12.336727270066174 31.31655735909902 201.86959171591866 0.7016441983804084
2.027508113887655 12.282335230729643 28.980802038595975 212.94944059893723 0.7211643504877483
2.0363146386580757 12.225857188689359 26.85958804075843 224.76487258042772 0.741712011572299
2.044055502099309 12.16725427767145 24.931783196743837 237.37684581085796 0.7633635743700692
2.050712228474394 12.106536369534108 23.17965555137577 250.8523817322922 0.7862020662570978
2.056281987010873 12.043779506866912 21.58689658994473 265.2647769786914 0.8103162016224073
2.060725296353616 11.978920383930955 20.136683293176826 280.6953747471491 0.8358042802268
2.0640257115759506 11.912016540404364 18.815402242934017 297.2343956606893 0.8627747587203646
2.0661818929666675 11.843103864291475 17.613089087699038 314.98214936139016 0.8913477756840276
2.067170261370158 11.772202569043582 16.51807773774229 334.04794810457446 0.9216487336075886
