M[M_sun], R[km], Lambda[1], P_c[MeV/fm^3], rho_c[fm^-3]
0.24162668629717493 15.618656898711224 2160425.4255784233 3.5677272577965504 0.1711233750220791
0.25364416037656956 15.277269805222986 1723197.9911044 3.7848217700632176 0.17388820002709157
0.2660401026741599 14.98127211688409 1382959.920800222 4.01140603557931 0.17666671611943988
0.27881554888554516 14.723486461919652 1116452.3790002756 4.2477360793167085 0.17945760543732128
0.29196990195461603 14.498404006871265 905940.7599517441 4.4944370835051375 0.18226743418380542
0.30550538405015637 14.301211782412729 738604.4957896327 4.751664266934754 0.18509190105897075
0.3194215407930294 14.128142296605715 605107.0918556182 5.020100576276841 0.1879376393660451
0.33371966340476833 13.975946770000922 497686.8218671035 5.299969123697173 0.19080125367579523
0.34840107936785153 13.842026985080441 411006.525768061 5.591999649921502 0.19368906336950323
0.3634644332102889 13.723973707892709 340649.0628916038 5.896358021256111 0.19659610532958013
0.37891702012990813 13.620000657947372 283295.7487138949 6.213908911787416 0.19953007275605325
0.39475072982799136 13.528433388293983 236409.1887571442 6.544910376681584 0.20248715535621745
0.41097467736988635 13.447861011753801 197864.7614174395 6.890063559748338 0.20547104309564326
0.4275829436466628 13.377053089318117 166082.7417055855 7.250074135014274 0.208484820000494
0.4445776563457447 13.314930896807034 139806.22154917472 7.625202078379939 0.21152404875999586
0.4619591346636074 13.260569324778727 117981.79826613175 8.016394398544412 0.21459486042587628
0.47972446371185623 13.213144869669561 99811.3854830297 8.424357031694667 0.21769891728207666
0.497881543835361 13.17197960839551 84639.78088636919 8.849532305129651 0.2208337083651187
0.5164192807802327 13.136408145414471 71939.6065637566 9.292790607263665 0.22400260032516103
0.5353379347696935 13.105846398145031 61276.53258075836 9.75501813920713 0.22720853262556928
0.5546441955382189 13.079808009941042 52298.99755786769 10.237024491682917 0.23045285620671283
0.5743274842910737 13.057835724778602 44729.68217974987 10.73928262837287 0.23373229056106365
0.5943842029092398 13.039519192837997 38328.36477771781 11.26303368682306 0.23705297907302833
0.6148208264839643 13.024502816042038 32624.09542324638 11.80921697296952 0.24041655880294135
0.6356251117800645 13.012459494063986 28292.2755305403 12.378811500185082 0.24382466271573594
0.6567950507043959 13.003016254884574 24370.563484940845 12.972508866400636 0.247275270693808
0.678329385687323 12.995964602683674 21028.0796122266 13.591630698289112 0.25077311051052226
0.7002153980893789 12.991064238741139 18172.107891826265 14.237377153789485 0.25432084738300026
0.7224493190187072 12.98799802203131 15729.400744518327 14.910937931329858 0.2579204659521113
0.745037840321908 12.986642180747088 13537.919497983765 15.613345059165555 0.26157188650729435
0.7679585972356775 12.98675852493605 11836.764972664309 16.34586003761934 0.2652769574965747
0.7912019869359279 12.988133901009833 10288.81818898539 17.11010115321975 0.269040392438499
0.8147771353363908 12.990668868786512 8956.166374176828 17.907523465108568 0.27286462393797
0.83865907455425 12.994131912084049 7807.565437615204 18.739492458343637 0.2767507347083042
0.862840652166383 12.998401888563436 6814.664638014516 19.607352260147273 0.2806992028733033
0.8873200038494006 13.003352358835585 5955.282185766726 20.513188841716506 0.28471639013801997
0.9120757780925784 13.008848451496531 5211.187167160196 21.458796341169464 0.28880530987086495
0.9370965611917967 13.01473233051844 4565.341736390652 22.44565896586958 0.2929658844906505
0.9623794987084574 13.020944044357867 4004.539986460683 23.475801943431573 0.29720191234835286
0.9878990874032766 13.02733093307956 3516.5390263194645 24.55164767774062 0.3015194941890699
1.0136422804792184 13.033795388614172 3091.8365265008547 25.67513828924173 0.30592026037359066
1.0396055685547283 13.040250047461976 2721.4204260755114 26.84823534792873 0.3104054734543173
1.0657571203890446 13.04656926158268 2398.318971068267 28.07403544995321 0.3149838671307711
1.0920881397022606 13.052700326364864 2115.7209452727966 29.354592375396305 0.31965587880339735
1.1185877067638892 13.058534658650583 1868.6162558825436 30.692664177275446 0.3244262096982883
1.1452170305333096 13.063990695788277 1652.1494871640753 32.09164859922278 0.3293029034010823
1.1719801968844779 13.069003629748057 1462.0663103631946 33.55348749174556 0.3342836627452605
1.1988362537295405 13.073468292129519 1295.4241008742065 35.08272278838343 0.33938205178774755
1.2257816658946967 13.077332307922633 1149.0267999650066 36.681377033597514 0.3445948278815381
1.2527774937660672 13.080497999716929 1020.1764158511322 38.35450379141423 0.34993643610693814
1.2798192413031388 13.082939745988247 906.6907816744848 40.10434204257437 0.35540345267377144
1.3068619957125716 13.08452277859082 806.7553029722425 41.93636510527457 0.3610104495490518
1.3339006468558865 13.085232946092098 718.6080395799489 43.85405096140276 0.36675932478566176
1.3609077236973812 13.085033858498997 640.6191778517075 45.862097012993935 0.3726578825819056
1.38783905272169 13.083778011022304 571.7775685559944 47.96583174075599 0.3787160548029507
1.4146958064223265 13.081483926309332 510.81386161674334 50.17000511208935 0.38493945966799803
1.441418862120759 13.078031271797869 456.8865409088888 52.47984917733566 0.3913351329641456
1.4680131466030746 13.073435131983858 409.0178460900481 54.9017734425061 0.3979147325553688
1.4944223574077602 13.067571242452955 366.52580233908066 57.44196715463229 0.4046873184237154
1.5206343420781976 13.060426462280377 328.8332441036366 60.10705761426032 0.41166266055311557
1.5466178332467424 13.051939183898117 295.2897834532292 62.904149609133455 0.4188512973876667
1.5723337037074394 13.042060224871614 265.465102357961 65.84086862331574 0.4262645990624317
1.5977580896764179 13.030732581120011 238.91779353983753 68.92540820502191 0.43391483596537345
1.6228447306918847 13.017912340675796 215.23848331298817 72.16658192405865 0.44181525325745
1.6475967819873252 13.003573765808376 194.09561777001863 75.57388040380823 0.44998015205368885
1.6719459310251483 12.98763988072769 175.23239968228967 79.15723851473079 0.4584237442277348
1.6958818909873148 12.97009457092992 158.35625952434904 82.92685102695214 0.4671593163356569
1.7193633583043937 12.95088209149348 143.27810226571125 86.8954523693861 0.4762084085147349
1.742346366944661 12.92994329385839 129.7820045007045 91.07462450022952 0.48558538168481985
1.76482897005672 12.907297272044081 117.67891995589204 95.47844561788519 0.4953121138160733
1.7867553734957735 12.882859499000753 106.81916410659291 100.12059472562161 0.5054061724380602
1.8080940624508248 12.856607695064197 97.08545307928065 105.0175902755019 0.5158932339535762
1.8288046433488407 12.828474473312497 88.3304162072099 110.1859719826904 0.5267958337708057
1.8488852868843362 12.79851153218012 80.46570546978579 115.64336847284916 0.5381373401031307
1.866232581927072 12.767475833503289 73.95275706376404 121.64467347729203 0.8493787329586453
1.8736921901992325 12.732916971272585 70.15395233849675 129.084078754607 1.316996848011023
