M[M_sun], R[km], Lambda[1], P_c[MeV/fm^3], rho_c[fm^-3]
0.24162668629717493 15.618656898711224 2160425.4255784233 3.5677272577965504 0.1711233750220791
0.25364438188152266 15.277290927146682 1723122.6225991927 3.7848421682263345 0.17388845428035443
0.26604206800299024 14.981218104021623 1382890.4774772802 4.011448916835473 0.17666723431411382
0.27881809298370275 14.723458449811767 1116329.9990003628 4.247802894659035 0.17945838039460368
0.291974283233108 14.49832370281702 905836.2762734494 4.494529586481074 0.1822684642259113
0.3055118535879249 14.301147901717549 738591.3178235309 4.751785598750795 0.18509321167414924
0.3194292197266426 14.128060109829839 605047.4678681047 5.020251630966696 0.1879392066167541
0.3337286663422267 13.975897570118748 497634.5645495255 5.300153878467299 0.1908031138497668
0.34841205123334285 13.841935198773632 410942.9248282887 5.592218566338666 0.19369118144606112
0.3634766268940516 13.72387543560582 340618.4103688128 5.89661601799266 0.19659852848952772
0.3789315309436937 13.619936258354233 283256.0926496241 6.21420911136369 0.19953281021472505
0.3947658739216459 13.528372330355776 236363.38390491047 6.545252467692059 0.202490155032237
0.4109927667794484 13.447779015871975 197830.0088823459 6.890454146769778 0.20547436949862133
0.4276029545136623 13.376971523869988 166051.01081473602 7.25051688373299 0.20848848274717716
0.4446007704979188 13.314859748115133 139772.05929420074 7.625695765341193 0.2115279788256471
0.4619813779673079 13.260493606638367 117943.67326380424 8.016947635519717 0.21459914016115314
0.4797514908549111 13.213071740583471 99792.10216364944 8.424974133295994 0.21770355702342642
0.4979094982078783 13.17192670129601 84618.0629264576 8.850210996219225 0.2208386223785896
0.5164509273764506 13.136340729750165 71919.75548862354 9.293541872083468 0.22400788927632836
0.535371503094088 13.105794551041688 61258.64102738482 9.755847072189491 0.22721420793954633
0.5546810734723261 13.079753595410915 52289.03981761334 10.237934175930487 0.23045889996286636
0.5743651559176596 13.057811478653102 44716.598475031446 10.740273743167627 0.23373865382505493
0.5944246942915375 13.039491713133277 38316.2188921015 11.264118817473674 0.23705975898897022
0.6148646247601112 13.02447634087902 32891.65153992933 11.810402530757386 0.2404237689723511
0.6356717377871991 13.012409496069097 28282.333933336628 12.380104296411341 0.24383231745812095
0.6568445747790482 13.00299569444646 24362.180466081194 12.97390296428457 0.24728323878563582
0.6783792455278227 12.995961787044918 21020.457833778368 13.593145896162149 0.2507815467263335
0.7002702222419193 12.991042741369906 18165.498993394165 14.23902157699348 0.2543297684591381
0.7225067428023773 12.988004597338048 15723.10295027308 14.91272022732099 0.257929889622858
0.7450980886603435 12.986648316019053 13628.818665540077 15.615257039743389 0.2615816592837414
0.7680211834718268 12.986763769583062 11831.89273603508 16.347927597541876 0.2652872637642266
0.7912698549928113 12.988142341111665 10286.20543887288 17.112334670576864 0.2690512532770742
0.814845649641214 12.990682251619956 8952.860393214783 17.909934006104383 0.2728760617826332
0.8387322672741968 12.994147185883666 7804.564707508436 18.74206933072806 0.276762574103601
0.8629142509447613 12.998425233246714 6811.0679310696605 19.610128973019666 0.28071166023278055
0.8874002794683741 13.003375356702922 5952.841316062278 20.516178761210547 0.2847294924288372
0.9121586892707536 13.00886625307138 5208.849966452963 21.462013748779274 0.2888190858785308
0.9371816053772131 13.01475789558822 4563.13822954225 22.449090458168996 0.29298013695606684
0.9624692663901745 13.020962382341539 4002.6316225996143 23.47949058796741 0.29721689302981597
0.9879917248311473 13.027355817083654 3514.904238923817 24.55561083909982 0.301535237947749
1.013736990169363 13.033813239178176 3090.7460525879337 25.6793606253977 0.30593655518199253
1.0397045666804385 13.040267897471267 2720.144846580225 26.85276848374889 0.31042259882516615
1.065858031147601 13.046595182715963 2397.0515493511994 28.078900607949013 0.3150018654657304
1.092193041632313 13.052726926051003 2114.5963940146894 29.359772311119766 0.3196745233915051
1.1186948021310748 13.058558955484463 1867.4774499944513 30.698220741321187 0.324445810838016
1.1453285415466277 13.06401403267213 1651.2485075364953 32.0975636544728 0.3293232269483119
1.1720937190517184 13.069027883994082 1461.3035968548545 33.55983042961875 0.33430503909987747
1.1989525844004476 13.073486749946015 1294.7768145619568 35.089523550518784 0.3394045400644384
1.2259014607093661 13.077349949472666 1148.4686323973303 36.68861588275587 0.34461817928837324
1.2528990676908731 13.080506012470888 1019.6311641642272 38.36221010837082 0.34996070256025646
1.2799441019737878 13.082941706044718 906.2194421992242 40.11260342909515 0.3554290106437158
1.3069970355513567 13.084545716585907 806.332800671504 41.94516179828852 0.36103704328472613
1.3340294973309132 13.085242412258946 718.1280479553332 43.86348159959966 0.36678735751954983
1.3610395335226706 13.085028428814153 640.2238013727701 45.87214183382004 0.3726870915563821
1.3879798860208208 13.083782179092776 571.4588310921548 47.97653365426073 0.378746515903438
1.4148249293405883 13.081456754475544 510.5616738135762 50.181481484591565 0.38497161772847166
1.4415571720569327 13.078011216555685 456.6284514379902 52.492081788206605 0.39136871913043403
1.4623872428749949 13.070595669309236 417.48852799207253 55.18059030418368 0.7897925531470327
1.4684461284589077 13.047763627658851 400.75002596843444 58.68446339493485 1.2120660641034766
