M[M_sun], R[km], Lambda[1], P_c[MeV/fm^3], rho_c[fm^-3]
0.24162668629717493 15.618656898711224 2160425.4255784233 3.5677272577965504 0.1711233750220791
0.2536413832713107 15.27737876472353 1723242.1792553018 3.7847888554675166 0.1738877897625347
0.2660363533232908 14.981315605888259 1383178.7681576249 4.011336842824155 0.1766658799658286
0.2788089247340106 14.723625008378216 1116469.11995835 4.247628267806242 0.17945635498626833
0.29196216842484196 14.498524533194036 905976.8965281117 4.4942878244966895 0.18226577215010514
0.3054948537818939 14.30136578871228 738766.2454967434 4.751468492759615 0.18508978632423861
0.31940946182772734 14.128275492106708 605235.1766078424 5.019856845147168 0.18793511056150317
0.3337055268752076 13.97612352089217 497776.65355152055 5.29967101928123 0.19079825225897137
0.34838359786796874 13.842117900562911 411086.95552583545 5.591646428270942 0.19368564585286613
0.363442450309568 13.72415674263041 340740.5574291829 5.895941747290722 0.19659219559640423
0.3788948195983434 13.620133575370971 283374.4164057973 6.213424548525314 0.1995256559463142
0.394723754344403 13.528578154867779 236466.4048416259 6.54435842735865 0.20248231550630233
0.41094529707123656 13.44802598181962 197930.1528036396 6.889433369742727 0.20546567613310648
0.4275502119091799 13.377186395672728 166145.67712437423 7.2493597913472545 0.20847891041840735
0.4445427296074136 13.315033182518153 139851.16531072644 7.6244055557383685 0.21151770792760657
0.4619199642146685 13.260678448123747 118021.82475382827 8.015501804649476 0.21458795549046777
0.47968054275722705 13.213289509466014 99848.78033616224 8.423361407022687 0.21769143157640114
0.49783432035455866 13.17208725339081 84678.0207668024 8.848437320960924 0.22082578021188637
0.5163700309450852 13.136483884069277 71968.65874594587 9.291578544644718 0.22399406732876037
0.5352828264698549 13.105930847276547 61302.13925384973 9.753680780993514 0.22719937636333393
0.5545860053931767 13.079890780077887 52324.127809635065 10.235553121464475 0.2304430574550414
0.5742641283983442 13.057929661332652 44751.55552329524 10.737683639377696 0.23372202455640984
0.5943179127411515 13.03957998813639 38347.29185805745 11.261283034463942 0.23704204096540823
0.6147499447006973 13.024567490025888 32918.50166348135 11.807304316465691 0.24040492666020116
0.6355480394676817 13.012461679001897 28308.965696268686 12.376725853673516 0.2438123134479798
0.6567155971341643 13.003053691149344 24384.459058438377 12.970259807418596 0.2472624159949367
0.6782434306928938 12.995997559680244 21039.966824344432 13.589186292411226 0.2507595007134897
0.7001264221544259 12.991084184292912 18182.798450609524 14.234724296114432 0.25430645550064035
0.7223557391906723 12.98800098749566 15739.114042836183 14.908062675008587 0.2579052633881047
0.7449388930841229 12.986654989410146 13642.821085731426 15.610260612823186 0.26155612086358626
0.7678535057346547 12.98675051775402 11842.454539646124 16.34252463527239 0.26526033135242294
0.7910946921711804 12.98811466002607 10226.773431118427 17.10649805727288 0.26902287180302004
0.8146640282993394 12.99065842853952 8903.861950327424 17.903634828371892 0.27284617263470534
0.8385408216109406 12.99411596600239 7812.128356679336 18.735335527617384 0.2767316357624708
0.8627175078932716 12.998378892995433 6819.200498728414 19.602872990696255 0.280679107216204
0.8871876785910614 13.003324521855243 5959.655193696344 20.508365677722896 0.2846952542855566
0.9119431327255203 13.008816624544531 5214.962180024211 21.453606250842206 0.28878308740706626
0.9369571240231369 13.014702111616328 4568.4633084022125 22.4401235678094 0.29294289359848624
0.962231179919863 13.020897811752944 4007.617795927073 23.469851780011624 0.29717774696673865
0.9877510430868195 13.027293527477722 3519.4605672331563 24.545254745903016 0.3014940981057464
1.0134880470657932 13.033752849494443 3094.2000642732996 25.6683273332535 0.30589397558271597
1.0394462324331475 13.0402074631281 2723.486280104076 26.84092311232021 0.31037784914489924
1.065596051609141 13.046538175406573 2399.983766048216 28.066187711247636 0.3149548349328408
1.0919182399873453 13.052670278317366 2117.3302174709647 29.346236944911347 0.31962580438391197
1.118412865678911 13.05850050468588 1870.0915326234278 30.683701312275662 0.3243945926112224
1.1450393120477678 13.063955330282612 1653.3021788486649 32.082107549826176 0.3292701212951112
1.1717965780674966 13.068977497665657 1463.3335279066407 33.54325635744015 0.3342491827677772
1.198646940114406 13.073441788631357 1296.4686899303526 35.071753287869605 0.3393457786233866
1.2255902405781274 13.07730359696121 1149.9717405782467 36.66970099611812 0.34455716279204135
1.2525796500494735 13.080478546091333 1021.0526800461853 38.34199617436375 0.3498968397516903
1.279618663468542 13.082917722973349 907.5305777862163 40.091016916629556 0.3553622291857351
1.3066570891016291 13.084512680585409 807.4576861838818 41.92217667503752 0.36096755577490747
1.3336892933111841 13.085232827553288 719.2074230685326 43.83884017500715 0.36671411046205454
1.3606958932793056 13.08503722433171 641.2246214287112 45.84589573809744 0.3726107714752834
1.3876223896497077 13.08378888879079 572.3262282959813 47.9485707873803 0.37866692455768647
1.4144756779336554 13.081509256436782 511.27306760640056 50.151495238575784 0.3848875929625828
1.4412043360055973 13.078085878617415 457.2902267236335 52.4601197635799 0.39128096338594487
1.4677882992433087 13.073479960336112 409.40819549932013 54.880737142652286 0.39785810661945836
1.4941951402800209 13.06762360438367 366.88386735950087 57.41952954837384 0.40462807078115903
1.5204044887649912 13.060495702431693 329.1548539396709 60.083116573513124 0.41160061301679624
1.5463869131522017 13.052021683389135 295.5718929529199 62.87859460152031 0.418786257861578
1.5721017163355455 13.042153992905304 265.721764394546 65.81357994542793 0.42619636036407704
1.5975246124065057 13.030843514179463 239.1540321463469 68.89625613756563 0.43384317452969823
1.6226112565055357 13.018044415004413 215.44756471964507 72.1354258000236 0.4417399277093511
1.6473624662766613 13.003720591187482 194.286901859084 75.54056757969859 0.4499009016345898
1.6717122106026896 12.987803979405248 175.40660073865166 79.12177714603288 0.458341013260267
1.695650525217276 12.970276695865943 158.51866526066794 82.88889519745751 0.4670720939500235
1.719116557460935 12.951050038311093 143.4275252131028 86.85480672976018 0.47611636613901737
1.7421205070928696 12.930167432645062 129.91455782821222 91.03127213063223 0.4854889386198995
1.7646049739819083 12.907548282111621 117.79330978946535 95.43196897248053 0.4952101336783249
1.7865309509314096 12.883127831225567 106.9283510620576 100.07095333843955 0.5052990484781519
1.8078717104359068 12.856895481718524 97.18028876261 104.9645267785776 0.5157805535066321
1.8285861447920075 12.828785922943275 88.41916639676201 110.12908200521585 0.526676690258231
1.848670012161119 12.798847449312053 80.54210151794219 115.58236099026654 0.5380113196961788
1.8680611888295444 12.76696735002696 73.45462850274497 121.34463090493894 0.5498140478103085
1.8867363570575149 12.733147054413546 67.07402390092817 127.43717872449683 0.5621142436935317
1.9046670083731219 12.697356531890229 61.31925825504194 133.88266542425677 0.5749420592178769
1.9218147401341041 12.659574389573855 56.1299632606733 140.70622072455058 0.5883319128454619
1.9381435959390734 12.619744774374864 51.445340415669456 147.93573526034 0.6023229287941253
1.9536370343251506 12.57789819512461 47.21376670636737 155.59995977529212 0.6169518310588621
1.968266649889335 12.53401127831138 43.38242546090367 163.7320687645828 0.6322647020242161
1.9819932575791426 12.488049852452184 39.918617524434474 172.36587049236854 0.6483033516673983
1.9947927161585943 12.440004265704097 36.78096045080971 181.540797637345 0.6651215590688381
2.0066331894189178 12.389865325254704 33.939025059888195 191.2986125394182 0.6827730800555316
2.0174974671591754 12.337644306331706 31.357989172565336 201.68526731623163 0.7013170407530667
2.027347065347802 12.28329907013385 29.02084395720946 212.75096590083396 0.7208171308777805
2.036169859954473 12.22687033836065 26.896438050375956 224.55041080228065 0.741341309283161
2.0439279738166856 12.16831412235349 24.96617607194899 237.14535227563331 0.7629688566271527
2.0506013644094034 12.107647266895658 23.209294832045284 250.6018987002868 0.7857801492838368
2.056183247880911 12.04491927818413 21.61353839864629 264.99350530360687 0.8098647897945145
2.0606523560473597 11.980131637364645 20.16018969875299 280.4019292338687 0.8353228496785395
2.0639805585588746 11.913289493176022 18.83899358245155 296.91610540933414 0.8622590714815671
2.0661519740662633 11.844416548089471 17.634243675845788 314.63639020447476 0.8907942832793982
2.067162844945058 11.773565920495438 16.538284093247622 333.6724399107023 0.9210556484107504
