M[M_sun], R[km], Lambda[1], P_c[MeV/fm^3], rho_c[fm^-3]
0.24162668629717493 15.618656898711224 2160425.4255784233 3.5677272577965504 0.1711233750220791
0.2536368624669338 15.277456402334861 1723306.4004790634 3.7847013119676 0.1738866985750406
0.2660259299148753 14.981591584898458 1383274.5054087634 4.011152813852838 0.1766636560843167
0.27879338720080776 14.723956919092739 1116831.249968792 4.247341532459091 0.17945302928834234
0.2919410110626194 14.498861599018232 906274.5455507992 4.493890863877219 0.1822613519014776
0.305467616972813 14.301744586590958 739103.0985844366 4.750947834316492 0.1850841622193613
0.3193751587738067 14.128680457973786 605433.8357294321 5.019208659121057 0.18792838538130544
0.33366476092845415 13.976512843878359 498071.81721504114 5.2988782479296646 0.19079027036690666
0.3483364185884822 13.842515706192614 411317.514875187 5.590707097939278 0.1936765575735064
0.36338891856293254 13.724529477410272 340950.6573225613 5.89483476323694 0.1965817985679083
0.37883288292434464 13.620517540946238 283580.5555880124 6.212136523027282 0.19951391070465582
0.39465407572679917 13.52895059349863 236665.00879181598 6.54289070338666 0.20246944554986593
0.41086735697254695 13.448365841968563 198101.26738134256 6.887757624411681 0.20545140478266807
0.4274641484969236 13.377514173860105 166287.67415038723 7.247460309786981 0.20846319649425463
0.44444766238618516 13.31537720447337 139987.49710071876 7.6222875931375835 0.21150084758345886
0.46181481144548586 13.26099338857154 118134.67440598442 8.013128433864788 0.21456959554866034
0.47956752698813243 13.213548137981068 99952.09193662088 8.420714133065776 0.21767152777706628
0.4977125743583487 13.17232465538908 84772.99062873764 8.845525909022474 0.22080470034550137
0.516235548712602 13.13672923390522 72056.77337263782 9.288355899065948 0.22397137970297729
0.5351386611636536 13.10614353149046 61375.51462003362 9.750125066085214 0.22717503205692213
0.5544312641754694 13.08008044912553 51905.0317250414 10.231641175362062 0.23041700542005444
0.5740971242126846 13.058064981859237 44807.53281368049 10.733432461610795 0.23369473067829627
0.5941449280379255 13.039728457852295 38397.80938761562 11.256628722417183 0.23701296073951425
0.6145625739018215 13.024673697492204 32964.06729822916 11.802219393618996 0.24037400184528682
0.6353479297944076 13.012591317829546 28116.798453662264 12.371181130122395 0.24377948272839867
0.6564993894117843 13.003123315723334 24420.76462065178 12.964280744158643 0.2472282421211731
0.6780203943976643 12.996058735728719 21073.103361869238 13.582688026655298 0.25072332011075027
0.6998907363232035 12.99111922761398 18211.357129254073 14.227672009753183 0.25426819650294363
0.7221072153076715 12.988040624138819 15765.025605004632 14.900419313826266 0.257864850056347
0.7446788101706976 12.986669055451966 13664.630294184277 15.602061284572954 0.26151421133640046
0.76758000923434 12.986736394657486 11862.66336759029 16.333658362058063 0.26521613520418763
0.7908066097581018 12.98811587369315 10313.147287097283 17.09692037317535 0.2689762987685297
0.814362876080932 12.990616611103459 8978.41222760918 17.89329832077064 0.2727971266452331
0.8382272820868558 12.994057934494432 7776.601926563473 18.724286030410603 0.276680869039969
0.8623900269950243 12.998318095794488 6831.6033379513765 19.590966914775695 0.2806256921623176
0.8868454298299239 13.003252689414833 5970.7372831949015 20.49554576188514 0.28463907542659617
0.9115880808628924 13.008736763113928 5224.8422739462485 21.439811314560032 0.2887240214847401
0.9365889747137972 13.01462187695661 4577.75441589408 22.42541105490592 0.2928817861959197
0.9618487892849557 13.020804262104296 4015.2052479877166 23.45403717153201 0.29711351914272494
0.9873551595972945 13.027202830588616 3526.1553337079063 24.528263660942674 0.3014266005912457
1.0130812779276144 13.033653655058417 3100.5216080196174 25.65022551418918 0.30582411717673325
1.0390245994395146 13.040099428441735 2729.21685021381 26.821489403662106 0.310304432093008
1.0651591630428758 13.046437696499991 2405.0426125233366 28.045331216050656 0.314877677688008
1.0914702006406145 13.052560276583792 2121.862959359321 29.324031546782948 0.3195458785848337
1.1179491954755594 13.05840201882467 1874.0916273862767 30.659882082454963 0.32431056873458225
1.1445630682244488 13.063859971107734 1656.938425802778 32.056598351619655 0.32918200750215054
1.1713087760644392 13.068890341946027 1466.5467925258977 33.51606766149351 0.33415755405916514
1.1981522555836996 13.073367343946101 1299.4238803611654 35.042603038500204 0.3392493866513725
1.2250773605600023 13.077234996725533 1152.6378730759402 36.638673736719525 0.34445707365613804
1.2520566940775866 13.080421326835731 1023.397252721563 38.30873518764216 0.3497914762372895
1.279082302394702 13.08288533023207 909.6486158367377 40.05560885471583 0.35525268847124325
1.3061112414508071 13.084484509042577 809.3521769790237 41.88447528607411 0.36085357876433566
1.3331350059562963 13.085229500988277 720.913444843895 43.79842309889517 0.3665939700096772
1.3601293076644068 13.085052248296755 642.7772638267988 45.802847605805844 0.3724855933542262
1.3870490047971535 13.083830312426397 573.6787315375213 47.90270787279526 0.3785363838979065
1.4138841904616573 13.08155181114241 512.5837413095285 50.10231506061147 0.38474978468415916
1.4406119239998343 13.078173474888205 458.3980708454505 52.407700338238044 0.3911370392838176
1.4671855647266032 13.073585726006682 410.4407776244532 54.824846554152465 0.39770765920692003
1.4935919280163887 13.067772032093117 367.8094871282259 57.359917104873915 0.4044706610867507
1.5197959614201655 13.060679491260395 329.97813155792454 60.01951112697739 0.4114357680004202
1.545772907116136 13.052237449248045 296.33214458913517 62.810702700034795 0.4186134675746519
1.5714844283021807 13.042411202615154 266.4052340870692 65.74108379931715 0.42601507482629225
1.596898165939902 13.031127771572281 239.74687618656026 68.81881137839062 0.43365280029170195
1.6219917910307637 13.018370190053034 215.99369955676448 72.05265900897794 0.44153982406703374
1.6467307862388547 13.004095597481545 194.7964770859247 75.4520735590043 0.4496903764565173
1.671095949616572 12.988234260761757 175.86744245436122 79.0272374504292 0.45811982600940604
1.6950268042782208 12.970752723686726 158.9493412093619 82.78807175664242 0.466840401976676
1.7185156700374318 12.951614596198844 143.80048032599723 86.74684098241728 0.47587187684144405
1.74151549932277 12.930772863844469 130.26163268857508 90.91611911772377 0.4852327655524785
1.7639984324216764 12.908192165066326 118.11309985457756 95.30852051283838 0.4949392601931684
1.785930720179343 12.883826716054454 107.21659648956978 99.93910197671296 0.5050145189597554
1.8072675634076891 12.857628834283775 97.44620695620391 104.82358944597546 0.5154812727854352
1.828014278940219 12.829634240791373 88.66016005496778 109.97771805357425 0.5263592560708129
1.848088815119501 12.79971213134852 80.75756312612936 115.42033317497611 0.5376766261412894
1.8675028438282444 12.767927161637518 73.65701979164659 121.17104902145893 0.549460698706207
1.8861940703738063 12.734180134404307 67.2569953148569 127.25106921847514 0.56174072339994
1.904125336379566 12.698429984601088 61.48753000034648 133.68350474964782 0.5745486339498578
1.9212885258500036 12.660713395729903 56.280677696531754 140.49246709424412 0.5879154394872276
1.9376495388093131 12.621004211192377 51.58021360815663 147.70596848851852 0.601880960976917
1.9531628859986838 12.579220703795679 47.337602870885746 155.35353128337158 0.6164848243988329
1.967822222187708 12.535444836496723 43.499670633159965 163.46671329622296 0.6317678414152782
1.9815690514358675 12.489557584521762 40.02291745775136 172.0807018456914 0.6477768189410038
1.994404803029704 12.44163619777993 36.876860523618255 181.23400952163743 0.6645627402622186
2.0062603303738995 12.391546128325809 34.02810368311977 190.96821498360976 0.682179120406932
2.017145866467551 12.339397629067573 31.44143407168833 201.32906529458054 0.700684817301068
2.027027636372006 12.2851507528067 29.095565306415885 212.3669384170222 0.7201445428355286
2.035886553782649 12.228824702248199 26.965540276735307 224.13600041791466 0.7406249910680723
2.043678285187793 12.170365016894984 25.028995719151524 236.6977543930806 0.762205204384983
2.0503886944758385 12.109798664547839 23.27082021087653 250.11750365370602 0.7849635687274259
2.056012048281423 12.047186646356716 21.668013523200692 264.46938431212317 0.8089926220138979
2.060506458742044 11.982458526752673 20.21127522963872 279.83410161265687 0.8343898201556711
2.0638741066763546 11.91572089930092 18.884153310684805 296.3011932596341 0.8612628036184085
2.0660927093501464 11.846959437015999 17.676511311896526 313.9684417122701 0.8897250291187357
2.067145874894608 11.776211725511317 16.576766167066875 332.94705495328515 0.9199099608138516
