M[M_sun], R[km], Lambda[1], P_c[MeV/fm^3], rho_c[fm^-3]
0.24162668629717493 15.618656898711224 2160425.4255784233 3.5677272577965504 0.1711233750220791
0.25364156611396427 15.277389888875886 1723233.355542847 3.7847958759259943 0.17388787726916283
0.26603768143011375 14.981285226617615 1382987.9210508855 4.011351601094667 0.176666058310818
0.2788116364622319 14.72356729571752 1116480.0273276733 4.247651263045745 0.17945662169639348
0.29196379853004506 14.498494767962825 905987.0069046019 4.494319659974646 0.18226612664554084
0.30549810604141453 14.301292436786792 738734.9964542382 4.751510249271519 0.18509023737426067
0.3194117944032683 14.128253992241492 605189.1753167403 5.019908830130516 0.18793564992576975
0.33370904981256144 13.976021415723059 497755.95640891953 5.299734601159865 0.1907988924229878
0.34838727861104835 13.842141310471765 411077.2079128331 5.591721765637094 0.19368637476260825
0.36344802254746766 13.724097059717867 340715.1880168439 5.8960305324648115 0.19659302948554824
0.37889972255107257 13.620097272682973 283362.8536153774 6.213527855702166 0.19952659798337716
0.39472767461122416 13.528593415629771 236459.00523348278 6.544476149123795 0.20248334776714833
0.4109515569206143 13.447997382648314 197917.50127905188 6.889567778388849 0.20546682081353926
0.4275573032388289 13.377161533517786 166135.6020254578 7.249512147865777 0.20848017082483944
0.4445499443462459 13.315015642467566 139841.3352131596 7.624575438888926 0.21151906030671952
0.461927984552335 13.260662905230504 118016.36226958125 8.015692177174307 0.2145894281758569
0.4796904177251107 13.213256978160016 99840.3075049036 8.42357375307555 0.2176930281218643
0.4978447911843069 13.172070658536871 84671.78772150411 8.848670857471985 0.22082747111600892
0.5163797575807743 13.136477275898148 71961.98995745431 9.291837050398435 0.2239958872253825
0.5352954036585207 13.105907275665492 61296.04195155864 9.7539660083129 0.22720132918054206
0.5546001298908926 13.079853293983398 52317.668414494714 10.23586692913262 0.23044514729169446
0.5742766281337169 13.057912623032745 44345.076273341365 10.738024663842817 0.2337242140391121
0.5943320885850253 13.039564107066795 38343.51905786518 11.261656403424192 0.23704437378142845
0.614766247670225 13.024530310170912 32914.001736842816 11.807712235072861 0.24040740748592992
0.6355634305835413 13.012457288477592 28305.87075660425 12.377170664630448 0.24381494720666208
0.6567322016694922 13.003056207830886 24381.968783416953 12.970739468118197 0.2472651575388015
0.6782618703117439 12.995998032000045 21037.519193769946 13.589707612976602 0.25076240328672755
0.7001452328441016 12.991076733404599 18180.925941869875 14.235290071089654 0.2543095248574936
0.7223762651278702 12.988005328095454 15736.423124310648 14.908675878463571 0.25790850562592
0.7449600369124693 12.986646558212522 13640.822314429492 15.610918427852695 0.26155948317767114
0.7678752166346197 12.98675533866315 11841.396178646055 16.343235968416362 0.26526387716973715
0.7911177017509318 12.988128084637996 10294.043314880631 17.10726647766048 0.26902660837115594
0.8146862369655343 12.990663061874379 8960.731890239322 17.904464141723484 0.27285010766725987
0.8385661867504859 12.994109213422211 7811.055022045386 18.73622205595845 0.2767357089014959
0.862743554866396 12.998378769619908 6818.231935773179 19.603828258733472 0.28068339290143096
0.887214003738396 13.00332623463206 5958.63561931199 20.509394281937343 0.2846997617887119
0.9119715153578715 13.008828664777653 5214.140945928337 21.45471310242049 0.2887878266249947
0.9369866549355332 13.014710886458666 4567.848194106882 22.441304056609397 0.292947796676893
0.9622621433396109 13.020914766833117 4007.0773392891424 23.471120717098955 0.29718290049728824
0.987782537977556 13.027302316072682 3518.653412681494 24.5466181024257 0.3014995140739953
1.0135217368336586 13.033758893858991 3093.973009183668 25.669779832641915 0.30589958105759146
1.039480386023827 13.040211846206137 2723.165362610553 26.842482507559126 0.31038374025931226
1.065630207599906 13.046552770350852 2399.6140953992813 28.067861299765937 0.3149610262645021
1.0919553647202034 13.052669197869866 2117.1098148252104 29.348018796238932 0.319632217954629
1.1184500015575993 13.058509022645774 1869.7759513541005 30.68561269466945 0.32440133513647096
1.1450764415391905 13.063963469080985 1653.156532653387 32.084142226097086 0.32927711224237044
1.1718358229613952 13.068981480539179 1463.0662321136783 33.54543818796583 0.3342565357616049
1.1986880059309226 13.073446097139243 1296.265637778193 35.07409256733473 0.3393535139863977
1.2256311434776401 13.077308121886324 1149.8086846153028 36.67219093751819 0.3445651949575633
1.2526221399508326 13.080482277038664 1020.8740764375704 38.344665417983 0.34990529533031967
1.2796608639039013 13.08292697006167 907.3220762961365 40.093858505808434 0.355371020113341
1.3067016238889173 13.084519329082017 807.309015167768 41.925202352514866 0.3609767028563096
1.3337354926231237 13.085231128570637 719.1117468398646 43.84208385385131 0.3667237523530865
1.360740960587544 13.085037517753142 641.0835504778678 45.84935062336227 0.3726208178123228
1.387669377632137 13.08378620190169 572.216785897628 47.952251631645325 0.3786774014286671
1.4145234137453209 13.081503249272815 511.2007859245313 50.15544239116062 0.3848986533191107
1.4412439764311562 13.078061474399973 457.17984364574136 52.464326960130194 0.39129251477137167
1.4678369063890295 13.073469192632626 409.31072401961944 54.88522300654974 0.3978701817583053
1.4942431823665867 13.067611042668418 366.80025849140145 57.42431421124206 0.4046407049272486
1.5204544333307677 13.060477390334428 329.0886717814551 60.08822181022734 0.4116138441609135
1.5464365198377252 13.052003398610664 295.5217775369434 62.884043978685675 0.4188001269597086
1.5721514775269143 13.042134325448018 265.66194813865525 65.8193989848258 0.42621091158842794
1.5975745659125005 13.030819496078404 239.10596237350924 68.90247249625018 0.43385845554497016
1.622661963613514 13.018018540766615 215.40529229179054 72.14206946895789 0.44175598997702276
1.6474124161584982 13.003688339050345 194.24842061127345 75.54767110305224 0.4499178007483066
1.671762090920692 12.987770735896447 175.36154124888571 79.12933878571853 0.45835865447914287
1.6957006658827716 12.97023534424218 158.4846454220861 82.89698870292844 0.4670906928020236
1.7191632995048065 12.9510063369254 143.3984902565321 86.86347374928614 0.47613599267398893
1.7421691165867426 12.93012075690457 129.88426351251448 91.04051627235714 0.48550950343259114
1.7646498176796643 12.907487114148074 117.7705844835261 95.44187925513268 0.49523187905132227
1.7865776711252228 12.883072620418824 106.88992812076727 100.08153839015233 0.5053218905605286
1.8079191928348308 12.856834187875078 97.16111355886949 104.97584146903083 0.515804580275526
1.8286327074189288 12.828719803948548 88.40035684819695 110.14123403695673 0.5267021749940569
1.8487152175996904 12.798773763484299 80.52477896323649 115.59536941817987 0.5380381906193844
1.8681065744927883 12.766892575432866 73.44136212015694 121.35856724467786 0.5498424170909182
1.8867810834606884 12.733063539951415 67.06064674271703 127.45212119037636 0.562144233103324
1.9047081639490373 12.697269635264979 61.3049529906676 133.89864469941102 0.5749736072685523
1.9218549695738607 12.659480899165679 56.11838499904989 140.7233834295395 0.5883653523214273
1.9381754391711652 12.619613218303636 51.43378390893916 147.95418413198868 0.6023584161166301
1.9536793812225073 12.577804218372416 47.20060079307047 155.61974691638602 0.6169893296719557
1.9683026435130768 12.533897364100978 43.37329191508492 163.753376201506 0.6323045987941979
1.9820274235857684 12.487928811643796 39.91144611344106 172.38876942495168 0.6483456320426956
1.994823038321295 12.439875854870653 36.7731679109492 181.56543321165344 0.6651664331090325
2.006663776398453 12.38973253523164 33.93056260433359 191.3251446677756 0.6828207771808846
2.017525131877755 12.337501715560023 31.352155118719004 201.7138723962668 0.7013678119484705
2.0273712870124228 12.2831492654453 29.01354603823281 212.78176663416318 0.7208710149179908
2.0361919652838956 12.226710643707168 26.890156659961697 224.5836921412441 0.7413988368698756
2.043947464892319 12.168147631554513 24.96102748858826 237.18127629602932 0.7630301103819647
2.050619678660246 12.107474973753577 23.205709932362296 250.64080277729096 0.785845732763831
2.056197780427625 12.044738995966794 21.60934689746447 265.03560121311165 0.8099348398336512
2.060663234157834 11.979944042541982 20.156648379032312 280.4475235742169 0.8353977466163359
2.0639870571826586 11.913093837645329 18.834629597214764 296.9654964327528 0.862339093789444
2.0661565528393484 11.84421244686956 17.631300215247073 314.6900430164887 0.8908801708787365
2.067163195346797 11.773355324305554 16.534800225895104 333.73070821937443 0.9211476785498584
