M[M_sun], R[km], Lambda[1], P_c[MeV/fm^3], rho_c[fm^-3]
0.24162668629717493 15.618656898711224 2160425.4255784233 3.5677272577965504 0.1711233750220791
0.2536435084455675 15.277292291039451 1723188.6752444897 3.784810401288288 0.17388805832079654
0.26603815774408357 14.981316447299811 1383080.219974909 4.01138213615049 0.17666642730894708
0.27881315473410745 14.7235623050369 1116495.745777403 4.247698840684344 0.17945717352530327
0.2919665000096446 14.498501275262212 905965.0192039865 4.494385528504668 0.1822668601069099
0.3055014955505824 14.30126823478476 738692.2051881284 4.751596645042414 0.18509117061347516
0.31941776887471196 14.128159507631215 605129.4527119215 5.020016389380007 0.1879367658944973
0.3337151526827366 13.975978941466547 497697.3897934033 5.299866155397416 0.190800216955872
0.3483949610684017 13.842077656639676 411036.31018176716 5.591877643140323 0.19368788292033243
0.3634571676954003 13.72403103846682 340681.49568012013 5.896214234959241 0.1965947548582515
0.37890915830118693 13.62005028972078 283332.0413097158 6.213741605975764 0.1995285471285003
0.3947397886048283 13.528523115171984 236422.4564121941 6.544719725069235 0.20248548359913485
0.410964457704164 13.447920045494282 197888.80106078504 6.889845881847508 0.2054691892592948
0.42757082359020376 13.377110630444827 166103.83037991813 7.2498273881905595 0.2084827787272572
0.4445648412264404 13.314996691706638 139822.04970880746 7.624926944622952 0.21152185851837982
0.4619459847469194 13.260606445114641 117992.53140148612 8.016086078909913 0.21459247532423772
0.47970906129127167 13.213203955981546 99834.77668385934 8.424013121990384 0.2176963315618774
0.4978654894499107 13.172011825632964 84653.49153037398 8.849154073409439 0.22083096980585837
0.5164026635334908 13.13645299811698 71946.77182705779 9.29237193262386 0.2239996528295955
0.5353194885689181 13.1058748945557 61285.46649768822 9.754556182972491 0.22720536982865927
0.554624725533497 13.079844054890332 52306.91202200255 10.23651624269046 0.23044947146669165
0.5743055397250619 13.057861172113144 44737.18701648912 10.738730294965784 0.2337287444094987
0.594361583486831 13.039538016340273 38000.66456062771 11.262428962804371 0.23704920074641628
0.6147964435643742 13.0245191613568 32906.88099664745 11.808556285982306 0.2404125407237272
0.6355974401458421 13.012435134385068 28299.02502245387 12.378091055004873 0.24382039690636476
0.6567677803618398 13.003033654939246 24375.76504596006 12.971731971421509 0.24727083028068808
0.6782967228908056 12.995991438274679 21031.7182154039 13.590786321575429 0.2507684092472025
0.7001849785177731 12.991054774533286 18039.80145838787 14.23646076801409 0.2543158759454445
0.7224165736224071 12.987999094575661 15733.268551994943 14.909944718279675 0.25791521446032056
0.7450034492803663 12.986654188172027 13540.771155728133 15.612279581674 0.26156644049311667
0.7679218207249333 12.98676201159883 11838.202598660666 16.34470786711714 0.2652712142155956
0.7911654868018337 12.988129726312595 10291.408458161164 17.10885650731057 0.26903434014691513
0.814738251633251 12.990655019072735 8958.594483794679 17.906180178034987 0.2728582501368555
0.8386184393315923 12.994116083185325 7809.42352765817 18.738056488065126 0.2767441371678654
0.8627972705512915 12.998391713271559 6816.113591365369 19.60580493589856 0.28069226100524564
0.8872705396522079 13.003344482011324 5956.868762238817 20.511522716415566 0.28470908891861446
0.9120301673409376 13.00883878608982 5212.574814107742 21.457003457782303 0.28879763326339686
0.9370487608905953 13.014724317155691 4566.466011241111 22.44374679279969 0.2929579424123444
0.9623254008330443 13.020940059483705 4005.636120245438 23.47374648477665 0.29719356452001894
0.9878487433692454 13.027316105443656 3517.5004048919104 24.54943925887344 0.30151072118929634
1.0135888804278044 13.033782786882984 3093.0286460878797 25.67278545852276 0.3059111803467165
1.039550448239415 13.040237291476373 2722.197592038893 26.845709342212583 0.3103959306595784
1.0657008125844842 13.046558740365192 2399.0134075132637 28.07132444540306 0.31497383794610495
1.092029287590655 13.052689793093727 2116.2855716893305 29.35170598011666 0.3196454895526464
1.1185262923974477 13.058522268555938 1869.1074952587383 30.689567931564458 0.32441528749091103
1.1451554037042406 13.063980069333791 1652.5544877233367 32.08835260837549 0.3292915787011731
1.1719175381562241 13.068997304692374 1462.5727263117465 33.5499530953218 0.33427175146490096
1.1987711127763778 13.073451059719881 1295.8128279537457 35.07893330535017 0.3393695209946877
1.225715306514812 13.077321358616445 1149.391020733614 36.67734346048176 0.34458181619905043
1.2527093071513047 13.080491099187453 1020.4489902323431 38.35018899869037 0.34992279282311134
1.2797490607706783 13.082928651312326 906.9947766411959 40.09973874727283 0.3553892116159701
1.3067922308466249 13.084516208084622 807.0050101991292 41.93146355723227 0.3609956314267387
1.3338286594539919 13.085234955689373 718.767938892157 43.848796208105604 0.3667437049413043
1.3608355023869618 13.085036986584576 640.8291463592731 45.85650006457679 0.3726416074161965
1.3877646049082917 13.083781636965805 571.998447932997 47.959868691878285 0.37869908204093067
1.414619594708376 13.08149280577358 510.98385957488017 50.163610578537984 0.38492154148029495
1.4413425747690656 13.078044545946918 457.02090221562304 52.47303330992566 0.39131641914592263
1.4679352313139948 13.073450041539218 409.1462208831974 54.894506062494244 0.3978951700753867
1.4943445808647333 13.067587118222377 366.6528187239344 57.43421563881467 0.4046668501512472
1.5205556073101196 13.060447446932184 328.95614521655307 60.098786676118635 0.4116412249212999
1.5465376440120167 13.05196772235389 295.38426465254656 62.89532105814429 0.41882882802349836
1.5722532834730718 13.04209276157024 265.54980204809533 65.83144109999118 0.4262410243798098
1.5976771604381494 13.030771611968548 238.99986064161777 68.91533688895377 0.433890078717207
1.6227639758822108 13.0179585988917 215.31227237318834 72.15581821190425 0.44178923004234477
1.6475160272537188 13.00362465933285 194.16645078020576 75.56237155377273 0.44995277277219475
1.6718646169691247 12.98769740936014 175.29303003833556 79.14498734565389 0.45839516239044087
1.6958027318797306 12.970154918524365 158.41929473211255 82.91373801532666 0.4671291826731328
1.7192678312473526 12.950916730157669 143.33717855026063 86.88141001630453 0.4761766094939743
1.7422697835284704 12.930020669998706 129.82100499368082 91.05964696054079 0.4855520621720466
1.7647506440291931 12.907380940221499 117.71848061995522 95.46238861514063 0.49527688116669727
1.78667804615147 12.882953171961457 106.85776741103028 100.10344427876593 0.5053691625177967
1.8080175070214197 12.856706731131494 97.1206062965842 104.99925745517069 0.5158543041711758
1.8287295159823 12.828582210856025 88.36131231732689 110.1663597887191 0.5267548298902076
1.8488114092067334 12.798626005364325 80.49477596029766 115.6222908920735 0.5380938010945622
1.8681990561924247 12.76672749132327 73.40723442914557 121.38740920771059 0.5499011287582526
1.8868709897595421 12.732889980007908 67.0321241265393 127.48304553498586 0.5622062980162055
1.9047958166169507 12.697086554017098 61.280253502223374 133.9317149315725 0.5750388981750549
1.9219406057209911 12.659282811494277 56.09342979548527 140.75890303982092 0.5884345580296806
1.9382570629349567 12.619405126743246 51.41075239256528 147.99236577596864 0.6024318604084808
1.9537573079531718 12.577576930608798 47.179626989574516 155.66069843781338 0.6170669369043656
1.9683766339478028 12.533661452523326 43.35371655124858 163.79741757503828 0.6323869774545281
1.9820965988457016 12.487675748006478 39.89392710656917 172.43616164939263 0.6484331366033672
1.9948889613467717 12.439613247362008 36.75811927781242 181.6164199211447 0.6652593061073415
2.0067242137550863 12.389450807715157 33.91716241809559 191.38005687690676 0.6829194935178127
2.017582595687155 12.337207185617554 31.339576796900513 201.7730752472434 0.7014728911690744
2.0274226856318007 12.282836817490331 29.001485971954427 212.8455141125405 0.7209825373175214
2.036238569143718 12.226385218924895 26.87857909172726 224.6525741136411 0.741517900999011
2.0439893770778155 12.167807530746646 24.950643346344286 237.25562825869812 0.7631568873084026
2.0506547961350305 12.107118741422434 23.19579153412206 250.72132312861115 0.7859814718754251
2.0562270429362384 12.044366409356646 21.600556764962114 265.1227283391254 0.8100798244333174
2.0606863458204367 11.979555214111052 20.14874264415125 280.5417499571276 0.835552299815308
2.0639983779592255 11.912674479969915 18.827135755300773 297.06772389616157 0.8625047205973971
2.066166178202963 11.843791710216673 17.624194990982836 314.8010922000215 0.8910579387798793
2.0671669002739415 11.772914709807225 16.528813544037607 333.8513113458267 0.9213381615543799
