M[M_sun], R[km], Lambda[1], P_c[MeV/fm^3], rho_c[fm^-3]
0.24162668629717493 15.618656898711224 2160425.4255784233 3.5677272577965504 0.1711233750220791
0.253644838690393 15.27724422831965 1723167.1843934304 3.7848352308770634 0.17388836780964245
0.26604097904841545 14.98125422645906 1382922.9057851837 4.011434333022222 0.17666705807733746
0.2788165989002984 14.723524587955332 1116385.650156242 4.247780170864602 0.1794581168328323
0.29197280109043455 14.498355859204318 905851.0273764717 4.494498126287515 0.1822681139093545
0.3055090750244716 14.30115881790202 738599.6075191699 4.751744333790711 0.18509276593382498
0.3194277711044422 14.12805366922892 605033.1277314656 5.02020025713792 0.18793867359345207
0.3337273814206957 13.97588523023602 497616.04810859263 5.300091043064966 0.1908024812015281
0.3484083226520834 13.841965807092922 410968.4273601532 5.592144112340782 0.19369046108315
0.3634718821962586 13.723924218918896 340642.73195567366 5.89652827248321 0.19659770436513405
0.3789259471718642 13.619974883077195 283268.630548116 6.214107012301924 0.199531879194217
0.39476015576967655 13.528405548885413 236375.8209306912 6.545136120946054 0.2024891348284513
0.4109865503075386 13.44781050741814 197835.1504129776 6.890321306007971 0.2054732381709493
0.42759576778512304 13.37700660788204 166059.82346863017 7.250366302161224 0.20848723702442468
0.444591648976069 13.314891497646185 139777.71628776973 7.625527859025121 0.21152664218340778
0.46197545215971186 13.2605232278517 116647.166651478 8.0167594754254 0.21459768459070272
0.47974127822873036 13.213110446734486 99791.13111796704 8.424764251901635 0.21770197900874963
0.4979003154893954 13.171941962258625 84628.74350700762 8.84998016728623 0.2208369510784891
0.5164399518579398 13.136370615379919 71927.97992217666 9.293286359625453 0.2240060904526946
0.5353600144848882 13.10581546251221 61265.412977702086 9.755565143432921 0.22721227770604527
0.554667844031628 13.079779613952033 52294.261004110274 10.237626313714555 0.23045686410667202
0.5743526767182344 13.057813120263353 44720.979744840755 10.73993665334907 0.23373648960400245
0.5944114583358555 13.03949846464377 38322.9347282851 11.263749750975343 0.2370574530548099
0.6148493846312162 13.024482490962043 32894.7225210319 11.80999930688365 0.24042131669843458
0.6356561801291681 13.012415365410835 28286.51879473248 12.379664598400302 0.24382971397357067
0.6568279830165076 13.00300254639739 24365.8423363618 12.973428811327224 0.2472805287217672
0.6783609480914357 12.995985654244263 21023.231823444537 13.592630554256457 0.25077867744067095
0.700251928974632 12.99104879878507 18168.175050086153 14.238462282407053 0.25432673425871033
0.7224874283835339 12.987996977938469 15725.159541047859 14.912114038723375 0.2579266844752379
0.7450772266536745 12.98663897660196 13630.582773621101 15.614606742122755 0.26157833539366415
0.7679992609309074 12.986753434589257 11833.297577870364 16.34722438321932 0.2652837584172009
0.791247397332403 12.98814569664234 10286.113267511077 17.111575009542392 0.2690475593027064
0.8148235703677333 12.990672879772763 8954.069839772234 17.909114134282675 0.27287217154946286
0.8387074807697277 12.994138897431755 7805.649126136977 18.741192884852815 0.2767585472882895
0.8628890641511567 12.998417071899825 6769.9265552990655 19.609184555384296 0.2807074232264637
0.8873719669799436 13.003365646396253 5953.797450830171 20.515161825405134 0.2847250360584595
0.9121262716194303 13.008877775682198 5209.34027984086 21.4609194370266 0.2888144003525043
0.9371532070638269 13.014751697633676 4563.8765675150735 22.447923329423073 0.2929752893677186
0.9624382533235207 13.02095870797839 4003.4127829373906 23.47823599315613 0.29721179774751094
0.9879603648603146 13.027345425455984 3515.4798911590733 24.554262871702843 0.301529883113191
1.0137052357852243 13.03380744172694 3091.0121142562 25.677924503812267 0.305931012912213
1.0396703180373372 13.040266199456408 2720.597230591393 26.85122664803758 0.31041677404748647
1.065824169310011 13.046586113812896 2397.4500151896973 28.077245839270883 0.3149957437568414
1.0921574572192496 13.052722272087546 2115.0148827945313 29.35801047502353 0.3196681818633315
1.1186573101297606 13.058554197034926 1867.7990461031181 30.696330799439085 0.3244391439455617
1.1452902175892612 13.064010632255078 1643.6770163287465 32.095551776033965 0.32931631433215813
1.1720556513123608 13.06901407153283 1461.54529076693 33.5576730111055 0.33429776837704867
1.198913174765727 13.07348120634797 1294.944289159684 35.08721040713541 0.3393968911263641
1.2258604467740457 13.077340558583856 1148.6354506126468 36.68615372807873 0.3446102367585181
1.2528577214583814 13.080502943206499 1019.8651720483805 38.35958894843001 0.3499524487788844
1.2799021215393975 13.08294145255511 906.4293472972432 40.10979346571928 0.35542031755577896
1.3069464781917577 13.08452459355881 806.5182882329626 41.94216975391723 0.36102799788129897
1.3339857464466147 13.08524097883033 718.3555695600269 43.86027392156566 0.36677782264154385
1.3609960160400796 13.0850280657682 640.3996853544081 45.86872524443847 0.3726771565785691
1.387927671637536 13.083768032983498 571.595137558134 47.97289355730429 0.3787361550124511
1.4147781338491257 13.081461745776682 510.62588048875267 50.17757795663108 0.3849606796129487
1.4415098051872992 13.078022259179496 456.7199051202913 52.48792102713771 0.3913572952394413
1.4681055077846346 13.073417208803262 408.868487100685 54.91038004237082 0.3979378999743414
1.494514607706804 13.067548495752533 366.3853210788279 57.45114714491234 0.4047115586557847
1.5207280576365922 13.060398112094113 328.72806082165687 60.11685279012344 0.411688046522612
1.5467122635219668 13.05190447137558 295.1773161225942 62.91460520569746 0.41887790771217887
1.5724285564108016 13.042019651216577 265.3604709297563 65.85203362953756 0.4262925185349261
1.5978421055582697 13.030680730010113 238.81967652300708 68.93733570957026 0.4339441560848209
1.6229401277193045 13.017859510718834 215.1555055083749 72.17932949680103 0.4418460728132674
1.6476924025632864 13.003515011828975 194.02080798297598 75.5875105169912 0.4500125777699404
1.6720413751324157 12.987576653373864 175.16392147443926 79.17174782818687 0.4584575942900305
1.6959780357850145 12.970016482261789 158.30053484189833 82.94238111753289 0.4671950044385805
1.7194584789486156 12.950799880693019 143.2230105190387 86.91208319076438 0.4762460691426369
1.7424340955120619 12.929823050713377 129.7334307210127 91.09236297452695 0.48562484326083394
1.7649221060370772 12.907195815360675 117.63250829917459 95.49746264609645 0.4953538414222649
1.7868478779619523 12.882756961843594 106.78382245585078 100.14090686703022 0.5054500051580026
1.8081854563878537 12.85649076601044 97.0472524651481 105.03930287019291 0.515939340693914
1.8288990587259297 12.828357334265968 88.29877003280119 110.20919993186554 0.5268443972337162
1.8489724927325377 12.798370525361298 80.42997242695435 115.6683321234967 0.538188906391075
1.8683475032518342 12.766424938257874 73.3559753247115 121.43673529875484 0.5500015386036229
1.8870225981713906 12.732600126212445 66.98084990019883 127.53584974108956 0.5623121446270796
1.904945393937255 12.696773198589025 61.23133003140275 133.9882732615932 0.5751505618797215
1.9220848219597386 12.658947437448154 56.05087560080901 140.81965100037652 0.5885529181581247
1.938396776226674 12.619049222805229 51.37148376855574 148.05766716885557 0.6025574708866457
1.953890771872667 12.577196882165994 47.14538175949808 155.73073774449472 0.6171996684015603
1.9685038598447382 12.533253873394063 43.323489620417604 163.87261924671378 0.6325274548021874
1.9822170138826256 12.487247030388172 39.86317039255572 172.5172181363892 0.6485827985440734
1.9950020690220363 12.4391566473179 36.73027764436246 181.70362506931195 0.665418151493896
2.0068360969784638 12.388988804632191 33.88835406889643 191.47397700611063 0.683088334860485
2.01767955162997 12.336704078452165 31.31588695361897 201.87433507570586 0.7016526173761368
2.0275128221006806 12.282311091681764 28.97988607298939 212.95454816237807 0.7211732858644122
2.0363187544531316 12.22583064287929 26.85875762696954 224.77039163405775 0.7417215513878886
2.044058510016142 12.167228016616402 24.932381595332565 237.38280324747907 0.7633737323467676
2.0507150439134167 12.10650793257204 23.17870479452674 250.85882060277706 0.7862129004236194
2.056283905782651 12.04374974682768 21.586313851179003 265.2717574951554 0.8103278163171582
2.060725810161411 11.978889332693905 20.13510664606902 280.7029250685036 0.8358166645111432
2.064026655094785 11.911983720960615 18.814591792055644 297.24258728169576 0.8627880306141789
2.0661834918587085 11.843069694730922 17.61224904668564 314.99104807752747 0.8913620207783206
2.0671706464337762 11.77216870819182 16.517846531021995 334.0576126209393 0.9216639979391907
