M[M_sun], R[km], Lambda[1], P_c[MeV/fm^3], rho_c[fm^-3]
0.24162668629717493 15.618656898711224 2160425.4255784233 3.5677272577965504 0.1711233750220791
0.2536439577023903 15.277294205025715 1723235.4993521757 3.784819068956623 0.17388816635910093
0.2660398198438731 14.98127682731368 1383048.1226632113 4.011400357306132 0.1766666475008596
0.2788147724801125 14.723512845438666 1116455.9714259647 4.247727231763889 0.17945750281904155
0.2919687457263757 14.498414795730282 905835.0199437046 4.494424834497616 0.18226729778826384
0.30550412871930616 14.301242147742895 738658.8818970643 4.751648200552354 0.18509172751137767
0.31942050791700255 14.12815158553295 605079.0410518048 5.02008057416194 0.1879374318363829
0.33371974724669184 13.975922607321568 497686.3721491146 5.299944659238285 0.19080100735928812
0.3483996229244208 13.842038251818332 411012.4858807932 5.5919706620281735 0.19368878290366098
0.3634627243416736 13.723978188376595 340648.9673351426 5.896323858663226 0.19659578446727818
0.3789154421336512 13.620006775253712 283304.68300952966 6.213869161068223 0.19952971027735716
0.39474636318322814 13.52848777013881 236395.63335029635 6.544865079098786 0.20248675815761036
0.41097212524076426 13.447883230448653 197867.09064791322 6.890011840820864 0.2054706026355539
0.42757956057968205 13.377078321166415 166089.70333423087 7.2500155094061185 0.2084843350058622
0.4445748189410974 13.31495362407077 139807.33878042892 7.625136708118149 0.21152352837067906
0.4619559152479517 13.260578491585958 117981.15855638681 8.01632114339836 0.21459429373809732
0.47972005263281586 13.21316594383604 99817.94965457536 8.4242753204183 0.21769830292750864
0.49787688172990674 13.17199574034952 84646.36040157087 8.849442438998443 0.2208330576959319
0.5164156753188498 13.136418494830883 71942.78865458397 9.29269113194192 0.2240019000126944
0.5353336594981244 13.10585336996164 61279.48665195914 9.754908380210704 0.22720778115738094
0.5546403694649709 13.079804479393438 52301.005659327486 10.236903733542352 0.23045205200460459
0.5743222677282708 13.057843148535445 44732.51837755851 10.739151395778618 0.2337314480071578
0.5943779383662335 13.039531514946919 37996.170283927466 11.262890006197027 0.2370520813538768
0.6148149387611807 13.024524262036119 32903.824968109744 11.809059995495572 0.24041560411798862
0.6356200463355819 13.012430255037314 28293.896591843448 12.378640324090775 0.2438236491693798
0.6567889820991339 13.003028690870567 24372.22640940136 12.972324277754966 0.2472742156608035
0.6783209335850755 12.995972614714411 21029.176396081595 13.59143007585128 0.25077199349853835
0.7002078642864475 12.991059473009075 18173.20456607214 14.23715942182944 0.25431966617649066
0.7224423796288236 12.987989465520005 15730.674579920415 14.910701944998717 0.2579192182034229
0.7450290436256687 12.986647872466165 13634.543456934567 15.613091902598773 0.26157059253885034
0.7679494675888091 12.986753232049605 11836.821558231753 16.345586282494384 0.26527559289593694
0.7911932214735724 12.98814233033422 10289.456991248979 17.109805425583342 0.2690389544151449
0.8147660206521572 12.990668292470891 8956.689598629473 17.907204299914696 0.2728631095219465
0.8386492910468916 12.994134543053478 7807.950988335004 18.73915127122724 0.2767491671300393
0.8628301719644828 12.998400630957102 6815.240823961389 19.60698461477884 0.28069755348039693
0.8873096036018666 13.003349310019956 5955.65978475235 20.51279296858604 0.2847146553605812
0.9120647841128682 13.00884167794155 5211.428871132973 21.45837034959347 0.2888034858982982
0.9370846115235969 13.014735847794306 4565.631927042657 22.44520463038902 0.2929639974397236
0.9623619784738854 13.020936432502522 4004.60876984221 23.47531356237538 0.2971999288877715
0.9878872400654325 13.027327694911515 3516.820980171538 24.551122952294012 0.30151740970396945
1.0136296443904658 13.033790804068142 3092.0922406768996 25.674579250565525 0.3059181029356744
1.0395933628413492 13.040239325518609 2721.6274673848866 26.84763516156552 0.31040320605831234
1.0657433551283844 13.046564944266583 2398.487648289285 28.073391306394157 0.31498148416365107
1.0920741825229285 13.052698283900764 2115.8983907192523 29.35390655762293 0.3196534102805075
1.1185717492339915 13.05853492249047 1868.7209618681325 30.69192849721187 0.32442361453919316
1.145202691799594 13.063986993720626 1652.2274730141132 32.090865457999605 0.32930021260497583
1.1719653059113457 13.069000907108123 1462.1635050565117 33.55264770309856 0.3342808325709343
1.1988204471226955 13.07346565783454 1295.485145688748 35.08182238863039 0.33937907440986315
1.225766990744783 13.077332095602987 1149.1352089488553 36.680418635654746 0.34459173623813155
1.2527620598054376 13.080494924938995 1020.2860991880347 38.35348350581677 0.349933223325403
1.279802633867198 13.082931262199578 906.7626617803885 40.103248272577744 0.3554000689148068
1.3068458096343398 13.084517799558322 806.8133217355851 41.93520046716319 0.3610069286715992
1.3338835016736064 13.085233157339164 718.6675809797316 43.85280239751646 0.36675561340808194
1.3608903824733198 13.085035027953404 640.6808062895747 45.8607671395141 0.3726540154904759
1.387821424446387 13.083776826067547 571.8555270156808 47.96441487734814 0.3787120219523185
1.4146783622738903 13.081486793220096 510.86640759788054 50.16848572223647 0.38493520217019006
1.44140115588559 13.078037315080016 456.92704769174344 52.47822967304971 0.39133068641215224
1.4679951909749454 13.073438157463329 409.0540544450925 54.90004665273309 0.39791008434785624
1.4944040161162733 13.067576975713806 366.54967335499265 57.44012532744991 0.4046824549851964
1.5206160843827963 13.060432142022007 328.86394256086686 60.105092364871076 0.4116575672539502
1.5465988878508465 13.051945068411067 295.31373785940383 62.90205186266814 0.4188459584561342
1.5723143266121407 13.042067974213621 265.48491012792624 65.83862855186965 0.42625899748802304
1.5977388535439891 13.0307421095387 238.94314288482335 68.92301515827532 0.43390895339235336
1.6228260903889595 13.01792370181704 215.25828100206448 72.16402435275492 0.4418090698676279
1.647577191258551 13.00358623865635 194.1141325846796 75.5711457752689 0.44997364643719984
1.6719266070325818 12.987653999151105 175.24958025887022 79.1543274988669 0.45841695286102857
1.6958647467646628 12.970108455860373 158.3726279657648 82.92373522204294 0.46715215622505024
1.7193443605461363 12.95089844264405 143.288651076989 86.89211573599735 0.47620085268176426
1.7423303693218382 12.929960716337009 129.79010567077802 91.07106564951671 0.48557746455194967
1.7648101021514673 12.907315984929552 117.68782444891059 95.47463026593802 0.49530374208197453
1.7867371389602018 12.882883734355287 106.83154151685956 100.1165195502981 0.5053973783865084
1.8080761059296013 12.856632389373946 97.09166504774703 105.01323414483828 0.5158839837009812
1.8287867184371351 12.828500142561204 88.336783668403 110.18131184682092 0.526786090666335
1.8488667703876005 12.798538847812518 80.4711921030724 115.63836012960604 0.5381269945942369
1.868253429709449 12.76663422625616 73.38734884732597 121.40462486008505 0.5499361735176542
1.8869243316282314 12.732788017988856 67.0158587303313 127.50150425053289 0.5622433445110238
1.9048479382224093 12.696976726256064 61.26240777969718 133.95145462040014 0.5750778704499198
1.9219912327145272 12.659165211949183 56.07923774005207 140.78010488756746 0.5884758672917461
1.9383064739548295 12.61929257487556 51.39781543308708 148.0151567393536 0.602475699960473
1.9538042697625064 12.577442082868398 47.16632356071506 155.68514289758645 0.6171132616025605
1.968421480250341 12.53351981203953 43.34264228676016 163.82366365219835 0.6324360053447832
1.9821382820456586 12.487524657662412 39.88325812247931 172.46445098400045 0.6484853697666286
1.9949272518387002 12.439455515790609 36.74675509848215 181.64685505732822 0.6653147441299069
2.0067676118538316 12.389299369587512 33.907782676399954 191.41283543959287 0.6829784199330732
2.0176165775449713 12.337031900331485 31.330793318860344 201.80841523870802 0.7015356161679214
2.027454353716547 12.282651977446998 28.993905490643872 212.88356716680497 0.7210491088593152
2.0362673465309364 12.226192385721708 26.872071030564836 224.69369241180658 0.741588974956278
2.044014720663084 12.167603808484637 24.94439829439145 237.30001210350986 0.7632325658409761
2.050674989994337 12.106905437425295 23.1892956249256 250.76933932679427 0.786062337518707
2.056251055342384 12.044165404423033 21.595691528486906 265.17473899365353 0.8101663731842076
2.060700065744326 11.97932339022021 20.143626809679823 280.59799892301 0.8356445612111872
2.0640082423722186 11.912434140799233 18.822996853133564 297.1287496352111 0.8626035932293172
2.066172694629194 11.843539434650115 17.62022575958412 314.86738470170576 0.8911640600363442
2.067167952798312 11.7726561143756 16.52479253907154 333.92330780340023 0.921451874208081
