M[M_sun], R[km], Lambda[1], P_c[MeV/fm^3], rho_c[fm^-3]
0.24162668629717493 15.618656898711224 2160425.4255784233 3.5677272577965504 0.1711233750220791
0.2536442055118981 15.277272667661268 1723206.8910549802 3.7848233081122324 0.17388821919813055
0.26604067071412635 14.98124213249443 1382941.6552042402 4.011409268872437 0.17666675519187916
0.2788150637725279 14.723545824815403 1116429.5328527165 4.24774111724864 0.17945766386973966
0.2919703760497089 14.498393316985869 905872.4941295002 4.494444058282621 0.18226751184957146
0.30550516415425466 14.301236130759866 738678.011234184 4.7516734153924665 0.18509199987977415
0.31942181695117655 14.128140456736402 605099.8207555269 5.020111965812395 0.18793775753687242
0.33371964146373373 13.975978956785534 497642.2751680991 5.299983054175624 0.1908013939325984
0.3484019061972133 13.84202000943477 411002.1778687622 5.592016156131723 0.1936892230716278
0.36346530756444234 13.724001851257551 340641.905059946 5.896377474044244 0.19659628803428292
0.37891887571752125 13.619985839305219 283300.8253784858 6.213931546570323 0.1995302791580193
0.3947507732396281 13.528453773835356 236406.8669722952 6.544936169966448 0.2024873815284807
0.410976177646625 13.44788048775946 197862.20568794513 6.8900930094868205 0.20547129390197427
0.42758448581688996 13.377042459343876 166077.33105623603 7.250107517571099 0.20848509616583139
0.44457927128659874 13.314926191745402 139800.80787381943 7.6252393014964825 0.21152434507993792
0.46196099852794625 13.26056477879726 117979.6262155902 8.016436111498239 0.2145951831092976
0.4797256806223077 13.21314755273394 99805.46488071611 8.424403559771035 0.21769926710816587
0.497883111092288 13.171980787748101 84640.93762392396 8.849583476778387 0.2208340788697195
0.5164213345852237 13.136401111303156 71935.7301694642 9.292847250624048 0.22400299909794943
0.5353405830763907 13.105838687604017 61273.42831445621 9.75508063835234 0.22720896052780012
0.5546477529116661 13.079812869127224 52299.72264457922 10.237093254024673 0.23045331413708467
0.5743293530106216 13.057840677704188 44728.90059335376 10.739357355142053 0.23373277033006928
0.5943876292968905 13.039514424247031 38328.02091537129 11.263115501833914 0.23705349025469669
0.6148235214501396 13.02450478043052 32900.69975090084 11.80930635956686 0.24041710242259143
0.6356290152003142 13.012429056185766 28291.02615802955 12.378908971869357 0.24382523985281124
0.6567990927862037 13.00301377843281 24369.99906387238 12.97261397556505 0.24727587145468974
0.6783308467848795 12.995977325234454 21027.293005886117 13.591744937551512 0.25077374656412876
0.7002195490154284 12.991062952127693 18171.784412026285 14.237501135709186 0.2543215199909656
0.7224544524017005 12.987992531120767 15729.673655565231 14.911072307825338 0.25792117645129653
0.7450420622302611 12.986653372342271 13634.02334251063 15.61348921289996 0.26157262332556364
0.7679626513918486 12.986756361389679 11836.127327239312 16.346015920795562 0.26527773453511133
0.7912075808893488 12.98814187788683 10288.618212069154 17.110269548218387 0.26904121128635405
0.8147823342762792 12.990663669329821 8897.967666193628 17.907705206182534 0.27286548628637086
0.8386644524741799 12.994132731198366 7807.266693237144 18.739686739386606 0.2767516273291729
0.8628469386812003 12.998393688444063 6814.524664293844 19.607561607364918 0.2807001420822405
0.8873257088897083 13.003358500543797 5955.044571145299 20.51341426273729 0.28471737796788515
0.9120828683260399 13.008842884669445 5211.026070158681 21.459038912623885 0.28880634849158726
0.9371023625019707 13.014737788409855 4565.115910383428 22.44591767727407 0.2929669590305368
0.9623862325818509 13.020951803347801 4004.337754032177 23.476080041534992 0.2972030417873818
0.9879071779241848 13.027334225580477 3516.5303182672933 24.551946471582816 0.3015206811551609
1.0136494715736766 13.033791455140232 3091.7373249694565 25.675456622206884 0.30592148888181064
1.0396136584608873 13.040246472069855 2721.3900107680165 26.848577111829005 0.3104067645767913
1.0657648984109362 13.046573996471102 2398.2269445032025 28.074402244642574 0.3149852240638216
1.0920961490017915 13.05270191237391 2115.6954353331143 29.35498290085853 0.3196572844552775
1.1185943955165731 13.058539872941713 1868.5142038448519 30.693083096140917 0.3244276874617315
1.1452256184158442 13.0639934914997 1652.058240797224 32.092094544193564 0.32930443562407813
1.1719891228806922 13.06901008151931 1461.9962252716903 33.55396569387258 0.3342852743357333
1.1988447225924292 13.073462859717324 1295.3846395512671 35.083235504765796 0.3393837472018263
1.2257908543133296 13.077337013732775 1148.9950474776574 36.68192277633312 0.344596588363124
1.252786778593268 13.080494132287548 1020.1465260497488 38.35508477533648 0.3499382655696124
1.2798291220054687 13.082939525938489 906.6604104631731 40.104964871392326 0.3554053794980605
1.3068727119518726 13.084525410248853 806.7363225794167 41.93702828916238 0.3610124544544166
1.3339107158902503 13.085237298659946 718.5613042441221 43.85476193599714 0.3667614381698452
1.360918666473185 13.085031736294367 640.5864224510537 45.862854288523984 0.37266008463627887
1.3878491292020452 13.083776455418143 571.7733636947438 47.9666385518717 0.37871835124783026
1.4147059618278732 13.081483850135532 510.79846353587203 50.17087030603242 0.3849418840367729
1.4414290845684787 13.078031577117304 456.8626466575757 52.480771380593765 0.3913376649887727
1.4680239413845713 13.073431759192133 408.9932358262746 54.90275673862808 0.3979173794116872
1.4944330288450776 13.067568802253836 366.5149503993872 57.443015957946365 0.4046900878423044
1.5206451333494575 13.06042239690071 328.82337637435063 60.10817669949061 0.4116655608648524
1.5466285612725776 13.05193433047274 295.27834565056224 62.90534414397154 0.41885433757379936
1.5723456784696246 13.042054024881207 265.45098527106853 65.84214420427593 0.42626778880964944
1.5977689633942542 13.030728749064714 238.910107432136 68.92677089695096 0.43391818572642094
1.6228555805793086 13.017905988319932 215.2264869533897 72.16803830371312 0.44181877431788713
1.6476080304246874 13.003565770260339 194.08903584386945 75.57543760796563 0.44998385660547613
1.6719562791309972 12.98763163516502 175.22399169163128 79.15889616188268 0.45842761149957545
1.6958932741455381 12.97008381480281 158.35229577460413 82.9286252906007 0.4671633935883538
1.7193742088494506 12.950873426104359 143.27343552564605 86.89735238327643 0.47621271111137187
1.7423558075004228 12.929931200592357 129.77108190608433 91.07665105521691 0.4855898900237187
1.7648397098868227 12.907286585672534 117.67444907222846 95.48061823719131 0.49531688102795324
1.7867661477573227 12.882852660027014 106.81908593643739 100.12291530102938 0.5054111801391148
1.8081047903325635 12.85659381685474 97.08119346669055 105.02007084075841 0.5158985014390979
1.8288149015554134 12.828459944234439 88.32483190514239 110.18862566372484 0.526801381911949
1.8488949059056474 12.79849452070368 80.46012760863427 115.64622044104884 0.5381432312852927
1.868271830090829 12.766557116047359 73.3861455561068 121.41304596755813 0.5499533158064778
1.8869505917354654 12.732737557948012 67.00453858631816 127.51053343415462 0.5622614660105074
1.9048745516685757 12.696923594531297 61.255431802871406 133.96111042504893 0.5750969340063972
1.922015825844767 12.659106850949927 56.07154325433985 140.79047595002152 0.5884960740653222
1.9383293322747204 12.619220429333424 51.3895581953454 148.02630516740254 0.6024971445164939
1.9538264475477187 12.577378097297014 47.15876962015594 155.69710018585786 0.6171359218607764
1.9684422426463009 12.533448683202911 43.33666895280049 163.83650226240573 0.6324599879753469
1.9821582906880246 12.487451070218723 39.878251731755554 172.47828912982362 0.6485109203898596
1.99494834779994 12.439376933258114 36.74310444849826 181.66174290377288 0.6653418625486375
2.006785700720598 12.389217666904782 33.901969745348126 191.42886966759139 0.6830072448570478
2.017632685619088 12.33694638647211 31.327223226823293 201.82570249868436 0.7015662993491317
2.027469505753527 12.282561836572912 28.990531611573292 212.9021816396238 0.7210816737658431
2.0362806795961244 12.226098566824144 26.868795070083824 224.71380639337832 0.7416237424522707
2.0440262628638255 12.167504743982606 24.9418632146015 237.3217235853768 0.7632695859120099
2.050686037455933 12.106801285235925 23.18726310193996 250.79280517093963 0.7861018215964869
2.0562590140339916 12.044057003241608 21.59201494950733 265.2001815328691 0.8102087110476427
2.0607065130749627 11.979209448756423 20.141354406282357 280.6255148657282 0.8356896937615246
2.064012928108665 11.91231459306712 18.82054456628656 297.15860241770054 0.862651960086005
2.0661745510616787 11.843416587704423 17.61814444610185 314.8998140459887 0.89121597303818
2.067168821704535 11.772528403508314 16.522827250245786 333.95852760041436 0.9215075010641272
