M[M_sun], R[km], Lambda[1], P_c[MeV/fm^3], rho_c[fm^-3]
0.24162668629717493 15.618656898711224 2160425.4255784233 3.5677272577965504 0.1711233750220791
0.25364459233706266 15.277278046849732 1723097.677865139 3.7848501559268932 0.1738885538431885
0.26604279953811766 14.981199222307232 1382938.9957847549 4.011465708762008 0.17666743723463607
0.2788198578658892 14.723434305885174 1116352.576904807 4.247829059099774 0.1794586838626873
0.2919775896573838 14.498267264195118 888615.0094028531 4.494565810208589 0.18226886758552427
0.30551356342884123 14.301134660341123 738599.0847034834 4.751833111956942 0.18509372490745596
0.31943236045650436 14.128013829055371 605000.2620955365 5.0203107838527234 0.18793982035077755
0.3337327793541945 13.975811317524133 497578.71665964846 5.300226228633864 0.19080384229589348
0.3484163515558784 13.84189800528545 410926.3743070076 5.592304294638694 0.19369201089094693
0.3634822029819903 13.72383552733758 340600.1089779521 5.89671705074722 0.19659947741053937
0.3789358061988359 13.6199132440411 283228.3147828588 6.214326671516455 0.1995338822217666
0.39477235154684687 13.528337303077599 236351.6280147136 6.545386433396947 0.20249132973049006
0.4109999039681039 13.447751301746921 197812.64404007702 6.890607104638903 0.20547567215202106
0.42761003824349086 13.376957416618342 166027.33330383885 7.250690269467238 0.20848991712292164
0.4446093825135077 13.314813687296628 139759.7018445399 7.625889099915259 0.2115295178931704
0.4619907159757391 13.260466624379893 117940.12259185102 8.017164291691929 0.2146008161718042
0.4797609372277387 13.213087343943029 99777.70858706301 8.425215800952683 0.21770537402635953
0.4979209394091497 13.171934472589827 84613.97706674928 8.850476784454461 0.22084054679897527
0.5164636883359746 13.136317672859159 71914.1020610629 9.293836082890845 0.2240099605387542
0.535384050298484 13.105780528986166 61252.81522436014 9.756171700915234 0.22721643051963877
0.554694287318792 13.079765935772175 52282.68883063011 10.238287865589438 0.23046123386775236
0.5743808658082409 13.057799369659195 44711.29569767382 10.740661889166814 0.2337411458426023
0.5944409287084419 13.03947419670703 38311.798655001825 11.264543784388689 0.23706241418994556
0.6148814526908887 13.024490261729778 32887.63765959848 11.810866829758599 0.24042659268494423
0.6356896117738158 13.01242369623562 28278.978905259068 12.380610595363146 0.24383531529178348
0.6568638782581394 13.003005538077662 24166.39975574934 12.974448938138025 0.24728635934829504
0.6783995269013907 12.99595773228803 21017.76886438634 13.593739299317196 0.2507848506361186
0.7002915324575572 12.991045309771783 18162.67744818117 14.239665592047428 0.2543332622722369
0.7225298595629863 12.988001099488715 15721.098109191264 14.913418241395222 0.25793358028638685
0.7451218553523239 12.986651692480297 13627.042956316618 15.616005845922505 0.26158548668422626
0.7680462050200126 12.986766129634342 11829.527020096419 16.34873733825388 0.265291300118586
0.7912963579707529 12.988148700587384 10284.317517887659 17.113209410875058 0.2690555068429324
0.8148729017446994 12.990687266517943 8951.064633156338 17.91087808059747 0.27288054134859835
0.8387614075771227 12.994140579139891 7803.305381100288 18.743078551634927 0.27676721095148316
0.8629441122410185 12.99843597404854 6810.032304516852 19.611216465469695 0.2807165391255582
0.8874304853194313 13.003379025254926 5951.836310280923 20.517349760769864 0.2847346239304725
0.9121908000103698 13.008874546405444 5208.076616334686 21.46327384959595 0.288824481265319
0.9372157013652291 13.014768468197513 4562.815268617218 22.450434410410928 0.2929857189685494
0.9625033840880013 13.020974525202615 4001.9954594409187 23.48093526112895 0.29722276027677924
0.9880279445576382 13.027358514857669 3514.362584204723 24.557163035104182 0.3015414040856123
1.0137747756046014 13.033821894378926 3090.1592775500317 25.681014334958434 0.3059429371656739
1.0397431030470923 13.040289813658317 2719.561703597342 26.85454392864638 0.3104293061362853
1.065898218792596 13.046610850424416 2396.772289914642 28.080806101442374 0.3150089147147344
1.0922348275056748 13.052735148233179 2114.247855079415 29.36180109860478 0.31968182578076926
1.118736572292644 13.058566970642197 1867.1091975346537 30.700397050546965 0.32445348790983125
1.1453713923561624 13.064020468936615 1650.8800206574044 32.09988038106612 0.32933118699269814
1.1721382404668856 13.06903082542658 1461.100865080113 33.562314755545344 0.3343134115343948
1.198998007099397 13.073490588733462 1294.4897210354466 35.09218720482971 0.3394133480471263
1.2259482906038017 13.077357092423666 1148.1709209012884 36.69145113412052 0.3446273253703881
1.25294695583613 13.080516277631837 1019.4151825231473 38.365228466022735 0.3499702070791428
1.2799940016637603 13.082950337464691 906.0189865490136 40.11583920931172 0.35543902106670155
1.307046962650572 13.084551499474818 806.1872700264382 41.94860725943367 0.361047459435753
1.3340816224342202 13.085240654942567 718.0079255819662 43.86717538201311 0.3667983373511662
1.3610918576066067 13.085031206888784 640.1214635389575 45.87607619594378 0.3726985321469953
1.3880332719902435 13.083775857958841 571.3444790208556 47.98072540566248 0.3787584469810542
1.4148780223408732 13.081449007519536 510.4174996280604 50.18597660292693 0.3849842135454196
1.4416114911379825 13.078006573728496 456.51740465565075 52.49687313575709 0.39138187437564487
1.4679179845568593 13.07334624656628 409.1277029321109 54.88735100898409 0.4788350875239418
1.4795208274708198 13.058630905701344 386.44224055375224 58.15802596473512 1.113738937639578
