M[M_sun], R[km], Lambda[1], P_c[MeV/fm^3], rho_c[fm^-3]
0.24162668629717493 15.618656898711224 2160425.4255784233 3.5677272577965504 0.1711233750220791
0.2536447216581216 15.277256727040244 1723123.9082946328 3.7848324673020035 0.17388833336301251
0.2660407388925783 14.981256797285326 1382889.6599145888 4.011428523398434 0.1766669878714626
0.2788172923184192 14.723457518696135 1116474.45349841 4.247771118604928 0.17945801184026153
0.2919722232994433 14.49838699102658 905878.602252302 4.494485593813919 0.18226797435735237
0.30550835877469334 14.301182708235885 738640.0757131241 4.75172789552168 0.18509258836914652
0.3194254993388762 14.128108873219908 605061.6210072513 5.02017979194346 0.1879384612591607
0.33372317245027766 13.975929595894186 497660.10488690843 5.300066012099155 0.19080222918123627
0.348406830410948 13.841978458862677 410976.30063250265 5.592114453064869 0.19369017412149656
0.36347063779359623 13.723928687513775 340634.0376307686 5.8964933184975905 0.19659737606990405
0.37892531312928196 13.61995332926236 283279.10831034044 6.214066340553568 0.19953150831684396
0.3947576237759877 13.52840524369907 236373.07580263825 6.545089773620216 0.20248872842501586
0.4109841668182119 13.447821145390133 197838.58970896085 6.890268388291119 0.20547278750146655
0.42759270307712116 13.377029779589567 166064.91376111095 7.250306317408587 0.2084867407859389
0.4445894136088429 13.31488748960042 139781.2314360668 7.625460972989253 0.21152610972755467
0.46197197629843245 13.26053096403891 117962.65156672813 8.01668452134793 0.2145971047603157
0.47973772018545513 13.213129924928118 99808.78073502387 8.424680645217032 0.21770135040336142
0.4978962602554972 13.171951612359027 84631.82980129404 8.849888216233131 0.220836285313577
0.516436333447157 13.136372867790113 71929.14631856083 9.29318457601026 0.22400537388969816
0.5353556113220885 13.105816832667085 61266.37041770788 9.755452837034612 0.2272115087969952
0.5546631493804214 13.079783811110984 52296.62170164578 10.23750275236696 0.23045604123629848
0.5743475695259523 13.057831510818023 44723.386898911005 10.73980237390984 0.233735627488408
0.5944052647948975 13.03953256965826 38322.20760691781 11.263602733877017 0.2370565344893191
0.6148434106222301 13.024508667632848 32895.370571593005 11.80983868348915 0.2404203398402018
0.6356496700800537 13.012419828164273 28286.918247501784 12.379489445874936 0.24382867688247115
0.6568214526187872 13.003004703168896 24366.26458600351 12.973239934007655 0.24727944917646133
0.6783546572454348 12.995980276535242 21024.108057914782 13.592425269761097 0.25077753447159984
0.7002437817196098 12.991047597432058 18168.80018686702 14.23823948986516 0.25432552559829713
0.7224801543380075 12.98798984218716 15725.815785140765 14.911872566524101 0.2579254077206967
0.7450690009169066 12.986639250789189 13631.317457797137 15.61434769963951 0.26157701134031947
0.7679915167210843 12.986752643926161 11833.982214978929 16.34694426208346 0.26528236208359546
0.7912382549603507 12.988138227484022 10286.552731478127 17.111272403663367 0.2690460878327876
0.8148128499359861 12.990675672163448 8954.340483357446 17.908787544338754 0.27287062190353123
0.838696483768022 12.99414652229395 7805.908110483735 18.740843759483983 0.2767569432378621
0.8628796440990238 12.998407816740771 6812.595901553778 19.60880835457282 0.28070573545068
0.8873628715197868 13.00335722471948 5953.962644261286 20.514756738216146 0.2847232609035876
0.9121191542714462 13.008853715169359 5209.8642174399065 21.460483528504447 0.28881253391844586
0.9371408027328719 13.014745274186987 4564.088329793566 22.447458415539646 0.29297335838012867
0.962426183100966 13.020955694318902 4003.6521848054235 23.477736238837192 0.2972097680967303
0.9879479661884598 13.027349384805701 3515.707182595203 24.55372592426895 0.3015277500759371
1.0136911904458972 13.033803292407484 3091.2877847207033 25.67735244189463 0.3059288052150999
1.0396571768925904 13.040257798957049 2720.7525001088534 26.85061247714172 0.31041445382043537
1.0658104934064154 13.046585587109032 2397.5901772852126 28.076586684011463 0.31499330525491415
1.0921431857835753 13.052716478605786 2115.141904578184 29.357308671790932 0.31966565580260353
1.1186429034754855 13.058546520952463 1867.902520901698 30.695577968264118 0.32443648828480975
1.145275551939322 13.064001851267795 1651.681545350975 32.094750374256726 0.3293135607945864
1.172039831880602 13.069014877810504 1461.662245318466 33.556813637054084 0.33429487219789017
1.1988983092723275 13.073476846454868 1295.0994321086469 35.08628900407602 0.3393938442962397
1.2258441907680295 13.077340123691883 1148.7516511990195 36.68517297015518 0.3446070729852748
1.252841721568697 13.080499391308033 1019.8807712506061 38.35854485490404 0.34994916102846474
1.2798852635291345 13.082938982940783 906.4630441403315 40.10867416759973 0.35541685482133045
1.3069295037596262 13.084519887255615 806.5620634245836 41.94097792885639 0.3610243948135794
1.3339675474040797 13.085236386325356 718.4061898551122 43.85899620517559 0.36677402460764635
1.360977358471658 13.085029618611784 640.4326944281369 45.8673643143071 0.37267319917861547
1.3879096312300896 13.083767852165789 571.6426359048605 47.971443599615306 0.37873202796481176
1.4147596219273053 13.081464171916236 510.66628607992664 50.17602306957496 0.38495632264806534
1.4414913356987562 13.078024164220357 456.7468769802515 52.48626367939817 0.39135274478350307
1.468086642058816 13.073422854736753 408.8919098043825 54.9086128942322 0.3979331431293669
1.4944963500991786 13.067552059329847 366.42251970508147 57.44926226207526 0.40470658152661565
1.5207094591305674 13.060401923841008 328.7374207102247 60.114841590463854 0.4116828341350119
1.546692766259773 13.051911379850008 295.1975754208759 62.91245840071379 0.41887244392281686
1.5724089846876943 13.042027575653306 265.38074619418563 65.84974115989193 0.4262867859323692
1.5978232012783578 13.030689629508661 238.84167735020063 68.93488667406231 0.4339381358805667
1.6229208611224106 13.017867531609374 215.1686300568771 72.17671207402758 0.44183974472172444
1.647673738453425 13.003526802602527 194.03877131643665 75.58471187885395 0.45000591987613486
1.6720223074461587 12.987591833928288 175.18204793898357 79.1687686606708 0.4584506439262994
1.6959592116814657 12.97003261387926 158.31511928842943 82.93919234894743 0.4671876766576583
1.7194390610180172 12.95081662319149 143.23474780608433 86.9086684032079 0.4762383363289289
1.7424159906841905 12.929841383751095 129.74901289309102 91.08872074673094 0.48561674064464366
1.7649029380464802 12.907217043594523 117.64217117864227 95.49355788453234 0.4953452735035023
1.7868292340766834 12.882777112678502 106.79096757934386 100.13673617150576 0.5054410049780014
1.8081670822127254 12.856514864622374 97.05621378574565 105.03484460974657 0.5159298735685113
1.8288756420937657 12.828373040196688 88.30100508343872 110.2044305121326 0.5268344256457573
1.8489550678862825 12.798399340430866 80.43941497176709 115.66320629685934 0.538178318202029
1.8683293722604668 12.766455862822323 73.36236318515095 121.4312437378316 0.5499903597980157
1.8870073578326974 12.73263004907057 66.98684364079156 127.52998249109626 0.5623004017907501
1.904929174620561 12.69680811413601 61.237115181560355 133.9819764621595 0.5751381300425005
1.9220681730358986 12.658983885795406 56.05555326552037 140.81288772101766 0.5885397407179885
1.9383809061484039 12.619089077853632 51.375942889813174 148.05039689975433 0.602543486162311
1.9538761476268995 12.577239532233929 47.14884700994123 155.72293994419604 0.6171848907894234
1.9684902303400862 12.533298546697832 43.324440323913436 163.86424665171322 0.6325118147251452
1.982203126622737 12.487293689882442 39.86692143008024 172.5081936388611 0.6485661357961059
1.9949888301250103 12.439208408785824 36.73310152786087 181.69391594916658 0.6654004661969266
2.0068234707734476 12.38904296176801 33.891944521704744 191.46352020070685 0.6830695365360001
2.0176688287714355 12.336760240040942 31.318507382388248 201.86306101877278 0.7016326070371746
2.02750234587777 12.282369462050728 28.982711584521073 212.94240846837013 0.7211520481960402
2.036310241858389 12.225893228129094 26.86142013882449 224.75727391352365 0.7416988770956567
2.0440511908738634 12.167291678516406 24.934509124528358 237.36864358215027 0.7633495888166529
2.0507087015572516 12.106575949045208 23.180862351560656 250.84351667044388 0.7861871497346248
2.056278662503058 12.043820727381348 21.587777915873023 265.2551650712959 0.8103002068500611
2.0607215621091104 11.978963350794512 20.136275717937547 280.6849794539421 0.8357872295264571
2.0640233830231365 11.912061225037574 18.81600589256913 297.2231174358562 0.8627564859752901
2.0661810003725214 11.843150612520349 17.612822687147034 314.969897619915 0.8913281630556579
2.067169435303647 11.772248441356654 16.51807951268205 334.03464202315314 0.9216277177148658
