M[M_sun], R[km], Lambda[1], P_c[MeV/fm^3], rho_c[fm^-3]
0.24162668629717493 15.618656898711224 2160425.4255784233 3.5677272577965504 0.1711233750220791
0.25364349583418405 15.277284010937576 1723305.6663524918 3.7848117377284898 0.17388807497887895
0.2660390402942867 14.981285033380141 1383005.448159898 4.011384945608647 0.17666646125959087
0.2788135040123746 14.723545299242023 1116512.7052988075 4.247703218202753 0.17945722429792002
0.2919668825029294 14.498471362432081 905967.9076289881 4.494391588946452 0.18226692759133573
0.3055031048030671 14.301211059254062 738665.3970331966 4.751604594180275 0.18509125647933522
0.31941810997341036 14.12818016875773 605133.3105086767 5.020026285762538 0.18793686857328568
0.33371546349760095 13.975966565804654 497702.0493160326 5.299878259560132 0.1908003388247061
0.34839568030389817 13.842071570880531 411032.7871801732 5.591891985297358 0.1936880216846471
0.36345804422064065 13.724016796497782 340711.36057429673 5.8962311373158345 0.19659491360876155
0.3789110059553616 13.62002933149418 283328.4432654049 6.2137612730633185 0.19952872646865807
0.39474161773603283 13.528498681977657 236426.0980872456 6.544742136461306 0.20248568011676701
0.410964861342574 13.447947068108615 197883.73497608362 6.889871470179036 0.20546940718026382
0.4275727147921231 13.377090829237181 166095.14796776173 7.24985639356529 0.2084830186812889
0.44456604099776725 13.314967153897003 139814.51115796564 7.624959286866658 0.2115221159834357
0.4619478645415945 13.260601259713734 117994.69209233811 8.016122322127183 0.21459275569482467
0.47971073986192814 13.213193377367077 99830.53736867289 8.424053548783087 0.2176966355148429
0.49786678884660024 13.172021208810946 84654.4938761148 8.849198534712512 0.2208312917246895
0.5164034721592313 13.13642945636443 71942.28532363397 9.292421147931057 0.22399999930842637
0.5353222273318253 13.105858853415816 61284.181295060655 9.754610485955352 0.22720574161562418
0.5546272592321719 13.079828675752008 52306.503257198885 10.236575987294842 0.23044986934245038
0.574307999665623 13.057859310041161 44737.595069691924 10.73879522159895 0.23372916125859539
0.594364318566686 13.039536303430454 38333.56564235818 11.262500047826986 0.23704964488692395
0.6147994808123637 13.02451565908911 32907.135044131704 11.80863394930326 0.240413013046297
0.6356000640395165 13.01245333171504 28298.92218443006 12.378175742729066 0.2438208983486638
0.6567708563119107 13.003038575048832 24374.97705430727 12.971823294651314 0.24727135224682079
0.678301214552109 12.995985039083585 21031.010766146937 13.590885577060604 0.2507689618751518
0.7001883895667582 12.991070920586594 18175.897710651738 14.236568487910754 0.2543164603311412
0.7224211675464572 12.987993324256992 15732.69583282058 14.910061468934543 0.2579158317650423
0.745006876314865 12.986643538105502 13636.516091959149 15.612404826739551 0.2615670806628134
0.7679263626136046 12.98675040374553 11837.861478540151 16.344843302586177 0.26527188932744034
0.791169899132233 12.988130325241661 10291.142503075693 17.10900281285912 0.2690350515812545
0.8147427673964568 12.990661200376147 8958.344810122584 17.90633807839889 0.2728589993627918
0.8386233322181439 12.994127160901508 7809.055391134959 18.73822528291284 0.27674491269285384
0.8628031182463152 12.998393539952486 6815.978634420536 19.605986819848745 0.2806930770038219
0.8872761373515987 13.003341597236052 5956.608233918992 20.511718564808803 0.2847099471566404
0.9120351865462305 13.008837866780434 5212.230610017695 21.457214205897788 0.28879853562579744
0.9370553889699167 13.014721727730485 4566.292448590534 22.44397156277049 0.2929588759788385
0.9623309974738528 13.020931231382177 4005.2686388718944 23.473988097128736 0.2971945457795708
0.9878542906783849 13.027319005381225 3517.341238198848 24.549698850767566 0.3015117524246576
1.0135951003845682 13.033778653177007 3092.7430389728606 25.673062025157975 0.3059122476706255
1.03955647914578 13.040236203912485 2722.07409513399 26.84600626444276 0.31039705237829734
1.0657079588892249 13.04655828618257 2398.9270550273404 28.07164311299985 0.3149750168361128
1.0920376874146276 13.05269169631172 2116.3861115847467 29.352045263723237 0.3196467107653089
1.1185336983374707 13.058526372399427 1869.0341465073147 30.68993188158556 0.32441657134819385
1.1451628191964422 13.0639810233754 1652.526653730202 32.088740037020166 0.329292909867836
1.1719241139755954 13.069000238555311 1462.515931989994 33.55036854672919 0.3342731515789787
1.1987778822651551 13.073461151112454 1295.7094446032809 35.07937874018573 0.33937099392693126
1.2257231226682173 13.077324731482895 1149.3773937440542 36.677817586208604 0.3445833456552521
1.252717599394305 13.080490723889453 1020.4598552594815 38.35069726991948 0.34992440291494104
1.27975748170889 13.082929955968115 906.9529113703184 40.10027983913018 0.3553908855734096
1.3068013391218252 13.084515540606036 806.9704210103515 41.93203970618083 0.36099737321229636
1.3338360896599712 13.085238408518084 718.8159607672441 43.84941387315394 0.3667455409612608
1.3608439270192292 13.085034505020284 640.8136681094444 45.85715795160696 0.372643520462313
1.3877737188584758 13.083782088406831 571.9599759252867 47.960569610667136 0.37870107708206524
1.4146283097946262 13.081490563181674 510.92583950695183 50.16436221415427 0.38492364764612375
1.4413512253932397 13.078042391020096 457.0145555556079 52.473834469265206 0.3913186188293006
1.4679449387263765 13.073447484203452 409.131248773434 54.895360292667824 0.39789746950938404
1.4943531939254246 13.067586814063498 366.6343707917296 57.43512677423733 0.4046692560507545
1.5205647967839833 13.060446492508841 328.93135176622206 60.099758864230864 0.41164374452259206
1.5465470332577678 13.051965124634375 295.3713214993102 62.89635878770055 0.4188314691277222
1.5722628892161654 13.042090178259397 265.53870690120135 65.83254923219916 0.42624379540080937
1.5976867055321584 13.030766790443323 238.9884561620477 68.9165206917878 0.43389298873416443
1.6227739104603156 13.017951910344403 215.30193697947473 72.15708339794993 0.44179228885775557
1.6475254998056437 13.003618443268747 194.1557661968236 75.56372432201007 0.44995599097577305
1.6718775419543026 12.98768751929301 175.28924088448986 79.14642736482311 0.4583985219386878
1.6958127656986695 12.970148091354408 158.4113670957177 82.91527933347469 0.4671327246177479
1.7192764259189468 12.950910247353818 143.3268113314583 86.88306056681137 0.476180347178786
1.7422794257726593 12.930010809608506 129.81815115726386 91.06140743046987 0.4855559785696331
1.7647596024011234 12.907370101671773 117.71454585874132 95.46427596168348 0.4952810224264363
1.7866870765502691 12.882944650444347 106.85309053458322 100.10546014522613 0.505373512670162
1.8080265414296832 12.856695448503267 97.11448807881385 105.00141229365755 0.5158588799752194
1.8287386786641124 12.828570283593285 88.35727031005834 110.16866499988657 0.5267596494735547
1.8488192590011006 12.798613787136427 80.48634389848414 115.6247683382487 0.5380989186434592
1.8682071348951694 12.766712559587976 73.40305041519379 121.3900633960487 0.5499065317130575
1.8868793283808627 12.73287485910656 67.03134310254212 127.48589136529745 0.5622120095749336
1.9048037773100794 12.69707015146286 61.277731007581124 133.9347582483942 0.5750449066274025
1.9219483838938696 12.659264972799933 56.092502100660276 140.76217177545684 0.5884409267697367
1.9382641343474676 12.619390585156001 51.40820013517851 147.9958795025704 0.6024386192364181
1.9537648900296851 12.57755622207385 47.17672798443481 155.6644670807026 0.6170740788598872
1.9683839495493276 12.533638985527036 43.35091418921768 163.80146396908813 0.6323945361522411
1.982102994559847 12.487652407219404 39.8915941843002 172.4405230463842 0.6484411894460468
1.9948966015549412 12.439587427377651 36.75679148432992 181.6211121296945 0.6652678530302761
2.006728829933724 12.389425057171179 33.9142789885027 191.38511036331005 0.6829285782309273
2.0175867341958 12.33718036821754 31.336799550579723 201.77852361910507 0.7014825614916912
2.0274278218896136 12.282808240418468 29.000314238866604 212.85138074621477 0.720992800642145
2.036242788071849 12.226355535963611 26.877184765051197 224.65891330144785 0.7415288584360497
2.0439930987216224 12.16777549140878 24.94999841122903 237.26247087964748 0.7631685546056951
2.050657408112505 12.10708612493244 23.195117216482213 250.72873346539674 0.7859939640282212
2.056235486380926 12.044354184056717 21.599304621107795 265.13074674144275 0.8100931675206329
2.060688325298279 11.979519254575731 20.147637602651386 280.55042175384625 0.8355665235802696
2.06400062151683 11.9126381812527 18.826871275622498 297.07713209540503 0.8625199635659432
2.066167143746866 11.84375257832181 17.62345128314496 314.8113123374669 0.891074299209783
2.0671669991928767 11.77287471078766 16.528054105460235 333.8624108184058 0.921355692284699
