M[M_sun], R[km], Lambda[1], P_c[MeV/fm^3], rho_c[fm^-3]
0.24162668629717493 15.618656898711224 2160425.4255784233 3.5677272577965504 0.1711233750220791
0.25364198680168515 15.277347714249169 1723205.9197769598 3.7848018588456416 0.17388795184336997
0.2660373177787099 14.981326975563475 1382995.0974072737 4.011364178301969 0.1766662102989457
0.2788111800923837 14.723619427122934 1116535.1706836985 4.2476708599609 0.17945684899107736
0.2919650727218081 14.498483452238677 905963.1793891712 4.494346790746284 0.18226642875297974
0.30549872318601345 14.301330957471095 738767.0630920104 4.751545835010987 0.18509062176816335
0.31941400192274544 14.128231007025853 605171.0315021438 5.019953132876569 0.18793610958385934
0.3337105024426843 13.976083786769326 497748.5989389103 5.299788787158015 0.19079943798607835
0.34839042218886046 13.842112358942193 411074.5692890743 5.591785970078747 0.19368699595824326
0.36345211948306805 13.724058778637902 340696.2729172546 5.89610619764207 0.19659374014890552
0.37890352733373217 13.62008348913238 283350.80085019965 6.213615897124894 0.19952740081514367
0.3947337206909288 13.528543673049628 236438.08919151116 6.544576475285303 0.20248422749205075
0.4109567983473092 13.447948764659694 197901.4103101301 6.889682325878056 0.20546779634802534
0.42756379200382355 13.377115665800098 166117.87997758252 7.249641991403211 0.2084812449871486
0.4445563369070158 13.314996123802583 139832.8641572641 7.624720219511172 0.21152021285356623
0.46193572595429433 13.26063200195639 118008.34295612133 8.0158544199313 0.2145906832547499
0.4796982207034193 13.213217829125838 99834.00354055308 8.42375472289455 0.21769438876191202
0.49785282442161033 13.172049520444194 84665.66261537073 8.848869887016033 0.2208289121749466
0.5163884543562328 13.136464732122462 71956.28459783064 9.292057360227574 0.22399743822031434
0.5353049840833929 13.105892792117324 61293.03060090358 9.75420909192251 0.2272029934596051
0.5546091505042179 13.07987260033833 52315.51718727664 10.236134370757485 0.23044692834858677
0.574289571880565 13.057877301534045 44743.37861626361 10.738315301413294 0.2337260800223428
0.5943448435570774 13.039545806057207 38338.74172252562 11.261974607189629 0.23704636192431322
0.6147784583894911 13.02452843404039 32911.98408800391 11.808059884489742 0.24040952177442482
0.6355772008910937 13.012453700351532 28302.857315157722 12.377549756395311 0.24381719183713157
0.6567472176673944 13.00304661824938 24379.021101436985 12.97114826140404 0.24726749403358977
0.678276484495408 12.995988102062825 21035.31808356626 13.590151911996903 0.2507648770246378
0.7001617577858941 12.991073048031357 18178.736868424905 14.235772257663353 0.25431214074318903
0.7223929685212035 12.988009392834249 15735.184581453996 14.909198487427586 0.2579112688565117
0.7449783530115001 12.986649703153974 13639.73607784056 15.611479058433266 0.26156234874931805
0.7678952582687025 12.986759325920795 11840.112794831673 16.343842211670164 0.26526689914030627
0.7911370421402664 12.988134455563936 10224.456958235485 17.107921375621444 0.2690297929181731
0.8147074955694961 12.990652859950101 8959.792708827938 17.905170938084808 0.272853461365456
0.8385864714292616 12.994127366772034 7809.946856556432 18.736977616027517 0.27673918030907596
0.8627643100903012 12.998394705938853 6817.394897698911 19.604642405145622 0.280687045462927
0.8872371743265763 13.003327909205462 5957.530322490403 20.51027093239467 0.28470360340694273
0.9119960176003936 13.008829813466786 5213.517520522822 21.455656442867816 0.288791865735611
0.9370117714082209 13.014717555060173 4567.31185844048 22.44231015781784 0.2929519754485257
0.9622882013710605 13.020914762634828 4006.607686215013 23.472202202851882 0.2971872927322716
0.9878094281986536 13.027308988793381 3518.1307950739642 24.547780062140667 0.3015041299883347
1.013548844537005 13.033773357625032 3093.6016841237865 25.671017769043086 0.3059043584925767
1.0395080864536617 13.040224798600553 2722.737247014517 26.843811552025258 0.31038876114998487
1.0656605660316347 13.046559301663596 2399.3111009627055 28.069287672197635 0.3149663030363612
1.0919862860844962 13.052678197558386 2116.738658718996 29.34953744197856 0.3196376841468384
1.1184816141606821 13.058515557695607 1869.4981102018614 30.687241741430334 0.32440708170447957
1.1451089195712738 13.06397762799625 1652.9111550173222 32.085876357760434 0.32928307054796063
1.1718691842168933 13.068985811837807 1462.8635792842126 33.547297741730716 0.3342628026495206
1.1987217993972448 13.073443478749486 1296.0827291062214 35.07608631790521 0.3393601067790273
1.2256662705608268 13.07731327421083 1149.6324373563316 36.67431310009008 0.34457204072551656
1.2526583021253006 13.08048567202516 1020.7119071888433 38.34694040410775 0.34991250198763635
1.2770592760826727 13.080849334291111 916.4946693473514 40.1774916918929 0.5029110366844909
1.2953421693638385 13.072618992437654 841.0914675747557 42.25694037929041 0.6508159709305903
1.309219315821457 13.0552049085573 782.1957519170782 44.58676203907753 0.7922910601355114
1.3197295641097597 13.029241770853798 733.9444516655717 47.173407757540076 0.9271361548640065
1.3275175709259817 12.99516536000984 692.9449320543454 50.01992215611248 1.0561177282827499
1.3332098065935014 12.953648941133974 656.7389812621878 53.13134023076452 1.1799873826875364
1.3372270589291189 12.905238482615786 623.8736417856479 56.51385601748895 1.2991872314588893
1.3399528041508424 12.85048797959831 593.3364808145614 60.174144735981386 1.4139121500948086
1.3416528807611319 12.789769723423435 564.3457032996816 64.1191537877962 1.52391949657786
1.3425992604869008 12.723611522403944 536.4722627427831 68.35893484891712 1.6331385683611783
1.342935821063875 12.652385891063837 509.5101637616573 72.90732332633621 1.7424188736616806
