M[M_sun], R[km], Lambda[1], P_c[MeV/fm^3], rho_c[fm^-3]
0.24162668629717493 15.618656898711224 2160425.4255784233 3.5677272577965504 0.1711233750220791
0.25364604783239947 15.277240455899456 1723282.3756003312 3.784861964517017 0.17388870103156773
0.2660438547902391 14.981187944716163 1382936.393776427 4.01149053314195 0.17666773722261733
0.27882182393432836 14.723408868288232 1116255.337341359 4.247867739494448 0.1794591324969754
0.2919796506516498 14.498267666740354 905757.2517491326 4.4946193620114325 0.18226946389727766
0.3055187551187603 14.301016129853972 738521.1515942288 4.751903353951208 0.18509448365505288
0.31943778427808556 14.127942254541741 604969.9303270392 5.020398233867848 0.18794072767843706
0.3337395568067783 13.975785811425942 497564.01384558284 5.300333189518331 0.19080491921451986
0.34842269753365485 13.841844480339457 410893.19295536814 5.5924310338675305 0.1936932371278507
0.36348907773123584 13.723794970022546 340554.50507788185 5.896866416319661 0.19660088028360487
0.3789449258101145 13.619846043667922 279295.05713799526 6.214500471571721 0.19953546706900174
0.39478137948029973 13.528291448456637 236320.351264285 6.545584487904249 0.20249306640096057
0.41101048879357227 13.447726635926017 197792.45565955518 6.890833237848874 0.20547759799733029
0.4276215917861526 13.37690932528167 166009.2829604042 7.250946604109238 0.20849203771372196
0.44462087349138374 13.314801333253518 139745.01002348887 7.626174927892234 0.2115317932676539
0.4620052271636092 13.260421248869994 117923.12798959378 8.017484599606341 0.21460329401248002
0.4797764446479616 13.213025682012605 99760.94190320797 8.425573087383317 0.2177080603208406
0.4979371869721635 13.17186947083583 84596.98391049783 8.850869732347654 0.22084339190961572
0.5164810625389855 13.13629195456088 71902.24661992342 9.29427105278836 0.2240130227539499
0.5354042037952746 13.105741333889208 61245.4174612817 9.756651643065121 0.22721971645764508
0.5547151866195781 13.079720878154276 52272.42903329274 10.238810773830833 0.2304646844014862
0.5744040863655462 13.057753062215216 44703.14356032216 10.74123574075757 0.23374483014757194
0.594464673392768 13.039447117470493 38306.302732414915 11.265172075542875 0.23706633976444666
0.6149068441118372 13.024467546872255 32880.294130537535 11.811553273456308 0.24043076740793234
0.6357165978390975 13.01238806550006 28273.848558967584 12.381359136284827 0.2438397474581247
0.6568921183902267 13.002986449927024 24354.87387665944 12.9752561387773 0.24729097297614094
0.678429282868897 12.995954905471793 21012.56530633539 13.594616625001624 0.2507897353504799
0.7003235749199724 12.991045507485962 18159.59432819018 14.240617748585125 0.2543384277679239
0.7225625596511328 12.988004719253338 15718.167236149728 14.914450237023601 0.2579390368362878
0.7451564555952398 12.98665318347354 13623.601813445648 15.617112939189063 0.26159114541064094
0.7680826794609743 12.986768156691923 11827.310595847053 16.349934525575218 0.2652972677971179
0.7913345169568914 12.9881482697357 10281.473924759031 17.114502702949142 0.26906179568434324
0.8149136457032901 12.990687831260272 8949.012387173507 17.91227388671822 0.27288716434883636
0.8388021762427039 12.994161400164897 7801.190185369538 18.744570679973833 0.2767740665091525
0.8629894311231268 12.998435117509063 6808.532400176548 19.61282432294918 0.28072375256804605
0.8874751695441676 13.003396312633734 5950.098524684805 20.519081088951665 0.28474221087901186
0.9122392919721825 13.008884039949006 5206.61168327318 21.46513692029126 0.28883245839451527
0.9372651904198693 13.014776334789715 4561.601528789805 22.452421461315918 0.29299397204675354
0.9625549377484792 13.02099436975611 4001.0084954779077 23.48307123605869 0.2972314351056289
0.9880817091870641 13.02737924087719 3513.363913841676 24.559457991864182 0.3015505208593527
1.013830046949459 13.033836796598196 3089.287754540601 25.683459388178676 0.3059523730969415
1.039799711689328 13.040292012336113 2718.8872501711903 26.85716897935596 0.3104392231051744
1.06595712689142 13.046622710362588 2396.0830575249083 28.083623442358622 0.31501933728385734
1.0922959276600395 13.05274864199746 2113.8016182707493 29.36480074215866 0.3196926226557727
1.11879892072673 13.058581988995531 1866.5936054105478 30.703614821715224 0.32446483880613364
1.145436437757636 13.064042868381062 1650.3202698155278 32.103305774984314 0.32934295630881333
1.1722044676711738 13.069043037152287 1460.5418507426732 33.565987965898636 0.33432579063200923
1.1990658569304928 13.073499025371198 1294.1688122259397 35.09612557558217 0.33942637117151
1.2260174503506707 13.07736534867518 1147.8404687031937 36.69564323316851 0.3446408484329939
1.253018736844687 13.080520349421827 1019.158013991717 38.36969131216823 0.3499842601538173
1.2800658476384812 13.082949736709912 905.7484935105093 40.120623546666735 0.3554538222081341
1.3071207972782526 13.084553352616947 805.917179304848 41.95370164046404 0.36106286052140313
1.3341555293162888 13.085237114148066 717.7963655180369 43.87263694548218 0.3668145719423089
1.3611677058375733 13.08502601759854 639.9271644698294 45.88189349430415 0.37271544806040696
1.3881095344688419 13.083776508874896 571.141946895274 47.98692329594007 0.37877608817750674
1.4149568482660007 13.081441690065773 510.2577100007975 50.19262307487876 0.385002837692285
1.4416910772960243 13.077996506153614 456.34802853834947 52.503957634559356 0.39140132575502357
1.4682882631129028 13.073379326007046 408.54721851560566 54.927479170167366 0.39798392775115865
1.4946999252943631 13.067500347192166 366.1156684952266 57.46938557903148 0.4047597181703529
1.5209139514920853 13.060340021745375 328.4705434458686 60.1363135866107 0.4117384826957757
1.5468993874354067 13.051840277335282 294.9586279632404 62.93537825748143 0.41893077678049995
1.5726179012821604 13.041940670347808 265.15556389194074 65.87421629037709 0.42634798900908966
1.5937930355704377 13.030255617213188 242.4460318224072 69.27381204978046 1.126120277187802
