M[M_sun], R[km], Lambda[1], P_c[MeV/fm^3], rho_c[fm^-3]
0.24162668629717493 15.618656898711224 2160425.4255784233 3.5677272577965504 0.1711233750220791
0.2536332161429323 15.277559999317102 1723639.4399847202 3.784625215995115 0.17388575007545348
0.26601771977426897 14.981752220451696 1383507.0533591136 4.010992854129759 0.17666172306546507
0.278780301354197 14.724156720967061 1117036.2499177686 4.247092306766345 0.1794501386458816
0.29192305051528317 14.49914144075713 906571.9936566093 4.493545842135456 0.1822575100043077
0.30544426521095697 14.302038854559491 739389.3651184426 4.750495312794628 0.18507927412327488
0.31934623178823757 14.129004467914902 605692.1534796508 5.018645314741907 0.18792254046594078
0.3336309530716711 13.976831720634749 498295.2523861229 5.298189262791785 0.19078333342980128
0.3482952128015533 13.842924644751113 411554.7421784635 5.589890762415926 0.19366865930275182
0.3633427109071815 13.724845539668117 341153.5667986236 5.893872753201447 0.19657276316607195
0.37877818936022617 13.620893829460334 283767.3271045365 6.211017212272862 0.19950370393831338
0.39459309794820396 13.529298091269723 236830.37759257396 6.541615264587428 0.20245826167463007
0.4108002847073681 13.448660654484087 195741.76097370984 6.886301456456969 0.20543900344530858
0.42738780318081954 13.37784622961509 166419.86519556996 7.245809766879114 0.20844954197577575
0.4443632042913063 13.315683968023864 140106.06275650827 7.620447246909408 0.21148619724414383
0.4617250954725706 13.261266555799503 118248.0649150684 8.011066212323078 0.21455364259780071
0.4794682108525374 13.213787270542358 100056.08896491185 8.418413977837604 0.21765423382530846
0.49760416597835444 13.172561753556085 84853.29715732415 8.842996309097481 0.22078638496122954
0.516118214514822 13.136918737167521 72133.71464278668 9.285555954646536 0.22395166791970844
0.5350152229825486 13.106312611981771 61444.230063269715 9.747035819910183 0.22715388144237458
0.5542960695484764 13.080279695042499 52449.56353827091 10.22824251945072 0.2303943716975049
0.5739548592018553 13.058204733100325 44456.009886580956 10.729739167079419 0.2336710185833654
0.5939918454228292 13.039854257587274 38443.4579889184 11.25258530082336 0.2369876973682251
0.6143999724761877 13.02480072698956 33005.15866466161 11.797801993260613 0.2403471366808381
0.635174017608039 13.012659171631332 28382.720103632575 12.366364412734866 0.24375096258733236
0.6563166664019966 13.003190383522574 24452.271688769393 12.959086826554366 0.24719855581801317
0.6778256398540246 12.996117852178335 21099.40998939814 13.577043230022667 0.2506918913954313
0.6996859829488218 12.991162391092452 18235.900117227222 14.221546112828557 0.2542349632131531
0.7218917937455372 12.988065759384039 15786.095353905368 14.893780155456632 0.25782974632339706
0.744451106178311 12.98666057952086 13683.660132927624 15.594939354011778 0.2614778087515349
0.7673412929514842 12.986734507138996 11881.169140090364 16.325957320451796 0.26517774744326833
0.7905592515414552 12.988076928885643 10328.953448755743 17.08860162969027 0.26893584753592464
0.8140977082586454 12.990557934257208 8992.350846715173 17.884320728505372 0.272754528611863
0.8379553948103743 12.994017378408474 7839.3553253983155 18.714640715870413 0.2766363459039316
0.8621086956849342 12.99827614385171 6799.9117916763935 19.580626586399095 0.2805793016301956
0.8865488453756081 13.003184486944365 5980.458181710627 20.484412060598103 0.2845902858212487
0.9112792817360719 13.008674666934377 5233.5550908721625 21.42783115143538 0.28867272589553966
0.9362732247050194 13.014547418888899 4585.228543392172 22.412634296675286 0.29282871881621264
0.9615163071997743 13.02072244556652 4022.1283834123064 23.4403036855076 0.2970577433753635
0.9870119351310893 13.027110289106188 3532.3186376906124 24.51350890962828 0.30136798696868294
1.0127239588403192 13.033571263706612 3106.1384732221773 25.63447224337008 0.3057632023973398
1.0386503864947387 13.040007490246872 2734.1719399924295 26.804614341434426 0.31024068114659664
1.0647809460724005 13.04635444168594 2409.611467528093 28.027221185322276 0.31481068080949887
1.091078552427962 13.052473719283569 2125.7471956520385 29.304750667683162 0.3194764792585945
1.1175481016292232 13.058319681712982 1877.4892692116287 30.63920049220537 0.32423761308484317
1.1441538058305154 13.063790021924662 1660.137334964639 32.034419182991044 0.3291053033091238
1.1708844672175314 13.068815671635928 1469.3764328970035 33.49246165623937 0.3340779993875777
1.1977113043462129 13.073284508702212 1301.9825662586513 35.01729468215599 0.3391656987780531
1.2246325434539822 13.077176756686933 1154.8395156563238 36.611736383741935 0.34437017792524494
1.2516060063062324 13.080386558493213 1025.3878255651725 38.2798593979784 0.34970000406583723
1.2786175442500827 13.08284604991573 911.4546429944344 40.024869805567675 0.3551575921224317
1.3056382000502398 13.084468931731498 811.0030188247111 41.85174611643819 0.36075463352607884
1.332658473315118 13.085251787791622 722.4146752916032 43.7633374711577 0.36648967737909094
1.3596379944986872 13.085069536620672 644.1383693325212 45.76547893333847 0.3723769303308415
1.3865489764414989 13.083859366869406 574.9178342177158 47.86286237236267 0.37842288862633383
1.413376986888393 13.081601417626082 513.639574345628 50.05962582702163 0.38463016474718964
1.4400999110757653 13.078250818879098 459.4062897701426 52.36220060200558 0.3910121140554012
1.4666655719016148 13.07368623112088 411.29859927539957 54.77633519641259 0.3975770753564617
1.493066173770026 13.067905869433336 368.6258768361697 57.3081767330152 0.40433403799860534
1.5192599887463913 13.060825225548621 330.71164930782925 59.964306619318975 0.41129269553627407
1.5452378431013223 13.052424909327828 296.97916580044847 62.75177960546223 0.418463503614371
1.5709457755520675 13.042633322158762 266.9878169547223 65.67816657574033 0.42585774256349
1.59636341196173 13.031395251377196 240.28359706941475 68.7516014519318 0.4334875852575062
1.6214592510433201 13.018676695768388 216.48729755472831 71.98083263357168 0.44136617085236074
1.6461905421094862 13.00442823935178 195.23359369300977 75.37527945357716 0.44950768509959704
1.670554168991796 12.988607893810517 176.25481090954867 78.9450941879722 0.4579274480112549
1.6944870088946151 12.971167321649526 159.30401986119887 82.70058364107176 0.4666393545419013
1.7179791895216132 12.952078798523818 144.13228331277864 86.65315845205694 0.47565973200285977
1.7409829976917661 12.931278838028364 130.55672666067986 90.81620314296899 0.4850104892863974
1.7634705469524485 12.90874582854625 118.37984192206642 95.20141061719464 0.49470423716564854
1.785409471372609 12.884436117284338 107.46275979186493 99.82470495928095 0.5047676551591112
1.8067561961361147 12.858292096971871 97.66646645385161 104.70095492542194 0.515220264360244
1.8275076079026318 12.830353485257051 88.86607124342409 109.84640095744531 0.5260838633154593
1.8475922558420668 12.800483468105268 80.94836651881485 115.27976948043717 0.5373862700531739
1.8670185445676792 12.768760571732122 73.82813507944536 121.02046730031124 0.5491541695039949
1.8857089323156495 12.735042521387957 67.41138473031315 127.0896258632939 0.5614167078742703
1.9036674103726514 12.69939113456964 61.62995057784325 133.51027634557386 0.5742057048562962
1.9208482210160238 12.66175106624557 56.4138403829154 140.3070571287194 0.587554190366539
1.9372253581777543 12.622097331272313 51.70477923056431 147.5066769354323 0.6014976137591825
1.9527699045298978 12.580441398214957 47.447886927342616 155.1397960717003 0.6160797747775194
1.9674278931671874 12.53667599238546 43.598185257571146 163.2365722407535 0.631336917471374
1.981208847613554 12.490902393054293 40.11515492988139 171.8333870932305 0.6473201792914203
1.9940549937402543 12.443015865670214 36.96415393222557 180.96795645045486 0.6640781209040248
2.0059335660114175 12.393009314992764 34.104024168226516 190.6816999873576 0.6816640489619389
2.016846271986742 12.340934151815484 31.515414992561563 201.02018729555357 0.7001365893210973
2.026753176257735 12.28676681481753 29.160799260342788 212.03359797832758 0.7195601952029794
2.035632098796837 12.230504692780627 27.025344364047733 223.7766809188982 0.7400038987598384
2.0434608879165856 12.172150772123226 25.084904264997984 236.3091116648535 0.7615412554863825
2.050208002124018 12.11168151281603 23.32019565112523 249.69754537889543 0.7842556140030024
2.0558460380216887 12.049103949144737 21.715152399707975 264.0150080344784 0.8082365134891917
2.0603830741721647 11.984497704191078 20.25361791855675 279.34186111524207 0.8335809920901057
2.0637917691140637 11.917854224309373 18.92379502599377 295.7673009624508 0.8603963721845204
2.066040084522853 11.849169056264621 17.712504735232773 313.3894720117562 0.8887982125027889
2.067131955419258 11.778506261801185 16.61034404186561 332.3179701191832 0.9189157359195618
