M[M_sun], R[km], Lambda[1], P_c[MeV/fm^3], rho_c[fm^-3]
0.24162668629717493 15.618656898711224 2160425.4255784233 3.5677272577965504 0.1711233750220791
0.25364362486708775 15.277280085342614 1723219.3705287972 3.7848138477177726 0.17388810127887747
0.2660384877816305 14.98129302765 1382905.1296835586 4.011389381220824 0.1766665148613463
0.2788141644358114 14.723555220132276 1116438.4440933273 4.247710129494873 0.17945730445849353
0.291967493120083 14.498464104290637 905956.0283473476 4.4944011572692455 0.18226703413683074
0.3055037728956651 14.3012024828647 738680.8556186531 4.751617144414506 0.18509139204581737
0.3194190586409039 14.128163745688093 605126.8136995423 5.0200419103488905 0.18793703068439963
0.3337161039754976 13.975974024660982 497692.45322369505 5.299897369841 0.19080053123352475
0.3483968149218905 13.842061991849025 411026.925932068 5.591914628978612 0.1936882407684923
0.36345896950442325 13.724022350465221 340669.1813686958 5.896257823106479 0.1965951642473546
0.37891190345846365 13.620028296255287 283317.6378360608 6.213792323886559 0.1995290096147784
0.3947421632148029 13.52849056219301 236395.8364426536 6.544777520070707 0.20248599038322054
0.4109670366419883 13.447927320331255 197882.5344211663 6.889911869634928 0.20546975123898317
0.42757501881341314 13.37707503490021 166099.69029569722 7.249902187954893 0.208483397526538
0.44456946254766566 13.314970238963918 139812.0139841418 7.625010349611959 0.21152252247572154
0.46194915746897747 13.260604868323718 117989.74384929052 8.016179543859359 0.21459319835118484
0.4797136024709547 13.213183236558999 99827.76012153144 8.424117375688255 0.21769711540394138
0.4978700328761269 13.172004816440746 84653.15911557617 8.849268731445202 0.2208317999790269
0.5164069432227464 13.136426695497514 71941.18838168588 9.292498850459399 0.2240005463390701
0.5353249451060057 13.105866419076657 61282.31389201764 9.754696221097767 0.22720632860379142
0.554629283604758 13.079832908849419 52302.590079677866 10.236670313880442 0.23045049752071356
0.5743120452159043 13.057868053406688 44736.188063629976 10.73889772977612 0.23372981939284587
0.5943650675469527 13.039560247644683 38332.07720545846 11.262612279120571 0.23705034611007725
0.6148035189971569 13.024529527722976 32905.917951623385 11.80875656668972 0.24041375876458926
0.635603876730715 13.01245938737131 28297.69164416609 12.378309450544823 0.2438216900425624
0.6567759357206227 13.003036331508468 24374.385525824073 12.971967478891084 0.2472721763448098
0.6783067336727409 12.995987439456325 21030.78941662932 13.591042285100663 0.2507698343835343
0.7001941051552071 12.991067740919693 18174.928654256164 14.236738559951927 0.25431738298026496
0.7224265904065382 12.988008716441636 15731.954836237906 14.910245799160409 0.2579168063884303
0.7450136407052272 12.986646838633725 13636.19276007802 15.6126025683413 0.2615680913867144
0.7679329525865821 12.98674640512962 11838.24053254262 16.345057133293864 0.2652729552198876
0.7911759583385582 12.988134255974973 10290.569224072182 17.109233805789767 0.2690361748216555
0.8147497362240482 12.990664137319548 8957.700843679024 17.906587377813274 0.27286018227068726
0.8386318693036354 12.994124723044575 7808.816867173598 18.738491783092464 0.2767461371232883
0.8628114277256006 12.998385485124722 6815.73273343262 19.60627398579286 0.2806943653363071
0.8872847642900534 13.003337164968466 5956.326581629288 20.512027778565667 0.2847113021792673
0.9120440630589257 13.008841204709242 5212.092231943708 21.457546944152003 0.28879996031464533
0.9370625153154661 13.0147320448949 4566.135726425482 22.444326439495935 0.2929603499347198
0.9623391833936071 13.020927369497509 4005.2225961774107 23.47436956555964 0.297196095036214
0.987864006131174 13.02732049897687 3517.1672792175964 24.550108706336648 0.301513380586266
1.0136043959610466 13.03378924094432 3092.44706957197 25.67349868142399 0.30591393281125134
1.0395675957117696 13.040238653344243 2721.915809262354 26.846475059335468 0.3103988234009863
1.0657171553664364 13.046561830426134 2398.800006705057 28.07214624079722 0.314976878124612
1.09204763811422 13.052690313909423 2116.078480596156 29.352580941322074 0.31964863887575695
1.1185447662368888 13.058526006501351 1868.9760882386583 30.690506504065695 0.32441859836622716
1.1451742249178969 13.063983197806667 1652.442949380316 32.08935172901501 0.32929501158128105
1.1719359862208385 13.069001776378046 1462.3991903287208 33.551024482874936 0.3342753621514197
1.1987909218641277 13.073453963678299 1295.6794492276938 35.08008201614171 0.33937331946985916
1.2257360306778065 13.0773228367136 1149.3087313896024 36.67856616122254 0.34458576044237016
1.2527300879688024 13.080491132613187 1020.379222761634 38.351499756172835 0.34992694501546917
1.2797708775802705 13.082935780640751 906.890223446 40.101134144809684 0.3553935285097769
1.3068135804591636 13.084525087702943 806.9189995034076 41.932949362400166 0.3610001232408597
1.3338497256301496 13.085237161873561 718.7504528444379 43.8503890779444 0.3667484397742368
1.3608572851191265 13.085036639536664 640.758230010649 45.858196661709876 0.37264654089019417
1.3877864505676283 13.08377864379502 571.9278175031727 47.96167626240206 0.3787042269701378
1.4146431571152793 13.081492362795533 510.9251713300062 50.165548941393574 0.3849269729866283
1.4413652751413057 13.078040303839781 456.9836853018334 52.475099388233716 0.3913220918228639
1.467958849788012 13.073446006535761 409.1162634084772 54.89670900386644 0.3979010999973703
1.4943680273179076 13.067584615923144 366.62081922697297 57.436565331793425 0.40467305463527814
1.5205790046469498 13.06044095025004 328.9178552054585 60.10129381651248 0.411647722628993
1.5465618637808936 13.051958986371622 295.3559773395706 62.89799722197947 0.41883563907322335
1.5722776579408462 13.042082652966165 265.5256892677561 65.83429882381965 0.426248170470035
1.5977017964500955 13.030759686940309 238.9770968602191 68.91838975834423 0.4338975832622543
1.622789025310305 13.017943333122506 215.28893286883223 72.15908095904145 0.44179711832190555
1.6475410959948456 13.003608478623457 194.145565678527 75.56586016521356 0.4499610720961383
1.6718892020961416 12.987679132915243 175.2702857947056 79.14870096708427 0.45840382622675135
1.695826359190554 12.97013842677901 158.39549598601877 82.91771287531888 0.4671383168898183
1.7192923454448539 12.95089879527178 143.32074108038313 86.88566657429907 0.47618624850356556
1.7422929630404227 12.929998266370934 129.80946693565255 91.06418698837606 0.4855621620628559
1.7647735639667226 12.907354950599464 117.7051847643984 95.46725584388301 0.4952875609533574
1.786702675693247 12.882925415996457 106.84838281564716 100.10864294630682 0.5053803810168122
1.808040854468367 12.856677401654926 97.10935178525577 105.00481451655271 0.5158661046026686
1.82875476675281 12.828548040978546 88.3503085782947 110.17230464521678 0.5267672590037663
1.8488329388486846 12.798591391785592 80.48099947847933 115.62867992481307 0.5381069986315165
1.8682203109895001 12.766690727255211 73.39838512982209 121.39425404021779 0.5499150623288859
1.886891938584559 12.732850289556813 67.02463785777412 127.49038459263716 0.5622210274463523
1.9048166435676592 12.69704353214321 61.27115662201672 133.93956328685636 0.575054393265278
1.9219608220362978 12.659236251873189 56.08946569644057 140.7673327279963 0.5884509822678946
1.9382756705590916 12.619357184328452 51.40581729304382 148.00142727210945 0.6024492906471453
1.9537766236526208 12.577522322999135 47.17475541964418 155.6704173384637 0.6170853551939737
1.9683941907166074 12.533604937349953 43.3492305939042 163.80785276961618 0.6324064704847221
1.9821131419364204 12.487614857643587 39.889431853535754 172.44740920768012 0.6484539039899624
1.9949048963455713 12.439549459681663 36.75214579656946 181.62852061234244 0.6652813476841438
2.006744491293557 12.389399350025682 33.91018418921825 191.39308927150546 0.6829429220098828
2.017595964033116 12.337137664709061 31.335622533786573 201.78712601703597 0.701497829899462
2.027436112264523 12.282762813982142 28.998184365345935 212.8606435434567 0.7210090053517442
2.0362494009866956 12.226308588263855 26.875519429546056 224.6689222223751 0.7415461590941511
2.043999065662138 12.167726196415376 24.94777340641789 237.2732746801801 0.7631869760780573
2.0506625712565887 12.107033951584377 23.19332406303171 250.740433644438 0.7860136878853892
2.0562401947380664 12.044300703587856 21.59834974628545 265.1434070087549 0.8101142349409862
2.060692827774312 11.979462640832939 20.147298120872524 280.5641136810333 0.8355889815276244
2.0640011635137756 11.912579706469726 18.824866555096463 297.0919867483486 0.862544030765385
2.066168291920219 11.843691794179751 17.622354700848952 314.82744898345203 0.8911001308061711
2.067166870894044 11.77281229211629 16.527484183980757 333.87993587386933 0.9213833717099121
