M[M_sun], R[km], Lambda[1], P_c[MeV/fm^3], rho_c[fm^-3]
0.24162668629717493 15.618656898711224 2160425.4255784233 3.5677272577965504 0.1711233750220791
0.253644976880136 15.277279361641156 1723117.5081344142 3.7848469289333884 0.17388851362027122
0.26604251694771447 14.981214501292511 1382922.3074211697 4.01145892489651 0.1766673552556251
0.278819426286229 14.723437058795994 1116433.2750037145 4.24781848877007 0.17945856126279186
0.2919763257837902 14.49831192780353 905830.0779924106 4.494551175954864 0.18226870462971262
0.3055125636374441 14.30115966384565 738617.835641229 4.751813916778693 0.1850935175628963
0.3194309519865118 14.128039549192373 605031.7666464689 5.020286886263033 0.1879395724040609
0.3337316979065303 13.97581105013909 497594.94455481175 5.300196999357899 0.19080354800558466
0.34841461757885406 13.841912195786588 410925.83695213473 5.5922696606053615 0.19369167579714694
0.36348015361439767 13.723846286136213 340614.1015972852 5.896676233716807 0.19659909404835194
0.3789348204196238 13.619896592350932 283249.91842109937 6.214279177412042 0.199533449132721
0.39476953023104705 13.528339219339259 236357.17103035745 6.5453323114372015 0.2024908551540183
0.4109970458081378 13.44776972355418 197820.93065829916 6.890545309822224 0.20547514588143104
0.4276077285354242 13.376948979819911 166030.870928303 7.250620221759784 0.20848933763618957
0.4446055483714186 13.314826061449013 139759.89410383592 7.625810992836488 0.2115288961106007
0.4619871689814897 13.260474429238828 117942.5248071886 8.017076762630683 0.21460013906375125
0.47975676631435327 13.213070765483106 99779.63961331213 8.425118167180399 0.21770463995688147
0.49791722572670083 13.171902286550068 84617.70092520694 8.85036940589207 0.22083976933230426
0.5164583713327103 13.136325265497943 71917.77840994604 9.293717221506839 0.22400912374720064
0.5353795253538423 13.105795208052179 61256.36576562535 9.756040550570544 0.2272155325949571
0.5546891495255535 13.07976421287454 52287.76256979034 10.238144974504081 0.23046029096712228
0.574375132159905 13.05779127242332 44713.34419774254 10.740505077557538 0.2337401390634966
0.5944356997790409 13.039479446553841 38314.542935519894 11.264372096941768 0.23706134148367028
0.614874859258955 13.024468073610727 32889.72654163542 11.810679251933655 0.24042545189880188
0.6356824622439722 13.012426806835268 28048.96855517306 12.380406049312617 0.24383410415944037
0.6568561901485855 13.003004736679069 24360.67218796642 12.974228363188997 0.2472850986323374
0.6783914133673226 12.995960110197274 21018.91436700491 13.593499562620996 0.25078351584642344
0.7002832267662615 12.991042885698318 18164.3753798498 14.239405407795424 0.25433185075997145
0.7225203311174195 12.987990876425988 15721.496593816008 14.913136241147248 0.25793208924477506
0.7451121906515668 12.986644499026529 13627.761244950661 15.615703325291523 0.26158394039943056
0.7680363028065791 12.986763119182765 11830.866022855253 16.34841019958936 0.2652896694143925
0.7912839951899668 12.98815673379538 10285.274833322175 17.11285601183968 0.2690537883830943
0.8148637872081994 12.990679062046047 8951.82658975804 17.910496669948184 0.27287873158233966
0.8387493443827733 12.994139875816147 7803.754649479331 18.74267082127062 0.2767653376414245
0.8629336342044518 12.998424125687777 6810.430354172779 19.610777112674256 0.2807145680266504
0.8874182473286355 13.003384446655497 5952.2279307007475 20.516876670295254 0.2847325507746589
0.9121776725550846 13.00886530796191 5208.350974554969 21.462764761319608 0.28882230149674504
0.9372020034773693 13.014760212098654 4563.16333541643 22.449891445321313 0.29298346380068463
0.9624895123337064 13.02097023955732 4002.2885227987376 23.48035160371053 0.2972203898705815
0.9880137034365389 13.027354627498083 3515.025427987378 24.556535937266993 0.30153891292360246
1.0078209976432557 13.028577650432396 3174.308147496507 25.80527987487913 0.601004956425774
1.014849553057152 13.011464898167317 3026.527120763743 27.431093692719145 0.9118110534651075
1.0149306050820375 12.97894118507829 2958.990219694519 29.416394877947653 1.1917220956419359
