M[M_sun], R[km], Lambda[1], P_c[MeV/fm^3], rho_c[fm^-3]
0.24162668629717493 15.618656898711224 2160425.4255784233 3.5677272577965504 0.1711233750220791
0.25364525770323104 15.277269957078078 1723160.908793545 3.784854400849096 0.17388860675409593
0.2660432595522908 14.981202970981755 1382879.7547659953 4.011474632554857 0.1766675450734062
0.2788210042240295 14.723395464243215 1116400.115096167 4.247842963791752 0.1794588451361603
0.29197792065502487 14.498278205117943 905720.3394650792 4.4945850607962745 0.182269081945286
0.3055151798533412 14.301106479567432 738515.9770823292 4.751858362233664 0.18509399765863543
0.31943440730132744 14.12799171465017 604995.0921727315 5.020342219951294 0.18794014651243343
0.333735395028612 13.975831165757892 497585.79494021536 5.300264678352433 0.19080422942075984
0.3484186280136946 13.841878845255009 410914.49402391695 5.5923498541131735 0.1936924516913955
0.3634835162390831 13.723846040144188 340550.48411826877 5.896770743737743 0.196599981706469
0.3789401786446777 13.61986037287962 283230.14329937164 6.214389147980245 0.19953445193188982
0.39477544666551045 13.528326395509069 236333.28098749922 6.545457628603277 0.20249195401626957
0.41100369804877906 13.447751262867532 197808.2299160321 6.8906883932728284 0.20547636444013903
0.42761516373465136 13.37692386029498 166019.86582750484 7.250782414565666 0.20849067941570618
0.4446126754142316 13.314815111573559 139755.44496973968 7.625991846923848 0.21153033582542488
0.4619960879637493 13.260455038002881 117928.84056314993 8.017279433113748 0.21460170688378982
0.4797664242787164 13.213054059644012 99771.25292012721 8.425344234923681 0.21770633967027403
0.4979268350701198 13.171912278728904 84606.25080537034 8.850618037521604 0.2208415695315342
0.5164702259548167 13.1363083938332 71910.15824187528 9.293992441428903 0.22401106131260995
0.5353915760977186 13.105766562676349 61247.92602371594 9.756344225412263 0.22721761171366797
0.5547020413792298 13.079734361976493 52278.71024568419 10.238475834884891 0.2304624742276158
0.5743888905934509 13.05778389028197 44305.46571550322 10.740868170771147 0.23374247023440017
0.5944457106717206 13.039507147938357 38309.363849778 11.264769635036359 0.23706382530887926
0.6148899373091428 13.024465601070615 32885.74403112531 11.811113584099921 0.24042809336304
0.635698945098426 13.012414420669357 28277.154095459682 12.380879671332314 0.24383690851056314
0.6568735490531297 13.0029881327871 24357.928930911246 12.974739100067094 0.24728801779489512
0.6784105805786589 12.995960057883037 21016.217479476287 13.59405466850844 0.25078660652728296
0.7003040126898032 12.991045262555241 18162.04058616219 14.240007860019425 0.25433511909268935
0.7225426412584753 12.98800072472744 15720.394298707713 14.913789208373146 0.2579355417286362
0.7451344580826058 12.986642010357894 13625.872127178178 15.61640380753243 0.2615875207999978
0.7680593055197833 12.986761046587569 11828.375444549793 16.349167685041152 0.2652934452893858
0.7913100322069305 12.988143336809989 10283.514083939714 17.113674303393704 0.2690577674578248
0.8148874917597986 12.99068077747829 8950.459282277074 17.911379822673926 0.2728829220788748
0.8387759509758637 12.994151456977507 7802.502900910134 18.74361491756118 0.2767696752753911
0.8629607626818389 12.998434077161692 6809.613931343835 19.61179443112593 0.2807191320929539
0.8874478472984106 13.003383786765852 5951.412806106342 20.51797210885611 0.284737351156283
0.9122081285241608 13.008873851758382 5207.560303661675 21.463943553405578 0.2888273487430943
0.937233516503671 13.014780479864076 4562.306459933638 22.451148679739788 0.2929886856366982
0.9625209616148106 13.02098561014216 4001.6092047210705 23.48170306204996 0.2972258785444553
0.9880466275951434 13.027370271576006 3513.9933828089966 24.557987982868912 0.3015446812114605
1.0137948181495668 13.033831394868246 3089.9162089312135 25.681893235691017 0.30594632901286767
1.039762884706434 13.040288246403883 2719.3720214377227 26.855487530237767 0.31043287089318367
1.0659202200455526 13.046611224889556 2396.562615055207 28.081818822457684 0.3150126612101349
1.0922551622905357 13.052740641738152 2113.9729921953904 29.362879349002 0.31968570682015013
1.1187592598444043 13.058579978776764 1866.9116647760293 30.701553707504154 0.3244575680921972
1.145395740671826 13.064030383662914 1650.6857851059585 32.10111166861486 0.3293354175754387
1.1721609579347705 13.069035907774593 1460.9273327449202 33.56363512113029 0.3343178613025514
1.1990228051488758 13.073488115183332 1294.4306434584798 35.09360288261634 0.33941802930977555
1.2259733345679062 13.07735282611196 1148.0853859932536 36.69295801487071 0.3446321863344281
1.2529730755491852 13.080512891470887 1019.2978895429967 38.3668326670403 0.3499752585543579
1.2800196453168209 13.082947484936152 905.9474097838689 40.11755897020947 0.3554443414323842
1.307073369118591 13.084553983012725 806.0856189351357 41.9504384654535 0.36105299544897745
1.3341078647959643 13.085241199017435 717.9250681732389 43.86913857120034 0.36680417296471735
1.3611176493849861 13.085029180044339 640.0507356414134 45.878167253553165 0.37270461265847465
1.3880595594387402 13.083780222112399 571.2488826197769 47.98295326632051 0.378764788191656
1.4149064740660653 13.081447059379872 510.36316939574243 50.18836570483135 0.3849909080722403
1.4416394748430748 13.078003009769045 456.454161770559 52.49941968507112 0.3913888662459516
1.4682361492454024 13.073392965951465 408.64498313652945 54.922640539089244 0.3979709030265052
1.494647485361757 13.067514798920936 366.19262065675605 57.464224535489805 0.40474609017191787
1.5208609880368031 13.060356292282908 328.54014454836584 60.13080662514107 0.41172421040931145
1.546846669031848 13.051860513014228 295.02685706307955 62.92949993760261 0.41891581598906114
1.5725645416501581 13.041963930155992 265.2210885755138 65.86793905998461 0.4263322920217524
1.5979781596502511 13.03061541826286 238.67855846003548 68.95432748235146 0.43398592515776896
1.623087406632843 13.017795480305221 215.02296847032707 72.19748964153808 0.4418899782379067
1.6478293406819973 13.003430248338464 193.8996940662703 75.6069280494057 0.4500587716193917
1.672177429640128 12.987480898436633 175.06881166777185 79.1924179865443 0.45850581753299646
1.6961139353436574 12.969914933023736 158.2061229529512 82.96450563655051 0.46724584651884593
1.7195932839404415 12.950683992800471 143.1403168246739 86.93577599843539 0.47629972169492857
1.74257817757722 12.929734853446583 129.64804033036438 91.11763393142655 0.48568106183803067
1.7650545665821742 12.907056885363916 117.55688240762274 95.52455527883554 0.49541328870798534
1.7708837725675675 12.885472749715541 113.25721275094683 102.2488184984181 2.265935595264373
