M[M_sun], R[km], Lambda[1], P_c[MeV/fm^3], rho_c[fm^-3]
0.24162668629717493 15.618656898711224 2160425.4255784233 3.5677272577965504 0.1711233750220791
0.25364395064220896 15.277276642497444 1723331.889238812 3.7848175728952276 0.17388814771141736
0.26603969987105597 14.981266857368707 1383058.3104748048 4.011397212284536 0.1766666094951297
0.2788145964933783 14.72352806573972 1116440.376986795 4.247722331379075 0.17945744598196242
0.2919694858589273 14.498402230801736 905897.5160219634 4.494418050157693 0.18226722224306421
0.3055043865888129 14.30122405477855 738643.1227812913 4.751639301895256 0.18509163138889767
0.3194203868343227 14.128157528592281 605191.5379867093 5.020069495635912 0.18793731689239943
0.33371757169438904 13.975997383986455 497701.39996284916 5.299931109173835 0.1908008709326227
0.3483988181723911 13.842045073669496 411016.5885992569 5.591954606592131 0.19368862756290056
0.36346092470697916 13.724015676169047 340656.9000881542 5.896304937145688 0.19659560675238125
0.3789144423411486 13.620019248397197 283313.05617767246 6.213847144490049 0.19952950951267392
0.3947464089419078 13.528465617794454 236404.87516090155 6.544839990316857 0.20248653816288611
0.4109712371689129 13.447901728465181 197872.37204023576 6.889983195495658 0.20547035867994387
0.42757858136633536 13.37707023214624 166083.7127155527 7.249983038731836 0.20848406638429537
0.4445730094593512 13.314943948967155 139807.89010774205 7.62510050183849 0.2115232401454124
0.46195426418157 13.260581671029898 117988.63497032471 8.016280569987373 0.21459397986996115
0.4797185989861749 13.213162650758381 99817.28886458653 8.424230063489182 0.2176979626586697
0.4978746358833784 13.172001441293164 84648.06099407292 8.849392665418941 0.2208326973139497
0.5164124664939859 13.136415776559618 71942.06179027121 9.292636036218349 0.22400151213536565
0.5353297972345932 13.105862941117632 61281.69816983433 9.754847588778253 0.2272073649470556
0.5546367296874529 13.079852690017766 52303.70481844534 10.236836850136873 0.2304516065872154
0.5743194793543825 13.057858870699393 44733.096791117314 10.739078711007533 0.2337309813484125
0.5943742541912488 13.039536688496108 38330.92580002785 11.262810426984293 0.23705158414151553
0.6148120900480682 13.024532314685354 32904.82383887053 11.808973051723665 0.24041507535479295
0.6356169289853792 13.012431004719035 28294.64759204033 12.37854551631268 0.24382308780549067
0.6567845407592188 13.003036715412915 24372.326622524593 12.972222041343125 0.24727363131939742
0.6783169052812795 12.995978282495885 21029.82998646199 13.591318959023477 0.2507713748298111
0.7002041148872094 12.991059065704015 18174.212604912755 14.237038828793441 0.2543190119533848
0.7224371085547887 12.988008319936965 15730.912137677871 14.910571241681396 0.2579185271257152
0.7450240796729815 12.986644288940402 13634.637087303086 15.612951689456015 0.2615698758622716
0.7679443745972458 12.986756842509045 11755.39299797738 16.345434660746207 0.26527483709955035
0.7911882973638317 12.988142738647573 10289.611502141584 17.109641634269046 0.2690381579534479
0.8147625781585426 12.990658514095367 8957.110309031348 17.907027527622756 0.27286227075006103
0.8386448022721966 12.99412042330904 7808.228377158936 18.73896230201267 0.27674829891427366
0.8628238393863487 12.998401195570946 6815.155271903946 19.606780991584834 0.28069663995154387
0.8872978332627834 13.003343706056596 5955.791958504597 20.51257371137686 0.2847136945414942
0.9120591264408455 13.008844803469561 5211.7172571065585 21.45813441122279 0.2888024756785196
0.9370782808185899 13.014735573404693 4565.733231265338 22.444952993688364 0.29296295228412933
0.9623560792475137 13.020927811012784 4004.966274769049 23.47504306949172 0.2971988303357997
0.9878803825598848 13.02732863127421 3516.9103807539877 24.550832330042443 0.3015162551997288
1.0136221326248078 13.033789659185642 3092.1856974175685 25.674269623902646 0.3059169080267516
1.0395861367698358 13.040239198770237 2721.6785099986464 26.847302745258936 0.3104019502493641
1.0657359183784565 13.046565822043394 2398.5723869856856 28.073034544417983 0.3149801643459692
1.092067103035806 13.052699895716195 2115.844698625184 29.353526714399997 0.31965204307812983
1.118563858610936 13.05853152840232 1868.764674386597 30.691521037828192 0.32442217719981453
1.1451933273051325 13.063987634432372 1652.2689998239036 32.09043171231133 0.3292987222975131
1.1719568831646472 13.068999812302723 1462.2432475655676 33.55218258336142 0.3342792650694643
1.1988119794962575 13.073457399379699 1295.5440919985328 35.08132369959762 0.3393774253804267
1.225757652564829 13.077323959781875 1144.0616302376525 36.67988782447415 0.3445900239234308
1.252752969928484 13.080493801302211 1020.2989687261073 38.35291660509649 0.3499314332822552
1.2797936891959014 13.08293724343607 906.8034514814436 40.10264248606625 0.3553981948137205
1.3068374853653626 13.084524392008145 806.8378790301116 41.9345554306224 0.3610049786284138
1.33387369565348 13.085234684113988 718.6909033143372 43.85211087910367 0.36675355785773217
1.360880564967645 13.085032877324894 640.6933344417089 45.86003058817727 0.3726518736992413
1.3878112783770487 13.0837762269306 571.8629753913574 47.96363014709985 0.3787097883567154
1.414667681760445 13.081486387958824 510.88098081961516 50.167644208374824 0.38493284415561296
1.4413908832366287 13.078037160697965 456.93499272875937 52.477332711440084 0.39132822369163467
1.4679851499683418 13.07344021098557 409.07077806862503 54.89909027178337 0.397907509942341
1.4943935430146293 13.067579729398771 366.58480249921445 57.439105233866435 0.4046797613761139
1.5206053328649232 13.060434638560777 328.8786742877667 60.10400391485628 0.411654746338914
1.5465879284867567 13.051949200640562 295.3238442181865 62.90089003024364 0.4188430015002441
1.5723039022332688 13.042072431025154 265.4958251351129 65.8373878940062 0.42625589507030776
1.5977281858974577 13.030745666890516 238.9488331431209 68.9216897764691 0.4339056953468238
1.622814575156096 13.017928582183862 215.26107604373814 72.16260785064802 0.44180564521835297
1.647569346157878 13.003590049113665 194.1300642879959 75.56963121186095 0.44997004332674495
1.6719170675414077 12.987659886189627 175.25480881581515 79.15271524515224 0.4584131914915576
1.6958530816149053 12.970116380170095 158.3806563265805 82.92200954827558 0.46714819063175883
1.7193338781941312 12.95090869295803 143.2993220403379 86.89026775905549 0.47619666792321286
1.7423198444651609 12.929970510822612 129.79488399978376 91.06909460018645 0.485573079692707
1.7647991256440816 12.90732897851024 117.69375621158694 95.4725171568125 0.4952991054487188
1.7867268474456435 12.882893352323538 106.83502367912621 100.11426254144584 0.5053925078593229
1.8080663439692202 12.856644312844294 97.09912773447803 105.01082153277208 0.5158788605142016
1.828778438717813 12.828512768846698 88.34357122442955 110.17873086588223 0.5267806945217531
1.8488579560919787 12.798553631945012 80.47653114168907 115.63558629950941 0.5381212648184324
1.8682452139853654 12.766649400087898 73.39005710102441 121.40165313411136 0.5499301241725878
1.8869157653769983 12.73280473921931 67.0172781359344 127.49831794465024 0.5622369496205413
1.9048390097990184 12.696996064580691 61.26426599238555 133.9480471904591 0.5750711431252186
1.9219820087308543 12.65918516998913 56.08238450636097 140.7764450559443 0.5884687365479805
1.9382977894655415 12.619301496970973 51.39931520593859 148.01122258982147 0.6024681324281117
1.9537959783962155 12.57746499746344 47.16819075804254 155.6809233163962 0.617105265073819
1.9684140183070071 12.533543885678187 43.344949317829176 163.81913306953422 0.6324275421787149
1.9821309562365421 12.487550634156865 39.88425640970736 172.4595676856836 0.6484763532902154
1.9949213903224978 12.439482060503916 36.74954365507958 181.64160134142432 0.665305174413541
2.0067611374888896 12.389328495207053 33.90851274919647 191.4071771902159 0.6829682480303078
2.0176098944594436 12.337062525496531 31.330318537568218 201.80231482212298 0.7015247885302394
2.02744901591592 12.282683903759853 28.995050069978298 212.87699840664047 0.7210376172064038
2.036261293680708 12.22622595762571 26.872975000015277 224.6865945104626 0.7415767060648278
2.044009670344815 12.167639139122848 24.945782356602116 237.29235048271556 0.7632195020737133
2.0506720577772364 12.106941801540504 23.190954665129464 250.7610586351254 0.7860484042686651
2.056248019971656 12.044204584842264 21.596453467855657 265.16576077774755 0.8101514329113166
2.060697410496262 11.979363187327793 20.143634322637293 280.58828905728063 0.8356286347714397
2.0640081992908117 11.912472515103806 18.824044502007066 297.1182151627187 0.8625865254963011
2.066170808956588 11.84358371405924 17.620689529438902 314.85594103343925 0.8911457409742458
2.067168201378728 11.77270108792976 16.52594665241698 333.9108794650052 0.9214322446403547
