M[M_sun], R[km], Lambda[1], P_c[MeV/fm^3], rho_c[fm^-3]
0.24162668629717493 15.618656898711224 2160425.4255784233 3.5677272577965504 0.1711233750220791
0.2536451118355902 15.277257507222412 1723112.4213538102 3.78484043282045 0.17388843264935727
0.26604191072908634 14.981234286542973 1382909.0551420029 4.011445268632241 0.17666719022773078
0.2788180976820928 14.72346841682849 1116402.327713488 4.247797210199353 0.17945831446343768
0.2919741824812481 14.49835695328043 905856.5586596542 4.494521716564531 0.1822683765925641
0.30551078561075057 14.301151102547484 738584.9171129327 4.751775276115821 0.18509310016999048
0.319428855390687 14.128057407066798 605022.1332505048 5.020238779536638 0.18793907327820705
0.3337280792987718 13.975900787822388 497637.70461279294 5.300138159850847 0.19080295558938104
0.34841097857039505 13.841893001696672 410949.547254457 5.592199941251804 0.19369100124322214
0.36347510650956266 13.723908210666114 340612.07040414185 5.896594067939858 0.1965983223299867
0.37892963069666913 13.619946369293876 283253.1772210246 6.214183570663267 0.1995325773142902
0.39476557568068904 13.528362293220962 236370.2488278236 6.54522336282351 0.20248989982185858
0.4109912678503777 13.447788959848154 197839.1392815849 6.890420915790997 0.20547408648966117
0.42760060690565 13.376988234497391 166042.58488569225 7.25047921474315 0.20848817112127796
0.4445977390687748 13.314882176273452 139778.06756338017 7.6256537624181675 0.21152764445537203
0.46197968708167947 13.260494667828638 117951.9990116943 8.01690056593464 0.21459877603985844
0.47974871566453525 13.213109758924144 99789.31718261876 8.424921629929239 0.21770316227150677
0.49790680433479184 13.171935230833267 84622.81311729898 8.850153252629777 0.22083820429033005
0.5164477829041783 13.136373543726991 71922.23543195534 9.293477953672081 0.22400743928672734
0.535368879927355 13.105795557168465 61257.721809539275 9.755776545479083 0.22721372507635493
0.5546773283019774 13.07977221413726 52290.39882538273 10.23785733573456 0.23045839291465567
0.5743625312461726 13.05782536015976 44717.498053572584 10.740189417351791 0.23373811242719642
0.5944218672111317 13.039490367712084 38317.47760930784 11.264026492350606 0.23705918213993055
0.614861413008516 13.02447181369701 32892.14863959241 11.810301660794169 0.2404231555146769
0.635667784032202 13.012422494421306 28284.056619575564 12.379994302035438 0.24383166617325933
0.6568404142854551 13.002997246940149 24362.673093195834 12.973784350615508 0.24728256083854327
0.6783745389341781 12.995969952966925 21021.153468262703 13.59301697859897 0.2507808289478808
0.7002657658550494 12.991055250027907 18166.04767925727 14.23888166414549 0.2543290094251093
0.7225023199087799 12.988002402873406 15723.769315952244 14.912568583367818 0.257929087824115
0.7450932012586635 12.986648887817637 13629.642674201878 15.615094361381193 0.26158082777986263
0.768015930495887 12.986762457545515 11832.50548437811 16.347751681401867 0.26528638686638994
0.7912642689356774 12.98813472154934 10286.545755405088 17.112144633568807 0.26905032919145594
0.8148412139949214 12.990679133063617 8952.927216235526 17.90972890658181 0.27287508860006393
0.8387260824773979 12.994143823646043 7804.963495710156 18.74185007846681 0.27676156675290475
0.8629093252162022 12.99842536380821 6811.512779574462 19.609892716705065 0.28071060029969597
0.8873932009898521 13.003369437793632 5952.987833694112 20.515924363478764 0.28472837761853154
0.9121528495403645 13.008862661931449 5209.181329004284 21.4617399943713 0.28881791374143156
0.937174411036548 13.014763709813144 4563.36113777098 22.44879848757316 0.29297892427643457
0.9624617567194149 13.020964960976203 4002.9476653635834 23.479176736471842 0.29721561838563815
0.9879845047365562 13.027349788274366 3515.077056694241 24.55527362907949 0.30153389837241934
1.01372878655205 13.03381167854531 3090.5019859022727 25.679001362315997 0.3059351687165701
1.0396956340036023 13.040269258248983 2720.242539167738 26.852382774676226 0.3104211416857441
1.0658498166970818 13.046596827774854 2397.1010971631763 28.078486646953632 0.31500033404400446
1.0921842039166363 13.052725485496792 2114.6826878951574 29.359331565566585 0.31967293697813276
1.1186853399566183 13.058558180735487 1867.5558007974294 30.69774794807014 0.3244441430291867
1.1453183282151356 13.064016312628187 1651.3375215606948 32.09706035686401 0.3293214976673009
1.1720850864095265 13.06902047556223 1461.3711807488503 33.559290722777384 0.33430322023217596
1.1989426264071252 13.073485693490039 1294.7844282953295 35.0889448865088 0.33940262657943354
1.2258909355967624 13.077349297306501 1148.4890807904005 36.68799994110254 0.3446161923559453
1.2528894727457212 13.080507337129353 1019.687803813758 38.361554388881636 0.34995863776244657
1.2799339645512295 13.082940549885706 906.280222383807 40.11190047714484 0.3554268359452226
1.3069866902847311 13.084549808087576 806.399388985512 41.944413295627065 0.3610347804477829
1.3340190234955127 13.085240236809993 718.1873598615931 43.86267915231511 0.36678497223122497
1.3610286890386691 13.085032424602957 640.306204366471 45.87128712363626 0.37268460617527127
1.3879615042544198 13.083768685040795 571.503749699072 47.97562302961561 0.378743923971742
1.4148126783793915 13.081459852325864 510.5847604551793 50.18050495775103 0.384968881392649
1.4415450268198673 13.078015021238775 456.63493771863295 52.491040909707195 0.3913658612680581
1.468139163858375 13.073414618641285 408.78649329306654 54.91370662368494 0.3979468545329664
1.4945517292829125 13.067538079022329 366.3392769884776 57.45469536162311 0.4047209279027966
1.5207640613246303 13.060387714216386 328.6788752482882 60.12063879847255 0.41169785864786695
1.546748243386088 13.051891959692613 295.133743240257 62.91864649175237 0.4188881931064851
1.572465442857074 13.042004279028458 265.32160527127627 65.85634913054363 0.42630330997643945
1.5978799162901565 13.03066229825415 238.78967102947186 68.94194594766978 0.4339554889441974
1.6229768932960529 13.017840718947024 215.1179496268011 72.18425672652258 0.4418579852796245
1.6477301890611442 13.003491900837783 193.97920301267254 75.59277888808478 0.4500251110999205
1.6720773565899985 12.987550101312069 175.1403940913885 79.17735604908196 0.4584706782052166
1.6960152271222488 12.96998794481723 158.27476281940994 82.94838391789581 0.4672087988563315
1.7194939120810884 12.950769035044678 143.19859458760055 86.9185114786055 0.47626062605181924
1.7424766487965238 12.929817502395629 129.70672097544505 91.0992194253036 0.4856400963400432
1.7649586263660961 12.907158234964452 117.60941448085741 95.50481332654117 0.4953699704564878
1.7868841240705957 12.882717690752408 106.7625342703094 100.14875817808748 0.5054669479466447
1.8082207267148087 12.856445760533747 97.02954196596362 105.04769553407895 0.5159571625332677
1.8289337125886358 12.828309780065547 88.2814114618018 110.21817836719661 0.52686316875366
1.8490067408869975 12.79831672185916 80.4200357107855 115.67798151389457 0.5382088387018883
1.8644047824181673 12.768224321623892 74.47008323111837 121.94965557511881 1.1112965752799757
