M[M_sun], R[km], Lambda[1], P_c[MeV/fm^3], rho_c[fm^-3]
0.24162668629717493 15.618656898711224 2160425.4255784233 3.5677272577965504 0.1711233750220791
0.25364191813506204 15.277347592379256 1723156.3628222474 3.784800865965464 0.17388793946759754
0.26603834453672814 14.981278080614807 1382972.5394746386 4.011362091081648 0.1766661850761199
0.27881096659053034 14.72362759978533 1116523.0681557606 4.247667607798836 0.17945681127089833
0.2919648908759799 14.498502498354776 905931.6864798086 4.494342288316015 0.18226637861737374
0.30549896854447844 14.301316377627728 738724.6017250898 4.751539929448997 0.18509055797682292
0.31941379220470967 14.128236115869727 605173.3137663458 5.019945780694547 0.18793603330213318
0.3337101782428521 13.976029569738989 497733.318490799 5.299779794810959 0.19079934744806448
0.34838983886030306 13.842116574944503 411069.87183329207 5.591775315128945 0.19368689286867286
0.3634511161630674 13.724061952260817 340701.03523203667 5.896093640732754 0.1965936222117559
0.37890327156873893 13.620072911631121 283355.30414093606 6.213601286320635 0.19952726758220138
0.39473368238959405 13.52851671625993 236442.37773154472 6.544559825769729 0.20248408149829156
0.41095591477837234 13.44795284085528 197903.2606024661 6.889663316262282 0.20546763445416033
0.4275628701536602 13.37712142421398 166116.11570122442 7.249620443329089 0.2084810667254537
0.4445553884580016 13.314999545091851 139828.97389305706 7.624696192548121 0.21152002158349106
0.46193532456672554 13.26062512511991 118011.74067907936 8.015827495030575 0.21459047496887496
0.4796972538702346 13.213220484363463 99843.20596630326 8.42372469013113 0.21769416295751615
0.49785140982435455 13.17205104414418 84665.46645338919 8.848836857135844 0.22082867302450146
0.5163873209655628 13.136464547509162 71957.15120809784 9.292020798755836 0.22399718082527395
0.5353038319504215 13.105888821620008 61292.73462757272 9.754168751000847 0.2272027172643017
0.5546064339978517 13.079875635319459 52313.8863757232 10.236089987468219 0.23044663277319422
0.574288577475887 13.05787602931196 44744.80707273192 10.738267068606914 0.2337257703527852
0.5943422643514035 13.03955921091427 38340.25630187762 11.261921799589429 0.23704603198147156
0.6147764173153439 13.024554461977269 32912.304749979034 11.808002190182606 0.2404091708967766
0.6355751684180161 13.012451774327733 28071.8920051667 12.377486844010736 0.24381681932823424
0.6567447320742471 13.003034600901538 24379.32853993824 12.971080419842469 0.24726710627904358
0.6782737354020356 12.996005729904468 21035.70798672529 13.590078178000185 0.25076446649349854
0.7001590749561056 12.99106612092438 18179.057297684525 14.235692235945324 0.2543117066214633
0.7223897147149279 12.98800173769432 15734.672572096262 14.909111757306782 0.25791081028166984
0.7449758409797502 12.986640693461775 13639.60813051618 15.611386018335104 0.2615618731900522
0.7678920764288975 12.986762603647493 11840.313566750778 16.34374160178944 0.2652663976252847
0.7911329089311566 12.98813218380425 10292.867498915828 17.107812691101078 0.2690292644221542
0.8147068550884589 12.990652982458176 8960.515857018798 17.90505364059972 0.2728529047972764
0.838583526888782 12.994126609305058 7810.397025369602 18.736852225805254 0.2767386042058833
0.8627622182298763 12.998392149634778 6817.504975136035 19.604507292023207 0.2806864392955581
0.887232263614349 13.003338515244193 5957.717110169197 20.510125446186375 0.28470296586382
0.9119914182147237 13.008821581049865 5213.590725923776 21.455499888869365 0.2887911954167256
0.9370078472673815 13.014718558181004 4567.333556237298 22.442143188120546 0.2929512819514613
0.9622833447658792 13.020917712112878 4006.462057291687 23.472022722405132 0.2971865638088485
0.9878050648705639 13.027311570100267 3518.216717692759 24.54758722629647 0.30150336394306915
1.0135445251321538 13.03376274254892 3093.6243949506666 25.67081232416852 0.3059035656412393
1.0395045484866803 13.04022181678251 2722.80318011297 26.84359098689892 0.31038792789465464
1.0656555363967193 13.046555742534512 2399.368063689765 28.069050954551887 0.3149654273148569
1.0919813546577575 13.05268140210962 2116.9013092478535 29.349285410686797 0.31963677698893606
1.1184763872566104 13.058514525704632 1869.541411644433 30.686971387985558 0.32440612801518465
1.1451051664357161 13.063972837388533 1653.016863705122 32.08558856443084 0.32928208171842666
1.1718655334537191 13.068984975040284 1462.9358133623746 33.546989133311136 0.33426176260732776
1.1987165259260635 13.07344613975026 1296.106947109195 35.075755438119586 0.3393590126492779
1.2256595759029583 13.077316072161643 1149.6132096537176 36.673960908994204 0.34457090461155926
1.2526521822655747 13.080479527104442 1020.74738589435 38.34656285029295 0.3499113059799191
1.2796910176549872 13.082930428235889 907.211313215984 40.09587845356612 0.35537726915688234
1.306731910196697 13.084514912177845 807.198613393302 41.927353163573095 0.36098320508398507
1.3337675258084323 13.08522915218449 718.9565123621531 43.84438963695076 0.3667306063329213
1.3607724859061645 13.085039400140301 640.99189635545 45.85180654802644 0.3726279593076341
1.3877021657068864 13.08378658752784 572.1402770854372 47.95486818549704 0.3786848489855711
1.4145570210526375 13.081498239531767 511.1291959442531 50.158248258731 0.38490651566925593
1.4412781188069188 13.078053776724884 457.1243453037279 52.46731768809001 0.39130072618982037
1.4678710924273277 13.07346164935754 409.2561999070714 54.88841183439888 0.397878765509377
1.4942782294972519 13.067603497207427 366.75384041074216 57.42771545074439 0.4046496860734529
1.5204884849496338 13.060468806042163 329.0322130067063 60.091850941398 0.4116232497105927
1.5464715790339094 13.051992557174744 295.484095092546 62.887917755354664 0.4188099860293101
1.5721879263950382 13.042119665557122 265.6248768768582 65.82353555084478 0.4262212555809788
1.5976095072587306 13.030802761413545 239.06852672725176 68.9068915135365 0.43386931834650166
1.6226895940642734 13.017964877765971 215.37689646592142 72.14679225872095 0.4417674081729145
1.6474478507704697 13.003668401000999 194.21882050001918 75.55272080171056 0.4499298138617454
1.6717971704040593 12.987745234212252 175.33970260048508 79.13471415739629 0.4583711951597688
1.6957352014302285 12.970207951363093 158.4608012811022 82.90274217824519 0.4671039142715447
1.7191987673170568 12.950972988301633 143.3803528988433 86.86963493729183 0.4761499447334597
1.7422035722108846 12.930086991482735 129.8669638893884 91.04708773791234 0.48552412252458194
1.7646846406302428 12.907451327747964 117.75480774597273 95.44892428494695 0.4952473374198135
1.7866126055308127 12.883031730525525 106.88728508182068 100.0890631179597 0.5053381285966858
1.8079534340770282 12.856789097149854 97.1471525393193 104.98388490368819 0.5158216605258806
1.828666102739917 12.828673807114802 88.38709760185891 110.14987274910015 0.5267202917420662
1.8487485773275918 12.798722604840192 80.51512808572485 115.60461695439352 0.5380572928381223
1.8681388377047758 12.766834856861735 73.42952701626665 121.36847444869265 0.5498625845277071
1.886811635483698 12.73300360351628 67.05130908988524 127.46274366854735 0.5621655523322548
1.9047385840925384 12.697206167609496 61.29808410509602 133.91000426515572 0.5749960345784462
1.9218843747065104 12.659413409787222 56.11053358652603 140.73558432387355 0.5883891243033555
1.9382030474918481 12.619541104125954 51.4241219052752 147.9672993964779 0.6023836439804002
1.95370643927678 12.57773036690683 47.195892470502926 155.63381359313198 0.6170159874324835
1.968327658022127 12.533816689698677 43.36645433704525 163.7685237053477 0.6323329614958569
1.9820520773240218 12.487842390063765 39.90419982265733 172.40504837560786 0.6483756893451785
1.9948466340466307 12.43978560230666 36.76860121191093 181.58294680327586 0.6651983343590123
2.0066844184874166 12.389636980994474 33.927191609011 191.34400659343314 0.682854685490854
2.0175451323345697 12.337400716642842 31.348267154924393 201.73420807026318 0.7014039057638654
2.0273889677205816 12.283040952870262 29.009617333945243 212.80366329309845 0.7209093218127625
2.03620780311316 12.226598779214681 26.886592962326468 224.6073523823074 0.741439734159824
2.0439615641053983 12.168030554555127 24.95689291578875 237.20681535109324 0.7630736568169062
2.050631108246614 12.107352286187227 23.2010646125233 250.66846051807792 0.7858923574630725
2.0562078095159713 12.04461074875418 21.605727558935058 265.06552820909457 0.8099846400936886
2.0606726953303465 11.979809558442183 20.154926834144323 280.4798889747272 0.8354508334061538
2.0639945319349318 11.912954078394522 18.83319950187636 297.0006099743885 0.8623959840185774
2.0661598464361117 11.84406817633141 17.62873359786286 314.7281865524825 0.8909412311776065
2.0671643011158305 11.773205141717066 16.53270271287426 333.7721332366746 0.921213106055677
