M[M_sun], R[km], Lambda[1], P_c[MeV/fm^3], rho_c[fm^-3]
0.24162668629717493 15.618656898711224 2160425.4255784233 3.5677272577965504 0.1711233750220791
0.2536405895235005 15.277372148939566 1723154.7263286074 3.7847751327036385 0.17388761871490302
0.2660343220293299 14.981408921305158 1383146.2086764537 4.011307995210495 0.1766655313594422
0.2788070877026764 14.72366807931649 1116610.5100691551 4.247583319768924 0.1794558336567707
0.2919587738372431 14.498571738288183 906058.4414101626 4.494225596964147 0.18226507923208804
0.3054905249502565 14.301435292486037 738811.7422631374 4.751386873282682 0.18508890467811462
0.31940550323333095 14.128306188101744 605239.1340022439 5.019755232917927 0.18793405629540605
0.3336979753057686 13.976197739060444 497820.44737444253 5.299546739679032 0.19079700096959437
0.34837513531588554 13.842254235876995 411142.43288624834 5.591499171434338 0.19368422110246303
0.3634348545058504 13.724194275774586 340761.2577610459 5.895768205550119 0.19659056565565114
0.37888432043637793 13.620204684599248 283412.201009104 6.2132226224204565 0.19952381462337276
0.3947122150092571 13.528648035272898 236503.1665920408 6.544128326972304 0.20248029783676447
0.41093307298371157 13.448082376058045 197956.42316242712 6.88917065388076 0.20546343873458156
0.42753626700767916 13.37724015300922 166157.71157474394 7.24906199549577 0.20847644682964656
0.44452789788190145 13.315081199346148 139869.65608052703 7.624073503371563 0.21151506457725783
0.461903545868815 13.260726628830154 118038.90150583905 8.01512970515266 0.21458507700003038
0.4796631893004555 13.213320675894952 99868.6258657449 8.42294635976228 0.2176883110012283
0.4978151128530618 13.172123361774414 84692.51146730958 8.847980856606322 0.22082247521492684
0.5163482971586559 13.136525456231228 71981.5686219123 9.29107327773079 0.22399051021818658
0.5352601185240579 13.105979206063841 61315.49538964921 9.753123286814887 0.22719555946308817
0.5545621304169311 13.079942565422789 52337.05421486893 10.234939767266745 0.23043897275535477
0.5742336700275404 13.057978137898749 44757.80833432699 10.737017090345777 0.2337177451051539
0.5942894679439845 13.039601303192212 38354.30260570722 11.260553268905987 0.23703748137699607
0.614721730288278 13.024569935110081 32926.418453759696 11.806507024741023 0.24040007779626332
0.6355165590937919 13.012480841946887 28316.233074289237 12.375856457336297 0.24380716568775535
0.656683117889383 13.003055839588692 24389.610112203238 12.969322298777602 0.24725705757998828
0.678208043557531 12.996011630198472 21044.987121463695 13.588167361832202 0.2507538275810135
0.7000901704176087 12.991071890508582 18187.368504471153 14.233618482157308 0.2543004564059537
0.7223163204650226 12.988008577693654 15742.844418073246 14.906864165404636 0.257898926416047
0.7448981448421946 12.986644223060388 13645.869519395474 15.608974913093357 0.2615495492194057
0.7678117191227037 12.986750708025426 11846.579443851404 16.341134338873566 0.2652534010735732
0.7910488729559784 12.988123511968752 10298.450790565495 17.10499618907894 0.2690155687265681
0.814616330754418 12.99063864524085 8964.744895253421 17.90201395091778 0.27283848168708386
0.8384927822154342 12.994104383642634 7814.486297744772 18.73482620564187 0.2767259668032305
0.8618770325798609 12.99768423019088 6848.72393717671 19.612290395004802 0.32791696105777346
0.8827944829605208 12.997866702995577 6085.803087653348 20.570714186961375 0.3938965185667943
0.9016497639518545 12.99331514885881 5462.953098703994 21.610679552054588 0.4579413865237963
0.9188815849356113 12.98383142012776 4938.430684782289 22.734882534254805 0.5192821117623783
0.934835634035452 12.969493620271585 4485.626533008925 23.9444514207564 0.5782405021564825
0.9497860292875452 12.950516682933765 4088.0793945037185 25.24162786218367 0.6351830893963506
0.9639654523831435 12.927159849998233 3733.3521375247615 26.628477244046096 0.6901726306243751
0.9775718442477465 12.899769689226341 3413.3420732856107 28.10612381109887 0.7431561724769888
0.9907626657426108 12.868620088777446 3121.8508035193386 29.67766291079273 0.7945733283593186
1.0036789091238367 12.834088769431988 2855.0595877898722 31.346047222430332 0.8446399397829891
1.0164185952414064 12.796408663986517 2609.5258424925883 33.11434844423159 0.8935268522396991
1.029081664897074 12.755911002582986 2382.481843318109 34.98604172678313 0.9413942424840844
1.0417517957350038 12.712855621901555 2173.1916117973333 36.96468163073462 0.988294946723463
1.0544767688267125 12.667485690516862 1979.5508174266172 39.05279762208455 1.0339481902118997
1.067320035868282 12.620110165258481 1800.4735077221953 41.25670541440631 1.079555423336945
1.0803265803853426 12.570988733482363 1635.4370362107272 43.58230928680586 1.1253943688984172
1.093492721123053 12.5202389330482 1483.4568051139229 46.03223358258607 1.1714622884234116
1.1068510010554502 12.468147831530485 1343.614777133301 48.61565931291843 1.2180729376012478
1.1204130622241626 12.414994576519678 1215.7013362880998 51.33659476952995 1.2652798347916971
1.134169921143358 12.360756350123722 1098.608629777388 54.20490284211825 1.31337126381727
1.148112976442193 12.305679225463573 991.7049262869265 57.22568193843534 1.362447201843562
1.1622374505217574 12.249825697102837 894.4484896144844 60.408045470176305 1.4127679547571728
1.1765183288263872 12.193295307778701 806.108058752178 63.76164786712166 1.464622888106878
1.1909378197195204 12.13622419993333 726.1156470196858 67.29602486609632 1.5183439666624723
1.2054652534340176 12.07867159313402 653.6567576339331 71.02183112842552 1.5743865628844729
1.2200826298689094 12.020768432184358 588.2650101761669 74.95097080449064 1.6334065174247892
1.2347329190586809 11.96235818113161 529.2847168895598 79.09478904482289 1.6964150379767295
1.249382026225826 11.903680174447395 476.3147399183692 83.46865398082181 1.7651761452729822
1.263965763031782 11.844654724593573 428.8158685583781 88.08994038331909 1.842957100193071
1.2784083250281437 11.785277088208712 386.1804924718455 92.97629531459837 1.9371211860994995
1.292592428752984 11.725635606110226 348.24294402058064 98.15533034807991 2.0561102343746436
1.3065911540902944 11.66520864147275 314.069339297086 103.6308303903972 2.1012493627594906
1.3205857335799047 11.603929842397083 283.14124802019387 109.39925812872136 2.1444073867458133
1.3345685858007532 11.542128589992796 255.19604148404343 115.47997195386715 2.1895208971451003
1.3485175816825867 11.479931506845526 229.99949680231373 121.89471659913276 2.2367368318409224
1.3623663172393796 11.417379912192265 207.31735301081412 128.66749905004343 2.2862126823754787
1.3760758557749615 11.354561464416964 186.91872010777485 135.8221326989227 2.338092818282721
1.3895929363263388 11.291576524859048 168.65598871153048 143.38766845475578 2.392551642028892
1.4028396856744783 11.22818114041615 152.2612062343902 151.39166104996633 2.449729293885953
1.4157896373403915 11.16457994357461 137.5975610454986 159.8682501909687 2.509815504416659
1.4283782105321212 11.100644810667118 124.46983095110141 168.85251993199287 2.5729950202173564
1.4405510044200478 11.036336189415417 112.72475198644109 178.3822580081535 2.639462455549047
1.4522444978065885 10.97159003877775 102.22643827274567 188.49940811543675 2.709434497676252
1.4634359252095632 10.90633551551061 92.82507730079377 199.25041400665924 2.783151277905894
1.4740520919670377 10.840623830089868 84.42586323936212 210.68519107719894 2.8608638474044708
1.4840631432431537 10.774229780581525 76.89749728563838 222.85816688675422 2.9428413647377374
1.4934200705327532 10.707283878469823 70.1664994465899 235.82985697885906 3.029383730976986
1.5020833020744695 10.639553116749566 64.12422541990863 249.66657810837052 3.1208151170549487
1.5100125252267695 10.571082769788285 58.70960467129984 264.44037438424067 3.2174787033835592
1.5171674424964374 10.501856834429798 53.859052049522745 280.2311212714144 3.3197532134808467
1.5235194079613041 10.43177030389723 49.49685980398166 297.1266194724996 3.4280482403323944
1.5290373140820306 10.360843629057255 45.581301321607505 315.22443119612564 3.542817067886004
1.5336906568846418 10.288934391476701 42.06117914815513 334.6314871434304 3.6645445718670664
1.537465177784768 10.216106266210618 38.890707568879 355.46665959860246 3.7937659761077587
1.540326059931787 10.142396693384708 36.03869603402862 377.8613418062699 3.9310626523970864
1.5422671533865906 10.067730007686787 33.47229043829076 401.9607022349022 4.077063313593427
1.5432477688607125 9.992103780973984 31.156599170575728 427.92723730392106 4.232469916861818
1.543279162587184 9.915557184936777 29.068404270666594 455.9404858766983 4.398037149242321
