M[M_sun], R[km], Lambda[1], P_c[MeV/fm^3], rho_c[fm^-3]
0.24162668629717493 15.618656898711224 2160425.4255784233 3.5677272577965504 0.1711233750220791
0.25364485347867843 15.277248631991622 1723268.8108836652 3.784836659836288 0.17388838562092984
0.2660410367034771 14.981247265517787 1382991.8105526594 4.011437337001427 0.17666709437865333
0.2788177987238315 14.723474578591773 1116362.0229574286 4.247784851515464 0.1794581711213287
0.2919732433423084 14.498345241980989 888624.3169884258 4.494504606456999 0.18226818606754566
0.3055098395464608 14.301145197705074 738597.0557532347 4.751752833537229 0.18509285774730938
0.3194284229616367 14.128050172694948 605044.7237028282 5.0202108390969205 0.18793878338536096
0.33372478436708813 13.97592833382649 497657.857350054 5.300103985861489 0.1908026115140131
0.3484090955954931 13.84195914994614 410964.4360336388 5.592159448314553 0.19369060946291503
0.3634733037169767 13.723913294188606 340619.62398426427 5.896546346214744 0.19659787411744542
0.3789276820876391 13.619940082270755 283272.1711506593 6.2141280425440675 0.1995320709647033
0.39476045740416243 13.52840757741453 236372.13336709669 6.545160085888692 0.20248934496862317
0.41098786438117096 13.447831696155964 197840.09761065914 6.890348668340296 0.20547347120005355
0.4275966753542597 13.377011300994383 166061.1497553384 7.250397318689647 0.20848749361621546
0.44459332990690764 13.314879544639325 139778.24335923282 7.625562444045925 0.21152691750241145
0.4619768752352976 13.260513971671344 117961.07797410396 8.01679823224597 0.21459798440604336
0.4797426291258 13.213132124021705 99793.63441714043 8.42480748279146 0.21770230404460544
0.4979016845948868 13.171944765985307 83751.28680828406 8.85002771286504 0.22083729532879434
0.5164418553973372 13.136363578173311 71925.74925277846 9.293338989410165 0.22400646096966004
0.5353624900010969 13.105806101765785 61263.293391543906 9.7556232143266 0.22721267529012212
0.5546702427421573 13.0797751814468 52292.977438654845 10.237690204309851 0.23045728959311287
0.5743554527972733 13.057809653156923 44317.21739600208 10.740006086050881 0.23373693538345564
0.5944137607629878 13.03952072448135 38320.699479073424 11.263825770067456 0.23705792802347309
0.6148532894316312 13.0244765594919 32894.30275098654 11.810082361526865 0.24042182180923896
0.635659084087699 13.012416905097298 28284.288806921224 12.379755165780585 0.24383025022974972
0.656831420492002 13.00301345057245 24365.17364329438 12.973526475539842 0.2472810869303574
0.6783647919597805 12.995973592272644 21022.642604019107 13.592736702319963 0.2507792684446498
0.7002555451487781 12.991051353373377 18167.826883882622 14.23857748356882 0.25432735923063526
0.7224918324500512 12.987992054223161 15724.862949978855 14.9122388988101 0.25792734465758277
0.7450816894176018 12.986652754970486 13630.438708500218 15.614740687498523 0.2615790200335756
0.7680052007512402 12.986757927895436 11833.53187573382 16.347369228014397 0.26528448043217606
0.7912513947677597 12.98814829976205 10287.160294283904 17.111731480831857 0.26904832016960145
0.8148287090374456 12.990672055194414 8953.853386860046 17.909283007351263 0.27287297284009826
0.8387125953118677 12.994138168782388 7805.551050692635 18.741373410632153 0.27675937671083906
0.8628952516393988 12.998406043668295 6811.992937509711 19.609379081465033 0.2807082959423068
0.8873783395565628 13.003364366228903 5953.614000099868 20.515371288206286 0.2847259539569319
0.9121362590143473 13.008862553119334 5209.520849379196 21.461144837097944 0.2888153654503368
0.9371591093926892 13.014749861784717 4563.679845497141 22.44816372775015 0.2929762878455072
0.9624444940360138 13.020959895251973 4003.2293529022113 23.478494406999868 0.2972128472429126
0.9879652672756779 13.0273511167118 3515.2511105073504 24.55454051761743 0.30153098606860496
1.0137115352271924 13.033813237844944 3090.8056892889285 25.678220306961865 0.3059321544735357
1.039676237790022 13.040263760937432 2720.4618784665627 26.851544225218618 0.31041797379689046
1.0658306155437125 13.04659548812053 2397.3704522275743 28.077586677328828 0.3149970046650255
1.092165152808454 13.052722733620788 2114.9192533822793 29.358373365834012 0.3196694880474331
1.1186653493259837 13.058552208617611 1867.6634041882862 30.696720076229184 0.32444051714466327
1.1452984686834757 13.064014124484368 1651.5033844911795 32.095966168134176 0.32931773814259846
1.1720617963488964 13.0690235517537 1461.4460967723392 33.558117380068495 0.3342992659462703
1.1989211878178834 13.073479565098273 1294.9579959066473 35.087686850684555 0.339398466596017
1.2258696895524637 13.077345610656897 1148.6031949929143 36.68666086343239 0.34461187269866617
1.2528670442694214 13.080496265534956 1019.7750563298697 38.360128834011675 0.3499541488268241
1.279911525160039 13.082944406233091 906.3292564744067 40.11037223894415 0.3554221080867811
1.3069566913616109 13.08452031181201 806.5144046556169 41.94278603018462 0.36102986097782075
1.3339954334438164 13.085235889482886 718.316667419084 43.86093461157027 0.3667797865539213
1.361005499780819 13.085030719300596 640.3700889103341 45.86942896360954 0.37267920289832557
1.387937019635442 13.08376604547039 571.5726333299685 47.97364331195714 0.3787382890562192
1.4147878101367755 13.081460158604783 510.6195805371281 50.17838196958261 0.38496293254584296
1.4415194642754334 13.078018689242732 456.69436311370964 52.48877802183589 0.39135964822579433
1.4681152610800141 13.073414162038715 408.85047762876997 54.91129381418324 0.39794035968372216
1.4945260063607697 13.067543390323497 366.3792965692838 57.4521217966701 0.4047141322734111
1.5207381658863626 13.060394693362516 328.71930672487883 60.11789275965295 0.41169074179170384
1.54672420090814 13.051899032851672 295.16724072971766 62.91571529609932 0.4188807329805077
1.5724386490811186 13.042017019018976 265.35185075618296 65.85321904251862 0.4262954828060122
1.5978522976718854 13.030676509436589 238.81157816290292 68.93860208217325 0.4339472690742844
1.622950070372656 13.017855789479551 215.14449589558626 72.18068294191579 0.441849345010893
1.647701878932129 13.003509826463358 194.0062471917637 75.58895766808084 0.4500160205080876
1.67205122875717 12.987568966490043 175.1531921445971 79.17328833050279 0.45846118826430904
1.6959884213334373 12.970008209830235 158.2975635129313 82.94403000420732 0.467198793575356
1.7194681754761052 12.95079154147282 143.21621646170132 86.91384895159383 0.47625006772214473
1.742450229820268 12.92984765972623 129.72352313982756 91.0942463444302 0.48562903306562516
1.7649315934104852 12.907187233161135 117.63011190525789 95.49948177220304 0.4953582718357917
1.7868579479960838 12.882748431677802 106.7786276796393 100.14306350757319 0.5054546590947312
1.8081951792399864 12.856477757008419 97.0432299301252 105.04160821070369 0.5159442360893208
1.8289088386743133 12.828345488781974 88.29074903410277 110.21166617318299 0.5268495534882717
1.8489802233986294 12.798356938215127 80.42303338221292 115.67098266363735 0.5381943814923744
1.8683565079397355 12.766410213333385 73.35483751555219 121.439574960962 0.5500073191152566
1.887031731861502 12.732582042615217 66.97403613326499 127.53888367301057 0.5623182168016118
1.9049543784708214 12.696755115156037 61.23066709286221 133.99152931507385 0.5751569903402879
1.922093403004886 12.658927095565117 56.048771260365314 140.8231482726163 0.5885597321743933
1.9384049596670996 12.619028796821302 51.36978215167955 148.0614266080043 0.602564702354892
1.9538985500548622 12.577174016295084 47.1431288542145 155.73476997272527 0.6172073098776889
1.9685114937285 12.533234984908058 43.32216980526414 163.8769487046235 0.632535542265543
1.9822227892926325 12.487223355082937 39.86223241768207 172.5218846976809 0.6485914148392672
1.995007971286054 12.439128969401681 36.72868509523691 181.7086456539632 0.6654272965584527
2.006842134209146 12.388960644533892 33.88881144313745 191.47938422484046 0.6830980554824455
2.0176853518021214 12.336675321840785 31.31406382355448 201.88016490243174 0.7016629647435102
2.027518150334974 12.282281607993225 28.979516018582252 212.96082561798178 0.7211842678974226
2.0363230090960798 12.225799683539112 26.858003308886047 224.77717483738135 0.7417332763163186
2.0440636468304985 12.167194243294324 24.93170733181759 237.3901252517644 0.7633862170366849
2.050718862835291 12.106472988381727 23.17799926628207 250.86673432092675 0.7862262161970053
2.0562870408545564 12.043712993163656 21.58557577583546 265.28032162813565 0.8103420415469954
2.0607275774251264 11.978854205479111 20.134206968602648 280.7122048350466 0.8358318854881205
2.064028356530088 11.911942626430996 18.813951560433676 297.2526552502366 0.8628043425272048
2.0661844908509504 11.843027948986505 17.61172943910758 315.001985116303 0.8913795288262503
2.067171655368997 11.772123342726834 16.517134644483534 334.06949088342776 0.9216827587059624
