M[M_sun], R[km], Lambda[1], P_c[MeV/fm^3], rho_c[fm^-3]
0.24162668629717493 15.618656898711224 2160425.4255784233 3.5677272577965504 0.1711233750220791
0.25364491903343245 15.2772978107413 1723031.686944502 3.784850088870356 0.1738885530073611
0.2660426992456383 14.981201001958143 1382891.3056482235 4.011465567794028 0.17666743553112124
0.27881984498600465 14.72343447643261 1116350.3238438717 4.247828839449354 0.17945868131507342
0.29197737826257303 14.498274133477194 905778.6109730927 4.494565506110052 0.18226886419931648
0.30551355802857766 14.30113441756339 738603.2934821845 4.7518327130825675 0.18509372059885143
0.3194322970076679 14.128007442677832 604994.9170991464 5.020310287262327 0.1879398151984605
0.3337322166649119 13.975820763169777 497524.771245746 5.300225621251027 0.19080383618055613
0.3484162880607442 13.841900805282148 410924.6513999226 5.592303574944909 0.19369200392771158
0.3634822498010998 13.723830422068357 340637.81991395983 5.896716202570543 0.19659946944428452
0.3789359316939057 13.619906513764533 283234.14507848927 6.214325684589864 0.19953387322218444
0.39477234569932296 13.528326761335718 236356.96646582813 6.545385308743098 0.20249131986879515
0.4109998279916494 13.447772589460035 197815.26865104647 6.890605820542463 0.20547566121611693
0.42760995748311925 13.376958440937356 166029.81574087677 7.250688813874958 0.20848990508117973
0.4446093400138574 13.314829062027204 139761.3552650887 7.625887476848385 0.21152950497251446
0.46199097292936564 13.260465462892013 117940.8953544172 8.017162472835137 0.21460080210147645
0.47976079598122695 13.213067365190758 99777.85318168969 8.42521377211859 0.2177053587723634
0.4979202711613936 13.171908358105643 84612.69020634198 8.850474553122218 0.22084053064317646
0.5164629959366378 13.136319803243564 71915.31660216565 9.293833612943724 0.22400994315017247
0.535384382750477 13.105774416339916 61253.61235837498 9.75616897560136 0.22721641186069738
0.5546946089529278 13.079744887460038 52282.45955329612 10.238284896300819 0.23046121427419897
0.5743805850144769 13.05778586096782 44712.1029904995 10.740658630606921 0.23374112492163843
0.5944412122890254 13.039470522966322 38312.03292720774 11.264540216705724 0.23706239189899783
0.6148817632992664 13.024462025203473 32887.28077476781 11.810862931869996 0.24042656897927805
0.6356893964594761 13.012402161838649 28278.660649925507 12.38060634487079 0.24383529012430283
0.656863585991716 13.002989378590282 24359.41043254724 12.974444354561225 0.24728633315044965
0.6783993463494739 12.995958715704337 21017.620014013533 13.593734317554313 0.25078482289899756
0.7002915938197976 12.991060167392757 18163.30953588839 14.23966018537874 0.2543332329407954
0.7225302702777547 12.987997727447462 15721.224106124468 14.913412381383898 0.25793354930229806
0.7451215605635003 12.986641226693814 13626.9825404201 15.615999559491732 0.2615854545521621
0.7680463344685672 12.986763144127819 11829.674226989082 16.348730540252728 0.26529126623225524
0.7912956811721596 12.988145121719839 10284.341508370966 17.113202067175013 0.2690554711330059
0.8148726319149918 12.990684876018491 8950.932550502283 17.910870154806737 0.272880503741288
0.8387591417620963 12.994156785389649 7803.030304582324 18.7430700789117 0.2767671720237038
0.8629452777054458 12.998426510581398 6810.192896705004 19.611207335621145 0.28071649816568567
0.8874312510313515 13.003374687868046 5951.85071912066 20.517339929839878 0.284734580849813
0.9121904974542374 13.008869730836707 5208.055470519112 21.463263270617915 0.2888244359691986
0.9372154467347649 13.014772336371964 4562.805037750625 22.450423127459864 0.29298567210559423
0.9625031590720721 13.02098167151192 4002.0552003053313 23.480923132574866 0.29722271101911735
0.9880283283331642 13.027361722646228 3514.393718748575 24.557150003840125 0.3015413523185864
1.0137735346209322 13.033822919350914 3090.089798700165 25.681000451435768 0.30594288358648614
1.0397427160139978 13.040284387467887 2719.657874342614 26.854529023089608 0.31042924982577585
1.0658975318121224 13.0466038312869 2396.745329174739 28.080790104055442 0.31500885553344393
1.0922340810883984 13.052736479017875 2114.2528007276187 29.36178406609678 0.3196817644741985
1.1187362318563487 13.058571025672446 1867.0779678896174 30.70037877950857 0.3244534234575594
1.1453720805351997 13.06402089578951 1650.9049545087078 32.099860931143155 0.3293311201646786
1.1721377869770808 13.06903568295771 1461.1034837339284 33.562293898524764 0.334313341244085
1.198997670135471 13.0734930106851 1294.4433475793685 35.09216484223661 0.3394132741000934
1.2259424777737171 13.077362698308402 1148.1173484695962 36.691427330864926 0.34462724858477023
1.2529471533384118 13.08051469012949 1019.485493700887 38.3652031254753 0.34997012728418825
1.2799936024228633 13.082950286980006 906.0183756142652 40.11581204335935 0.35543893702432044
1.3070471022287615 13.084550932536235 806.1852103581423 41.948578333073414 0.3610473719869836
1.33408035374277 13.085236125179046 718.0102282406359 43.86714437082634 0.3667982451698813
1.3610909058963712 13.085027304542997 640.1421452060287 45.87604316492709 0.37269843609728565
1.3880324639948953 13.083776305359365 571.3287962252231 47.98069021368495 0.37875834681332593
1.4148776881727838 13.08145282590347 510.42761613873904 50.18593886396456 0.3849841077966881
1.4416108463355102 13.07800420506256 456.5173641651151 52.49683290973721 0.3913817639300657
1.4682068010818243 13.073399043533612 408.68637834016835 54.91988237117942 0.39796347853453756
1.494617728424544 13.067521086704017 366.2273188165033 57.46128258856915 0.40473832181117714
1.5208309505176918 13.060365256047865 328.58015887457026 60.12766750131204 0.4117160748022654
1.5468159298352389 13.051870486195586 295.0442250158731 62.92614913607196 0.41890728793276516
1.5725338401142308 13.04197691842825 265.2446460419111 65.86436087640777 0.42632334433323626
1.5979477591164721 13.03063012370897 238.7167346009588 68.95050489791845 0.4339765285038654
1.6230566388389938 13.017814358368836 215.04942729273944 72.19340420063797 0.4418801009478215
1.6477986558149238 13.003448223685462 193.9278285257583 75.60255972455819 0.4500483794781014
1.6721464934178276 12.987502125648577 175.07949631946875 79.18776784932692 0.4584949688160693
1.696083523560338 12.969939188326116 158.2290090223131 82.95952829862902 0.4672344086107987
1.7195637119742668 12.95070869121269 143.15892373419058 86.93044582703037 0.47628765147919044
1.7425448459314254 12.929757271946977 129.6749008137192 91.11194870829644 0.4856684143092216
1.7650247916360846 12.907088173262926 117.57248675786883 95.51846021210777 0.4953999147706224
1.7869360424079856 12.882605242186406 106.73184118536987 100.16333455026863 0.5054984031254336
1.8082854042363652 12.856361663162389 97.00251352905072 105.06327700291703 0.5159902498150054
1.8289889662900183 12.828205970696887 88.25938587618737 110.23484740635479 0.5268980192804459
1.8490690443244548 12.798220356647493 80.39854985150535 115.69589628937112 0.5382458444461091
1.8684408208679093 12.766262613689447 73.32123517939624 121.4662663184284 0.5500616529377668
1.8871166748999946 12.732420802000862 66.95034697909632 127.56740114982536 0.5623752922736209
1.9050354284923383 12.696584924618818 61.20469928484654 134.02213473361607 0.5752174149393884
1.9221720909478837 12.658745771007684 56.027376458029515 140.85602115692166 0.5886237810539462
1.9384799072907195 12.618844865682425 51.34950084556244 148.09676388316822 0.602632675361809
1.9539704479234605 12.576967814013251 47.12459006144599 155.77267149087768 0.6172791370485832
1.9685803556952908 12.533011875521925 43.305297458154975 163.9176442229175 0.6326115618319196
1.9822891911797258 12.486991284517497 39.84551500925922 172.56574906105607 0.6486724055902092
1.9950693978581748 12.438886552485728 36.71532540939912 181.75583792016906 0.6655132579257044
2.006899359233151 12.388702229662595 33.8753799977075 191.5302109611659 0.6831894273159127
2.0177386319224206 12.336402479172559 31.302499660940352 201.93496429517177 0.7017602282601094
2.0275657532911766 12.281996040798115 28.967121526670603 213.01983288137333 0.7212874975744338
2.036366982960111 12.225499547113309 26.84862619746615 224.84093635004368 0.7418434896089018
2.0441017846616507 12.166878522409231 24.92227243085105 237.45895174319904 0.7635035725270901
2.0507509449318024 12.106144377878246 23.16938862360956 250.941123229507 0.7863513843961183
2.056314137486806 12.043368081265456 21.576895411029994 265.3608248103239 0.8104757592592124
2.060749058379409 11.978490712501324 20.12565954191785 280.79943542637903 0.835974963960648
2.064043060409754 11.911565402138239 18.807104177965698 297.34729548763386 0.8629576766695316
2.066189632136553 11.842633649553232 17.606312979842997 315.1047952714944 0.8915441076635106
2.0671755713712985 11.771721515428275 16.511910863054013 334.18114929348917 0.9218591142454434
