M[M_sun], R[km], Lambda[1], P_c[MeV/fm^3], rho_c[fm^-3]
0.24162668629717493 15.618656898711224 2160425.4255784233 3.5677272577965504 0.1711233750220791
0.2536438666505325 15.277302081832179 1723252.38351188 3.784817481764095 0.17388814657551174
0.2660396780560071 14.981274176503549 1383022.8761842635 4.011397020708624 0.17666660718004784
0.2788146237439178 14.723527351883705 1116498.3693147996 4.247722032877023 0.17945744251978846
0.29196825834701634 14.498453846932488 905890.7631546364 4.494417636896516 0.1822672176413051
0.3055045077783532 14.301232385572305 738647.5551072893 4.7516387598427485 0.18509162553369607
0.3194200657015164 14.12815158950294 605147.5759141907 5.020068820799128 0.18793730989070734
0.3337174247852903 13.975998928651022 497687.9796792571 5.299930283786087 0.19080086262233767
0.3483987691514949 13.842045489351625 411016.8384161938 5.59195362859262 0.19368861810048627
0.3634607491255667 13.724016901987856 340660.3156890514 5.896303784562211 0.19659559592707332
0.37891440373888663 13.620017896541611 283309.25020314206 6.213845803374731 0.19952949728331704
0.3947465732779627 13.528468183723216 236412.0144781164 6.54483846206202 0.20248652476215576
0.4109709776497164 13.44787720145299 195385.57607577305 6.889981450598476 0.20547034381966728
0.427578482614233 13.377070895006446 166083.77172858772 7.2499810608184205 0.20848405002152456
0.4445728115402841 13.314957986111292 139807.26783656492 7.625098296375512 0.211523222588509
0.4619538575795208 13.26058397181956 117978.57184549131 8.01627809850635 0.21459396075105733
0.47971851266746895 13.213177785345433 99817.6847141249 8.424227306717947 0.2176979419316039
0.4978751881119897 13.171993725264949 84648.60325134282 8.849389633522083 0.22083267536172102
0.5164128613700002 13.136410115561555 71943.25494003358 9.292632680130442 0.22400148850829754
0.5353302079868495 13.105860825398873 61279.98308583553 9.754843885744204 0.22720733959412437
0.5546370241250558 13.079835369800815 52301.81029745172 10.236832776018936 0.23045157945517925
0.5743192051605434 13.057845113475603 44732.13374596002 10.739074283507708 0.23373095292249216
0.5943751969151353 13.03952814266284 38329.71718415807 11.262805579519583 0.2370515538544683
0.6148119099856336 13.024526357518605 32904.011618405995 11.808967755657704 0.2404150431458756
0.6356154069660558 13.012437552169498 28294.073503634154 12.378539741222506 0.2438230536107532
0.6567843343682352 13.003023689025584 24372.10604639893 12.972215813748878 0.24727359572502244
0.6783162613096126 12.99597876719185 21029.21897393945 13.591312190492257 0.25077133714444266
0.700204163089456 12.991068621586173 18174.188484969098 14.237031483033611 0.2543189721022792
0.7224377743104293 12.987996959344196 15731.1383050425 14.910563280069576 0.25791848502967235
0.7450233093660388 12.986659800624357 13635.106090862275 15.612943148568105 0.261569832206918
0.7679440084641593 12.986749526443536 11837.033803356631 16.3454254249213 0.2652747910612796
0.7911879256509664 12.988129472541868 10289.57137726789 17.109631657154665 0.2690381094381192
0.8147622609735029 12.99065940264659 8957.202809338605 17.90701675979329 0.27286221965748014
0.8386436369840738 12.99413644012232 7808.060449309425 18.738950791227673 0.27674824602817244
0.8628239639363915 12.998398349349742 6815.155838306339 19.606768588177026 0.28069658430527544
0.8872985558371245 13.003344170441798 5955.920724837062 20.51256035564937 0.2847136360146255
0.912058395407003 13.008838591194852 5211.674667982097 21.458120039390714 0.2888024141424965
0.9370779552960298 13.014736164437107 4565.771920365938 22.44493766561924 0.29296288862005665
0.9623562917479744 13.020926075732019 4005.051045585374 23.47502659283099 0.2971987634191848
0.9878800431356668 13.027325639069057 3516.856141523435 24.5508146272365 0.30151618487488474
1.0136217418797102 13.033781775969848 3092.1502714248722 25.6742507634763 0.30591683524073404
1.0395856558272838 13.04023694088403 2721.7236394281736 26.847282496642254 0.31040187375373646
1.0657355000251074 13.04656788522472 2398.5918272562294 28.073012812828846 0.31498008395137134
1.092066664787128 13.052703109737763 2115.8745713837384 29.353503576858387 0.3196519597971866
1.1185636041026836 13.058531057642917 1868.7699745134016 30.69149621809902 0.32442208964661157
1.1451932516195833 13.063987183424906 1652.2696626017705 32.090405291400266 0.3292986315178651
1.1719563198708483 13.069000231627976 1462.2515216341044 33.55215425135903 0.3342791695876951
1.1988112383828842 13.073465743402393 1295.5701491715822 35.08129332278547 0.3393773249325441
1.2257572223958797 13.077330791541044 1149.2118605608227 36.67985549100211 0.3445899196206551
1.252752580857476 13.080494306785702 1020.3106641503049 38.352881942957715 0.34993132348019823
1.279793232109501 13.08293581169989 906.8120984509051 40.102605585616985 0.35539808065605805
1.306836573052492 13.084524771152608 806.8366485157317 41.93451613933408 0.3610048598448966
1.3338731564517243 13.085236232739907 718.7053451141416 43.852068756464725 0.36675343264746496
1.3608820629369682 13.085029443140538 640.6907950914832 45.859985722447284 0.37265174323579303
1.387810701240626 13.08377652233523 571.86230489073 47.96358234664814 0.3787096523011995
1.4146672804627431 13.081490890874635 510.8771588008522 50.16759294906577 0.3849327005213801
1.4413904181725867 13.07803614117634 456.94028504003876 52.477278074645106 0.3913280736794663
1.467984632081555 13.073443177817994 409.0629094833714 54.89903201558233 0.3979073531271249
1.4943930009605595 13.06757798258269 366.5805571439545 57.43904309674327 0.4046795972998742
1.5206047411221977 13.060433493459634 328.87542898543336 60.1039376139453 0.41165457450811416
1.5465873087761488 13.05194937780545 295.328564356537 62.9008192593995 0.4188428213828192
1.5723033325189115 13.042073834790536 265.50297672984397 65.83731232167997 0.42625570609240293
1.5977276092112496 13.030747024247027 238.9499202598333 68.92160904336818 0.4339054968892041
1.6228143919129523 13.017929635780138 215.26463080387046 72.16252156715424 0.4418054366124477
1.6475666505038324 13.003592625975317 194.12236354773222 75.56953895518065 0.44996982385028883
1.6719159072867054 12.987661259598418 175.25213656797195 79.1526170378832 0.4584129623751225
1.6958525807144504 12.970117699174992 158.3815771602429 82.92190443228088 0.46714794907550916
1.7193331798917395 12.950908034606272 143.29844233298007 86.89015519324317 0.4761964130170314
1.742319224789613 12.929972079968136 129.79371865726213 91.06897453770105 0.48557281259787044
1.7647992219097879 12.907329519996148 117.69450815993737 95.47238844108706 0.49529882301767636
1.7867260984007975 12.882894524139758 106.83469162461822 100.11412506040503 0.5053922111812013
1.808065479663593 12.856645320769063 97.09885254641922 105.01067457352941 0.5158785484459418
1.8287770324812656 12.828515086461751 88.34552424305437 110.17857365085196 0.5267803658269453
1.8488572735708158 12.798554606641618 80.47645236811275 115.63541733754366 0.5381209158013154
1.868243646616559 12.7666514932936 73.38930736118957 121.40147211780247 0.549929755689718
1.8869159781332847 12.732805343647877 67.01741605296893 127.49812385773727 0.5622365600896555
1.9048381321171393 12.696997516872688 61.265854855505985 133.94783963432192 0.5750707333449581
1.9219816937296428 12.659185675396964 56.08221342178118 140.77622212539754 0.5884683021944992
1.9382972688955902 12.619303310492938 51.39909971048653 148.01098294990206 0.6024676714688039
1.9537957447461873 12.57746686124192 47.16852090452158 155.68066629014098 0.6171047779833366
1.9684135101643558 12.533545752104194 43.34478545712297 163.81885709943265 0.6324270266642716
1.9821301863281193 12.487552577203541 39.88543187752518 172.4592702308441 0.6484758040723773
1.994920304156604 12.439484062337819 36.749194325021456 181.64128132358556 0.6653045914966104
2.0067598491989362 12.389330027976637 33.90683941708387 191.40683253131326 0.682967628432865
2.0176094645152527 12.337064204467493 31.330743201574812 201.80194322981433 0.7015241289905461
2.0274487046741485 12.282686167271892 28.99450399373351 212.87659828647082 0.7210369172201054
2.036261197011127 12.226228017345852 26.872986473690904 224.6861621591429 0.7415759587352789
2.044009361413243 12.167641821469799 24.946138093577236 237.29188379401782 0.7632187063266129
2.050671805621885 12.106944166031916 23.190744214891033 250.7605542374978 0.786047555559578
2.0562476457670997 12.044206402631275 21.596586685455087 265.16521389246765 0.8101505228624375
2.060697560569447 11.979365972853044 20.1441540377039 280.58769760569317 0.8356276646531771
2.064008078975728 11.91247464589754 18.824689448882953 297.117573482672 0.8625854858596484
2.0661707535351304 11.843586636102401 17.620757146382044 314.85524397248406 0.8911446251167578
2.0671679557925513 11.772703617895733 16.525585607810932 333.91012242588 0.9214310489575281
