M[M_sun], R[km], Lambda[1], P_c[MeV/fm^3], rho_c[fm^-3]
0.24162668629717493 15.618656898711224 2160425.4255784233 3.5677272577965504 0.1711233750220791
0.2536389000808124 15.277410231460456 1723251.8221557885 3.784742654176792 0.17388721388573403
0.26603059321665495 14.981469345035835 1383185.5293200982 4.011239720343317 0.17666470629796543
0.2788016143011196 14.723771216016166 1116804.6816406113 4.247476940238064 0.17945459981452325
0.291951028322639 14.498699570582577 906164.6818260053 4.494078322863932 0.1822634393008016
0.30548042580070534 14.301574809980465 738946.4162728369 4.751193705802405 0.18508681810066197
0.3193919969434699 14.128475934327017 605291.5947621594 5.019514750797559 0.18793156120058968
0.3336832214395206 13.976321402237271 497938.58811222477 5.299252613847483 0.1907940396105137
0.34835916496906544 13.842372193776955 411223.66927371273 5.5911506692398865 0.19368084924786205
0.3634143883203628 13.724350271667863 340847.8849018172 5.895357499992474 0.19658670822213917
0.3788602708617585 13.620397056758103 283487.4806037843 6.212744745887431 0.19951945696479237
0.39468621063772197 13.52879711218896 236569.16521034745 6.543583777321132 0.20247552287197423
0.41090416666630275 13.448211098625034 198018.8252212679 6.88854892204837 0.2054581438053973
0.42750479769520217 13.377366938807048 166225.24038536826 7.248357250266828 0.20847061665297825
0.4444910251440798 13.315227044304608 139922.044236977 7.62328769415252 0.21150880903060057
0.46186495227821484 13.260853871207525 118087.89804098886 8.014249130117125 0.21457826504021618
0.4796218549114113 13.213398769987739 99910.34668384308 8.421964155986052 0.21768092620192675
0.4977687411774824 13.17222393504033 84724.36010658182 8.846900646909726 0.22081465403518538
0.5162985509610442 13.136615115529185 72017.19726036633 9.289877586985813 0.22398209248079934
0.5352069992168677 13.10604607493965 61342.11923076145 9.751804012343403 0.22718652701172373
0.5545045991489731 13.080001243592564 52363.13312772133 10.23348831423418 0.23042930664437156
0.574175962999762 13.05798059245069 44782.17149353947 10.735439765951218 0.23370761819394686
0.5942275908771133 13.039664050309648 38374.148162922844 11.258826361179663 0.23702669162627135
0.614650870187251 13.024615394680312 32942.543741872156 11.804620337631308 0.24038860359076833
0.6354428383893431 13.012523972539928 28331.47776016663 12.3737991589283 0.24379498427122392
0.6566046336089044 13.003100956617224 24405.129504917837 12.967103836134813 0.24724437775724553
0.6781259641746792 12.996029280596925 21056.907518083215 13.585756244699898 0.2507404031267978
0.7000027527301258 12.99108788276235 18197.285423596484 14.231001789897684 0.2542862607227375
0.722224763104643 12.988027417905304 15752.097090601927 14.904028147512298 0.2578839313204052
0.7448017782551707 12.986659117001198 13654.429028891756 15.605932596493954 0.2615339989149979
0.7677094927144303 12.986749432389981 11853.362616512562 16.337844541745973 0.26523700226000174
0.7909262365677251 12.988112561344126 10306.667017634962 16.993132783739135 0.27032974943511906
0.8127894534404005 12.988793391732642 9051.809261320524 17.923030967385014 0.33418153543038365
0.8332014068184087 12.986795872947747 8020.5727030934295 18.802651082141804 0.38015557089071333
0.8525029187002033 12.981675797842158 7150.7400009975345 19.744803401022853 0.42520009071895765
0.8709238512181601 12.97332288153978 6403.338423356686 20.74951551431607 0.4683538621587829
0.8886390146339813 12.961680891038858 5753.631232481397 21.820233124306178 0.5105241420819816
0.9058491746517278 12.947025656439148 5180.510956840876 22.957406504249743 0.5513182577400256
0.9226518777972222 12.929367061454313 4671.034387897761 24.163132543165975 0.5909723940606395
0.9391569942267981 12.908909562865793 4215.718633025256 25.44039338660755 0.6297357408269391
0.9554949706031548 12.88598824733034 3805.9604432788074 26.791245722910496 0.6676588133295519
0.9717437693955117 12.860759547532288 3435.6070659946204 28.21690477584718 0.7047272556416452
0.9879488082305978 12.83336027127323 3084.7280756990517 29.720904546092637 0.7411768355999325
1.00417646410581 12.804082207015261 2797.7928424241445 31.306521162254075 0.7771506945728838
1.0204735071114146 12.773031639542042 2523.025628760986 32.97695614521489 0.8127553521817436
1.0368757128199766 12.740454608968182 2273.27751436691 34.73578753223053 0.8481013234366781
1.0534131417221921 12.70646814560413 2047.2584290865832 36.586439732567605 0.8832656465361954
1.070104204574831 12.671250310445268 1842.1625835876162 38.53213332181987 0.9182873401319415
1.0869515847719091 12.634900610626735 1656.5889109786388 40.57880334696781 0.9532094324545658
1.103976761218344 12.597632154846549 1488.7253674601634 42.73178883952035 0.9882035257237611
1.121162110823626 12.559390519730322 1337.275627064208 44.993422551927694 1.0236270468385893
1.1385186643990166 12.52047747892686 1200.5750422371186 47.37248886681571 1.0597023097309763
1.1560152536200081 12.480772244021894 1077.3668629498816 49.87250874747933 1.0964561440752052
1.173646275761002 12.440409309300273 966.6061765543699 52.50264237858565 1.1340851252649569
1.1913833154038256 12.399443795137712 867.0648709520143 55.267840815167474 1.172651544230566
1.2092225560781267 12.358047894890575 777.7435941370401 58.17615701814167 1.2123045788250475
1.2271060175638793 12.31590787840708 697.5716442112464 61.23653107272048 1.2532081198853255
1.2450178945664665 12.273292776384348 625.7992623247616 64.45764186103061 1.2955183457921524
1.262926955976203 12.230116839838328 561.5528751561461 67.8491050106227 1.3394179386185316
1.2808005584908182 12.186379572549926 504.0989972116126 71.42153638619267 1.3851212024576132
1.298597661001803 12.142085350662505 452.7156393491861 75.18451606101769 1.4328500420874692
1.3162781110403743 12.09714076317324 406.8265299505588 79.15181487419349 1.4829367082163554
1.3338118193491704 12.051670467968579 365.83179911171754 83.33656550029569 1.535762453308026
1.3511293778771682 12.005361113223113 329.1710957294723 87.75229066253318 1.5918236833313097
1.3682198107102674 11.958416324038767 296.4762750491801 92.41458014064784 1.6518282062701566
1.385009673909982 11.910625421348197 267.27307198151107 97.34117648729608 1.716809964900367
1.4014610742153 11.862029736869557 241.2040415336006 102.55050411849152 1.788391443698938
1.4175185474292071 11.812561058243638 217.90828359156907 108.06348762456913 1.8693503301372318
1.4331077608711087 11.76213278256208 197.15507573167986 113.90426145148398 1.96491462399511
1.448163539509743 11.710708031886826 178.64245893587156 120.10105906753739 2.085676352209356
1.4626703475797933 11.65805770558487 162.0692053941534 126.67272490004586 2.14821142399293
1.4767655646427928 11.604127993718603 147.14615226830904 133.62889795572534 2.200579360265304
1.4904187795211652 11.548979885724368 133.71086530248664 140.99671912476347 2.255527135520277
1.5035976045109594 11.492680321870873 121.60156447464442 148.8062540316975 2.3132319637890255
1.5162682572015402 11.435212602085432 110.69454527227968 157.09090780757688 2.373889942736527
1.528381120836095 11.3766814136823 100.89466858818692 165.88766998618627 2.437717020690593
1.5399066813001556 11.316967714412563 92.05906958281709 175.23743848421992 2.5049506740237026
1.5508059335351507 11.256141845291904 84.11981641932462 185.1818983913895 2.575814117333414
1.5610062778336404 11.194022762041817 76.96492740398777 195.770379325275 2.650578438933047
1.5705003662467694 11.130808410440876 70.53138079982925 207.05489067833346 2.7295088839577164
1.5792599272471881 11.0663706310713 64.72347514519421 219.09324900502784 2.812900586763058
1.587223196243379 11.000660252353054 59.49833816640584 231.94751977390905 2.9010574922216024
1.594369615200301 10.933724363864195 54.78513169360459 245.68858741267323 2.994338204456838
1.600667803061731 10.865467828828896 50.533994860502965 260.39222115858297 3.0931069510500433
1.6060808509502138 10.796029814184644 46.69889763683927 276.14294261687627 3.1977703614167385
1.610603182806387 10.725150157394234 43.230181573796294 293.0348057869979 3.3087796761905346
1.614186882554469 10.653028602876036 40.10107715536348 311.1696191144526 3.426601129110545
1.616822825402192 10.579606698191736 37.27033902127969 330.6626386145405 3.5517729189690104
1.6184954687790916 10.504931335829584 34.7110363539868 351.6395364953709 3.68485765919108
1.6191821744855786 10.428952965756055 32.39605911646792 374.2420881191737 3.826497750219457
