M[M_sun], R[km], Lambda[1], P_c[MeV/fm^3], rho_c[fm^-3]
0.24162668629717493 15.618656898711224 2160425.4255784233 3.5677272577965504 0.1711233750220791
0.2536398278516986 15.277393624050058 1723175.3292471406 3.784761412381113 0.17388744769770165
0.2660329948402233 14.98142871573573 1383130.4669987995 4.011279152877344 0.17666518281686766
0.2788047030663073 14.723720506188348 1116632.4515406922 4.247538380182579 0.1794553124252916
0.2919554653694134 14.498624127964307 906108.4320228702 4.494163381432692 0.18226438644770582
0.30548648078373875 14.301489406250708 738895.001540337 4.751305269947384 0.1850880232063511
0.31939960802171147 14.128377700424863 605260.256577367 5.019653641255873 0.18793300224270149
0.33369173637019955 13.97622123808801 497863.6760475073 5.29942248582682 0.19079574993947704
0.34836775563165023 13.842311932831489 411172.5761979811 5.591351945765556 0.19368279665361718
0.3634262479535456 13.724254722251445 340799.9109238875 5.895594701352244 0.1965889360675073
0.3788733566359987 13.620293976203167 283436.88133983297 6.213020740936024 0.19952197370731586
0.39470066613414406 13.528724613876934 236524.99484510464 6.5438982784076005 0.2024782806216324
0.4109208660701012 13.448134109308532 197980.9306242528 6.888907998381311 0.20546120185012914
0.4275224864303276 13.377299899573519 166195.796317404 7.248764269413823 0.20847398381807125
0.44451211150931264 13.315142095562681 139896.1525753923 7.623741530144826 0.2115124218569149
0.4618878149501301 13.26076189227077 118061.80728467579 8.014757695995891 0.2145821992084463
0.47964743919063263 13.21333401100651 99881.34714428517 8.422531415106855 0.2176851911975015
0.4977963942814667 13.172156375250827 84707.16205176762 8.847524506871649 0.22081917104786455
0.5163270010551908 13.136565889268814 71994.3100528406 9.290568139898909 0.22398695401635849
0.5352387156324275 13.105983993234636 61325.91327991915 9.75256593748912 0.2271917435545818
0.5545378213108385 13.079942124812092 52345.80524797147 10.234326575100228 0.2304348891347328
0.5742114188168029 13.057944602235775 44769.50784890667 10.736350719883259 0.23371346680036878
0.5942634173271105 13.039665991721872 38362.10860260821 11.259823701994593 0.23703292302973122
0.6146914894359076 13.024585548024284 32933.28415375021 11.805709953471819 0.2403952302730625
0.6354852529586569 13.012496033864048 28321.402766400264 12.374987305127044 0.24380201937303067
0.6566492434697594 13.003074037180951 24395.50588048714 12.968385056779052 0.24725170068905875
0.6781727335205976 12.996023980504553 21049.921447054145 13.58714872541104 0.2507481560863295
0.700052572950465 12.991092829373 18191.603682237444 14.23251299217391 0.2542944590688403
0.7222777433474236 12.988018738663296 15747.352461441327 14.905666012068838 0.25789259132771336
0.7448572710146156 12.98665959492314 13649.674333746545 15.607689600109376 0.2615429795520134
0.7677686576238117 12.986743515809763 11849.12104917162 16.339744466643978 0.2652464729091007
0.7910050487570705 12.988112127766275 10300.98249098151 17.103494785551856 0.26900826790963384
0.8145699638210705 12.990638250394586 8968.065697759714 17.90039358194561 0.27283079315217285
0.8384439639499983 12.99408572818132 7816.517113665785 18.73187068036592 0.2767157165821104
0.8626148077068474 12.998367670922534 6823.109878355469 19.599139506220226 0.2806623574259455
0.8870799700699044 13.003297227143095 5963.005984599774 20.504345594687262 0.28467763765837073
0.9118294682819242 13.008800298614817 5217.744655739131 21.449280378292173 0.2887645652735234
0.9368416326683521 13.01467761585242 4571.29203345436 22.43550992188482 0.29292373113992715
0.9621114993881477 13.020864149496102 4010.0760367412645 23.46489248363102 0.2971576057905865
0.9876259962307228 13.027265389113962 3521.357366994783 24.539926466659775 0.3014729313817659
1.0133639979277884 13.03372809225243 3096.4427507768382 25.66265069103208 0.30587206832712394
1.0393140582831855 13.04017061285674 2725.355676497358 26.8348287355758 0.31035482568697054
1.0654588156397662 13.046508410071995 2401.630468261868 28.059647085677977 0.3149306383147767
1.091778218830197 13.052631463140974 2108.1562955903933 29.339273245050638 0.31960073934014693
1.1182693377859778 13.0584662054537 1871.383128188239 30.67623143233751 0.3243682421257044
1.1448900680389915 13.063937223284 1654.5335517467772 32.07413198671367 0.32924264563305755
1.1716451642453742 13.068944990603294 1464.4057751520047 33.53472962964333 0.3342204468159595
1.198490575038124 13.073412264030223 1297.4270921306677 35.062611295179956 0.3393155485319618
1.225427831452374 13.077287674914752 1150.7148072585792 36.65997025887614 0.3445257729399845
1.2524137941619893 13.080461726752228 1021.8393065191866 38.33156478529261 0.34986379539790075
1.279450463450935 13.082905605279835 908.1764115894425 40.07991205847436 0.3553278744644964
1.3064872043713358 13.084506717298524 808.0737542457758 41.91035246551933 0.3609318093981741
1.3335158901523185 13.085226246592457 719.7749478514331 43.826164107751104 0.3666764306345903
1.3605148541122976 13.085048545016376 641.7160942000547 45.83239436317927 0.3725715113110445
1.387443258133666 13.08379928332294 572.7565645751354 47.934186463607624 0.3786259821288687
1.4142923877717262 13.081529386101609 511.6697016141594 50.13607031589364 0.38484437062936583
1.4410174442072963 13.078112075210498 457.6361226676111 52.44367871813035 0.3912358224350678
1.4676011499467332 13.07351552574762 409.7107783643406 54.86320721117234 0.3978109191966038
1.4940041345652826 13.067672101431027 367.1767370757485 57.40083207544458 0.404578699151224
1.5202139729198596 13.060552119167948 329.4140620022936 60.063166484194234 0.4115489087527813
1.5461937754151964 13.052089216551975 295.8083887450011 62.857299821381545 0.41873206095311477
1.571907944910525 13.042235475881906 265.9569489104513 65.79084076212139 0.42613949823697567
1.597325305815219 13.030924663330753 239.33993846455238 68.87196449736867 0.4337834609668769
1.6224161357161486 13.018144777081293 215.6067067550309 72.10946453197941 0.44167716166237514
1.647167875006252 13.003836813675637 194.44134308385534 75.51280953906196 0.44983486591373406
1.6715215860147759 12.987939932798263 175.55217689877952 79.09220581449115 0.4582719807138523
1.6954569648989164 12.970426957311215 158.66097160122126 82.85726906439703 0.4669994171883608
1.7189201888972145 12.951208094090397 143.54597696233964 86.82093978199842 0.4760396741651923
1.7419349312390708 12.930372306089767 130.02366576665526 90.99515026773103 0.4854085807709241
1.7644152102304629 12.907752355773557 117.89771956700595 95.3932444316546 0.495125163388983
1.7863426923530301 12.88334791978144 107.01919805389367 100.02959240767028 0.505209793383945
1.8076855443364415 12.857128705815668 97.26621537256426 104.92031510213604 0.5156866699190371
1.8284143037693592 12.829071137330805 88.49553788526217 110.08159884396352 0.526577110546254
1.8484912615190734 12.799124621471023 80.61454916113365 115.53153190013663 0.5379063243357409
1.867886624002089 12.767270205688382 73.5181498484923 121.29017651064657 0.5497031986188385
1.8865666751712449 12.733473518299935 67.13045239706533 127.37879348627254 0.5619970649862795
1.9045004134525823 12.697703853485867 61.370279482766186 133.82022946894662 0.5748187912559026
1.9216546450758767 12.659946346027585 56.17900101509321 140.63916130841062 0.5882012556014142
1.93798897794572 12.620138078546153 51.489054908765276 147.86365106307275 0.6021842712542693
1.9534857818442788 12.578300985651731 47.25120561117263 155.52264725561196 0.6168053160949758
1.9681252738214479 12.534455961407607 43.41892120119001 163.64881690106208 0.6321088184019196
1.9818603320507617 12.488521405916213 39.95215685189135 172.2764011516695 0.6481381563121729
1.9946647435710523 12.440502004432721 36.81141959847769 181.4445438582233 0.6649462314755337
2.0065161242146305 12.390394119896133 33.966081160306516 191.19494969072096 0.6825867241091796
2.017389661955731 12.338198413257926 31.38472802539108 201.57350638419214 0.7011186761230034
2.0272471781189183 12.283879879081855 29.043761293489112 212.6306275910597 0.7206066062044428
2.0360805810740374 12.227482519271607 26.917517784177797 224.42038213386556 0.7411165516342619
2.0438499144097824 12.168959355255648 24.98545976773517 237.0050001767222 0.7627295434055459
2.0505356888020563 12.108325718680808 23.228180096848597 250.44990547555108 0.785523923063314
2.0561284267444537 12.045621468710028 21.630633777915182 264.8290437840264 0.8095911162709197
2.0606081879373144 11.980866423024105 20.176797399570116 280.223749705922 0.835030072867876
2.06394885661035 11.914057193839458 18.85308661658024 296.7231474382334 0.8619464449939596
2.0661352401157163 11.845215487980562 17.64778529352132 314.426785089367 0.8904587467162639
2.0671581367632306 11.774399382443256 16.550880715986487 333.44480620603696 0.9206961191574835
