M[M_sun], R[km], Lambda[1], P_c[MeV/fm^3], rho_c[fm^-3]
0.24162668629717493 15.618656898711224 2160425.4255784233 3.5677272577965504 0.1711233750220791
0.25364049928830806 15.277400716999677 1723162.4973311096 3.784772824069894 0.1738875899388971
0.26603434292755995 14.981388965476471 1383221.956884892 4.011303142079247 0.1766654727122152
0.27880704381971716 14.723682969989564 1116551.7919175066 4.247575758031117 0.17945574595200744
0.29195853424618157 14.49856963992105 906064.2970818229 4.494215128276703 0.18226496266082368
0.3054897410371855 14.301440700718848 738817.9509201245 4.751373142281164 0.1850887563570922
0.31940287971960957 14.128358242912954 605248.2695805446 5.01973813854362 0.1879338789346748
0.3336978937998425 13.97615434986178 497848.38384028856 5.299525831997789 0.19079679046393638
0.34837391301977283 13.842228334878728 411126.7994587652 5.591474398334652 0.19368398141590873
0.36343250799709476 13.724225166322112 340768.1644703641 5.895739010606174 0.1965902914505593
0.3788811420460907 13.620252289655372 283417.7690263549 6.213188652464255 0.1995235048582747
0.3947104549188508 13.528686698051725 236504.9651296687 6.544089617362727 0.2024799584057826
0.4109310282995797 13.448092201702147 197961.4534166896 6.889126457512512 0.20546306233976327
0.42753541025782876 13.377260054689195 166166.71940997776 7.249011897796174 0.20847603238421672
0.44452542694090275 13.315113753774556 139879.0100084025 7.624017642887697 0.21151461989188808
0.4619007680107962 13.2607377747786 118051.32031649126 8.015067107785534 0.21458459275878786
0.4796599978411359 13.213317021122784 99869.37445311843 8.422876537581017 0.2176877860360348
0.49781172057969875 13.172132333705267 84695.79395807028 8.84790406712358 0.22082191922626215
0.5163431446794721 13.136545424834782 71983.44098377053 9.290988278572536 0.2239899118188134
0.5352576771249008 13.10595744881476 61315.92236183883 9.753029501898425 0.22719491736190683
0.5545587373830246 13.07993054936647 52338.098791727934 10.23483658551457 0.2304382856051366
0.5742356678222351 13.057925289620057 44762.37164740352 10.73690496011592 0.2337170251943446
0.5942854006007136 13.039600304093799 38355.5897830319 11.260430504383054 0.2370367143420352
0.6147161958772586 13.024566982742268 32926.778191401085 11.806372900992317 0.24039926210009066
0.6355117820963169 13.012496679849242 28317.736287327203 12.37571020421525 0.2438062997121732
0.6566742956215529 13.003089652034186 24197.18025200116 12.96916458788177 0.2472561561691801
0.6782021127183955 12.996012782080648 21045.670854531003 13.58799595428912 0.25075287322973644
0.7000837626825261 12.991088110558866 18188.750501021652 14.233432459298298 0.25429944722286474
0.7223108550194612 12.98800579907801 15742.731769342932 14.906662549551253 0.2578978603970305
0.7448903500690499 12.986656366411294 13646.584597829116 15.608758630378421 0.26154844372563296
0.7678044227465518 12.986757517405843 11846.608037663249 16.34090046130522 0.26525223525255354
0.7910434194281072 12.988110448769348 10299.845477905179 17.10474354338491 0.2690143401961111
0.8146088079527973 12.990637312259524 8964.99696941679 17.901741286060563 0.2728371879118328
0.8384845985621158 12.994096519170652 7814.831981260186 18.73331135431059 0.27672233573346144
0.8626574452400827 12.998372246109668 6821.599770673696 19.600691874848163 0.28066932192495136
0.8871255816719095 13.003316200190998 5961.84740994131 20.50601712564541 0.2846849625662043
0.9118772876738607 13.008804219545981 5216.517990552439 21.45107905043161 0.28877226666675243
0.9368920840155746 13.014682195151352 4570.093487129242 22.4374282444977 0.2929316987599338
0.9621600077463427 13.020883392615156 4009.0106250742806 23.466954520014077 0.29716598033302877
0.9876781404931921 13.027277689107631 3520.496654083466 24.54214191743058 0.3014817323159545
1.0134178813344716 13.033744781636736 3095.650204711181 25.665010983022228 0.3058811771484805
1.039368726280797 13.040186266099829 2724.5810264327224 26.837362710764708 0.31036439858894244
1.0655151353639982 13.046528866755711 2401.1367468183084 28.06236659898187 0.3149406989770228
1.0918373748127337 13.052649949113345 2118.3232307009057 29.342168661280343 0.31961116106077925
1.1183278456584054 13.058483111641152 1870.8625928898546 30.67933730324072 0.3243791982865709
1.1449528455721394 13.063953539653228 1653.96578425709 32.0774620547922 0.3292541598317373
1.1717068228836698 13.068958750679577 1463.933357356928 33.53827490532822 0.33423239476055083
1.1985562048364593 13.073425287884731 1297.0259896025643 35.06641237738389 0.3393281176803345
1.2254960748579615 13.077297195228324 1150.4707428489592 36.6640161215839 0.3445388242667936
1.252485303518579 13.080466770576773 1021.4642736666756 38.335901953735565 0.34987753459672616
1.2795201333046697 13.082910380408574 907.9091858637707 40.084529231339445 0.3553421584548431
1.3065582178918727 13.084511237607803 807.8537862788328 41.91526871816366 0.3609466719747269
1.3335899169083814 13.08523073969036 719.5476761868365 43.83143452877275 0.3666920970515277
1.360589987064405 13.085042859113722 641.4638411680962 45.83800791445149 0.3725878347556008
1.3875176634632684 13.08379574874696 572.5687036728021 47.94016710893195 0.3786430049760561
1.4143692156981724 13.081522584219597 511.517092055799 50.14248359635062 0.38486234134796443
1.4410955554749272 13.078101414303292 457.49242809222443 52.45051445796859 0.3912545908155332
1.467677733804869 13.073504441941761 409.5782116185552 54.870495660688725 0.39783053839190285
1.4940845949925372 13.067652746839157 367.06750328931776 57.408605934383985 0.4045992264218437
1.52029341867908 13.060527535891637 329.3003452934463 60.071461120969694 0.41157040580389176
1.5462742308509592 13.052060639305711 295.71983715273745 62.866153514158384 0.4187545943051316
1.5719882840893487 13.042202619541943 265.84724509629007 65.80029496420173 0.42616313963311053
1.5974105426805476 13.030898466758297 239.267574985414 68.88206412960518 0.4338082878216771
1.6224972242474578 13.018104404543458 215.5407135328273 72.12025830528381 0.4417032575557313
1.647249685791765 13.003787962622113 194.3823351066033 75.52435031045461 0.4498623211353803
1.6715984572372404 12.987884440092667 175.48904080590017 79.10451406836165 0.45830073869756244
1.6955376975668528 12.97036216598393 158.60574540976512 82.87041796782388 0.46702963333013986
1.7190096546490172 12.951171307070053 143.49393033482735 86.83502028067102 0.4760715595669486
1.7420153362696709 12.930293943110373 129.97838518412306 91.01016822430506 0.4854419901963902
1.7644942321713168 12.90766477016321 117.85436830520464 95.4093444155468 0.49516049034859416
1.7864204285682683 12.883258632005852 106.97851046785901 100.04678843439044 0.5052469016635786
1.8077627907752412 12.85703406048635 97.22865350962465 104.93869628218059 0.5157257023933901
1.8284906502633278 12.828962574448084 88.4654390101895 110.10134008117842 0.5266185110483285
1.8485651084946395 12.799009392921333 80.58636719680759 115.55266414260014 0.5379499762564943
1.8679593748349994 12.767142459131886 73.48998031647125 121.31281589637416 0.5497492841117706
1.8866375787513163 12.73333691230646 67.10900488848158 127.40306702928474 0.562045781793423
1.9045688404650682 12.697560315873867 61.3497010311528 133.84618700313496 0.5748700394881332
1.921721371516462 12.659791813277046 56.159162774860874 140.66704092139605 0.5882555756895909
1.9380527582267315 12.619975271294697 51.46976533284345 147.8936195822464 0.6022419171919267
1.9535480580609064 12.578124511573318 47.23511143720212 155.55478929475862 0.6168662284766222
1.9681843473727043 12.53427173750435 43.40438235007422 163.6834280239385 0.6321736254462014
1.9819151285205483 12.488324142541629 39.93737020561436 172.3135969784233 0.6482068343393662
1.994716146968787 12.44029569014281 36.797598456465835 181.48456006832384 0.665019121557088
2.006564768287639 12.390173093636397 33.95492663065337 191.2380459345943 0.6826641987436525
2.0174345398780056 12.337968217481585 31.37473103920113 201.6199690732073 0.701201142812839
2.027287980688218 12.28363811257165 29.0346149215062 212.68065596339906 0.7206941278487482
2.036117251070919 12.227229370022096 26.908873643927393 224.47443882711227 0.7412099899154463
2.043882023387184 12.168692510831542 24.976942409132153 237.06334834804974 0.7628290323976137
2.050563335399316 12.108047054809964 23.220556142691134 250.513092849088 0.7856304426922927
2.0561509080994287 12.045329065793949 21.623731069070246 264.8974141935277 0.8097048886045669
2.060627520355059 11.980560499589922 20.169189005618694 280.2978226155864 0.8351517862347146
2.0639621781293953 11.913738021909184 18.84702393242017 296.8033636395574 0.8620764096133329
2.066141235277832 11.844882761133782 17.64212778755646 314.5139213208926 0.8905982346845587
2.067159464978061 11.774055082443258 16.545477315993452 333.53943668279953 0.9208455804365008
