M[M_sun], R[km], Lambda[1], P_c[MeV/fm^3], rho_c[fm^-3]
0.24162668629717493 15.618656898711224 2160425.4255784233 3.5677272577965504 0.1711233750220791
0.2536416527974958 15.277368525247647 1723158.106056763 3.7847961924407105 0.17388788121436607
0.2660377963886656 14.981285675006436 1383136.333768664 4.011352266466607 0.17666606635144522
0.27881068603048936 14.723596661771504 1116460.7451736466 4.247652299780202 0.17945663372095086
0.2919638984396769 14.498508028071807 905952.7480241784 4.494321095270823 0.18226614262789687
0.3054981543862046 14.301289750678455 738748.72021553 4.751512131858002 0.18509025770978765
0.3194118375768183 14.128255420605372 605179.0284568071 5.0199111738691125 0.1879356742429623
0.3337076991972266 13.976129259908818 497759.4584213108 5.29973746774718 0.19079892128476553
0.34838744639715524 13.842139935423283 411078.39654330135 5.591725162224311 0.19368640762552394
0.3634481708522018 13.724130767346612 340725.32970006746 5.896034535351834 0.19659306708151025
0.3788999654009552 13.620102998579931 283363.580136369 6.2135325133206605 0.19952664045524968
0.39472816731997856 13.528578836046055 236456.5618297581 6.544481456632034 0.2024833943068255
0.41095183912863525 13.447996115230321 197916.93335505485 6.889573838235689 0.2054668724217379
0.4275564776956437 13.377166327498667 166122.7043048014 7.249519016905148 0.20848022765064178
0.4445503661830808 13.315020364394233 139835.41484503855 7.624583098130061 0.21151912127920383
0.46192830686865466 13.26066069956801 118014.0570101232 8.015700760196253 0.21458949457247076
0.47969069672789544 13.21323649341832 99838.450225239 8.42358332679418 0.2176931001028446
0.4978445977929455 13.172063773220627 84670.9440922761 8.848681386583056 0.22082754735127183
0.5163801312433891 13.136477692397754 71961.56026672563 9.291848705273972 0.22399596927643287
0.5352960170858735 13.105900581774552 61296.397495414516 9.753978867960063 0.22720141722449355
0.5545986740085513 13.079884930154998 52318.52938998688 10.235881077358645 0.23044524151336057
0.5742770705641715 13.05789873345308 44746.48273223135 10.738040039171409 0.23372431275348432
0.5943330117461092 13.039562118184186 38343.482447810355 11.261673237046544 0.23704447895820555
0.6147667702819095 13.024530516736801 32915.098098755756 11.807730626413385 0.2404075193359656
0.6355642668332551 13.012457607233893 28305.05605148102 12.377190719315477 0.24381506595194027
0.656732828281436 13.003055537913765 24380.865647767234 12.970761094054748 0.24726528114378668
0.6782616430835898 12.99599967259521 21037.57103511598 13.589731117212775 0.25076253415201744
0.7001461928880738 12.991077274429124 18180.517278746316 14.235315579624608 0.2543096632425407
0.7223761353722066 12.987998985907355 15735.840519056921 14.908703525391024 0.25790865180564704
0.7449604965793598 12.98665702567272 13640.628235966722 15.610948086168412 0.26155963477130795
0.7678776665253304 12.986752574010225 11841.397667128727 16.34326803969201 0.2652640370370025
0.7911187860882519 12.988130222672938 10293.997319092641 17.107301122820232 0.26902677683883597
0.8146875212229194 12.990663137259887 8960.901144883963 17.904501532359124 0.27285028508315246
0.8385663474102771 12.99412328205079 7810.982840450651 18.736262026241548 0.27673589254426556
0.8627448514695436 12.998377571122075 6818.319612575521 19.60387132828509 0.2806835861273465
0.8872159349915703 13.003323681762355 5958.590823158216 20.50944065800384 0.284699965015826
0.9119730896192413 13.008821286469667 5214.098170343202 21.45476300643788 0.2887880402995456
0.9369881094086072 13.014719285946905 4567.749091477328 22.441357280718904 0.2929480177395427
0.962262817408265 13.020908625658965 4006.9345234942634 23.47117792910005 0.29718313285222403
0.9877839592016207 13.027302463095706 3518.625134220834 24.54667957154725 0.30149975826163444
1.013523382363274 13.033764246691334 3093.9992828490163 25.669845320976243 0.305899833789686
1.0394819294292192 13.040219021381942 2723.1194567218276 26.842552815554594 0.31038400587025883
1.0656318707478911 13.04654977876722 2399.6012419898616 28.067936756452536 0.3149613054115969
1.0919570355336936 13.052671992209278 2117.1463676081876 29.34809913422464 0.31963250712204977
1.1184516912581617 13.058509425846989 1869.7623520505033 30.685698872904478 0.32440163913577924
1.1450789116540343 13.063969464110608 1653.1137663122254 32.08423396335907 0.3292774274425669
1.1718377311170562 13.06898053199162 1463.0956083505625 33.54553656008309 0.3342568672857827
1.1986892597857421 13.073439177617264 1296.2536987191452 35.074198038482564 0.3393538627508903
1.2256331432563867 13.07731283054259 1149.7788528311687 36.672303201682155 0.3445655571043782
1.2526236910284647 13.080482925242347 1020.8540151230225 38.34478576651739 0.3499056765680936
1.2796626456802194 13.082920655543006 907.3535489904896 40.093986625048004 0.3553714164714663
1.3067052186532273 13.084516970824442 807.3163607937715 41.92533877192642 0.3609771152728582
1.3337374717542183 13.085227972201668 719.0222904265047 43.84223010254086 0.3667241870798261
1.3607433299011922 13.085036594984379 641.0733792873103 45.84950639495401 0.37262127077495166
1.387671626538422 13.083783672247801 572.2148486803608 47.952417591319836 0.37867787380347373
1.414525070016306 13.081502536802095 511.1823450386239 50.15562035823852 0.3848991520024754
1.4412461623181505 13.078062537631547 457.18107441558413 52.46451665215763 0.39129303559460754
1.4678396982327298 13.073467251038712 409.31560135766733 54.88542526324268 0.39787072619694763
1.494245504641398 13.067611925135902 366.79372021963127 57.42452994032428 0.4046412745708819
1.5204562092112155 13.06047800929387 329.0772569648043 60.08845199351729 0.4116144407225331
1.546438394728709 13.052003645651027 295.5249675211875 62.88428967879214 0.4188007522860136
1.5721536726744825 13.042133551289751 265.65837310403987 65.81966135251811 0.4262115676711406
1.5975759599524517 13.030820123952877 239.1016278438543 68.90275277857907 0.4338591445332936
1.6226631007561807 13.018018810529615 215.39885524782412 72.1423690182122 0.4417567141913614
1.6474143096413856 13.003688028229606 194.2431981974146 75.54799138664785 0.4499185626953904
1.6717647371924598 12.987769387506193 175.36198532926502 79.12967972527605 0.45835944988722993
1.6957026549657224 12.970234097454622 158.48441237847615 82.89735362382449 0.4670915313891799
1.7191672374329343 12.950998364439066 143.39734977299065 86.86386452945182 0.4761368775987967
1.7421710650979676 12.930117887915756 129.88292623059138 91.0409330744739 0.4855104306638816
1.7646515188496865 12.907486193767632 117.77043516299594 95.44232609309888 0.4952328595135942
1.786581356928736 12.883068041654708 106.90517318957615 100.0820156530023 0.5053229204730534
1.8079214054438688 12.856830090516787 97.16000488314049 104.97635163086446 0.515805663605249
1.828634953496376 12.828716914570924 88.39829835817275 110.14178195417017 0.5267033240632608
1.8487175319289026 12.798769596037413 80.52790803692353 115.59595594995842 0.5380394021916423
1.8681083491665151 12.766886530296082 73.44133174629445 121.35919561572074 0.5498436962240892
1.886783142976658 12.733059266952054 67.0615451658128 127.45279492744088 0.5621455852882365
1.9047100832914658 12.697265695810787 61.30576183887154 133.89936518600086 0.5749750297327897
1.921858041748363 12.659476035683154 56.11861101592555 140.7241572769657 0.5883668600704928
1.9381772780262163 12.619609503898685 51.43274924197106 147.95501597278894 0.6023600162037961
1.953680676311477 12.577799046621898 47.20340617014342 155.62063909991258 0.6169910204490474
1.968304166288538 12.533891801437479 43.37263131551927 163.75433693563312 0.632306397705471
1.9820283845162479 12.487923939714358 39.91035045615524 172.3898019201589 0.648347538432205
1.9948245764939032 12.43987098545636 36.7744267845538 181.56654401282023 0.6651684564487599
2.006664160546306 12.389726335601887 33.93074839556105 191.32634098564023 0.6828229278158576
2.0175260229100536 12.337496172663547 31.350632546890346 201.71516218494494 0.7013701011961471
2.0273723739887273 12.283142812031455 29.012882102588158 212.78315542646635 0.7208734445270363
2.0361926560911474 12.226704141460548 26.89019759178347 224.5851927863573 0.7414014307706791
2.0439483845311006 12.168140597491442 24.961063620040576 237.18289610227004 0.7630328723004031
2.0506199724192116 12.107466579120373 23.20453464393755 250.6425569578178 0.7858486899156862
2.05619848479595 12.044731320448589 21.60921905839628 265.0374993173977 0.8099379983894608
2.0606649792425755 11.979937330101473 20.157054637159966 280.44957633010813 0.8354011136137722
2.063987674166944 11.91308445486022 18.83449799151001 296.96772348427237 0.8623427020119513
2.066156931880082 11.844203803040717 17.631113931995053 314.6924622392426 0.8908840435785411
2.067163165275336 11.77334603698524 16.53400757292687 333.73333556311667 0.9211518282294284
