M[M_sun], R[km], Lambda[1], P_c[MeV/fm^3], rho_c[fm^-3]
0.24162668629717493 15.618656898711224 2160425.4255784233 3.5677272577965504 0.1711233750220791
0.25364366041130065 15.277303611348955 1723283.0859052367 3.7848136009309754 0.1738880982027991
0.2660380372852425 14.981323437983622 1382842.0165797255 4.011388862426283 0.17666650859202043
0.2788139963524725 14.72353447893538 1116409.7088792801 4.247709321141543 0.17945729508281305
0.291967093797229 14.49846128718594 905871.398479689 4.494400038145936 0.18226702167513295
0.30550422409846356 14.301207691065072 738660.637040761 4.751615676522515 0.18509137618978236
0.31941970279910886 14.128124313593263 605142.8029125952 5.020040082876039 0.18793701172366345
0.3337159318731844 13.975973599290718 497709.8768419598 5.299895134675873 0.19080050872912074
0.3483966822148965 13.842063112238218 411027.61143895576 5.59191198054122 0.19368821514413198
0.36345811831306196 13.724044405922983 340676.6398048859 5.896254701897196 0.1965951349322965
0.37891176004437893 13.62003236617639 283316.8083933711 6.213788692135515 0.19952897649758178
0.39474279623437303 13.528497458321704 236420.87509910789 6.544773381549278 0.2024859540939785
0.4109675705623488 13.447896630015196 197877.4848061692 6.889907144450907 0.2054697109973332
0.42757550064121275 13.377073797169164 166092.42794639623 7.249896831769284 0.20848335321618713
0.4445688623420164 13.31497255706426 139815.00667258937 7.625004377229329 0.21152247493171558
0.4619494851737587 13.260594526944192 117987.01358964235 8.016172851109484 0.2145931465773537
0.4797134104508271 13.213175951024217 99827.54453631416 8.424109910383999 0.21769705927528968
0.49786965787660614 13.172007612291827 84653.15824746162 8.849260521112836 0.22083174053271257
0.5164066314801691 13.13643115274846 71945.22124586868 9.292489762233357 0.22400048235739217
0.5353251277207324 13.105862857462212 61283.24164592768 9.754686193359941 0.22720625994859026
0.5546299166444073 13.079843408449262 52304.91386536333 10.236659281268594 0.23045042404782248
0.5743115420075532 13.057855666458622 44735.53727518613 10.73888574022712 0.23372974241622738
0.5943661838950031 13.039547814821349 38331.6656864477 11.262599152333793 0.2370502640936759
0.6148033558389583 13.024513454076374 32906.490033054615 11.808742225121478 0.24041367154392598
0.6356047131541762 13.01243744533764 28298.077052704146 12.378293811813808 0.24382159744447562
0.6567751238854524 13.003025589641073 24374.02990028718 12.971950614812597 0.2472720799566526
0.678306253801433 12.995980688295193 21030.89898479954 13.591023956208003 0.25076973233317057
0.7001931519277381 12.991062454962416 18175.40251523437 14.236718667972598 0.25431727506530627
0.7224254019444984 12.988010704344813 15732.256937623228 14.910224239507894 0.25791669239442044
0.7450129506516611 12.986653512620855 13636.318346698241 15.612579440060344 0.26156797317028374
0.7679322226066607 12.986751553329835 11838.026049847183 16.345032123189412 0.26527283055078965
0.7911750953003697 12.98813095962648 10290.439078638497 17.109206788346484 0.26903604344497767
0.814749180359963 12.990663035443268 8957.641017785332 17.90655821919469 0.272860043915127
0.8386309020154223 12.994126941903705 7808.763668702266 18.73846061262629 0.2767459939111243
0.8628103750138365 12.99839839415996 6815.9511865784025 19.606240398202086 0.28069421464996985
0.8872832291185098 13.003345688495433 5956.470589243993 20.511991612201246 0.28471114369265077
0.9120411092692989 13.008840145298384 5211.9268663872335 21.457508026295645 0.28879979367965447
0.9370623454673732 13.014722327979136 4566.191298959375 22.4442849322614 0.2929601775372982
0.9623381206915875 13.020931248439929 4005.184326410893 23.47432494808195 0.29719591383138
0.9878616983423324 13.027322849474052 3517.2252477735574 24.5500607686155 0.301513190152457
1.013603528070833 13.033777855806266 3092.4711578347556 25.673447609014453 0.30591373571298697
1.0395663708048946 13.040234856276346 2721.98454128073 26.84642022789495 0.3103986162576775
1.0657159183325136 13.046559816784871 2398.8498696421825 28.07208739367473 0.3149766604235172
1.0920465504004575 13.052689656386322 2116.3432587259 29.352518287075217 0.3196484133589382
1.1185432143195964 13.058530928497426 1868.9695280174813 30.6904392947029 0.32441836128084484
1.1451720225185091 13.063992042464047 1652.4326984123181 32.08928018388551 0.32929476575926303
1.1719345736842235 13.069000928833656 1462.4113473145792 33.55094776280657 0.3342751035968791
1.1987892101491087 13.07345441757763 1295.7079956773684 35.07999975905401 0.3393730474679701
1.2257338214802158 13.077322327930856 1149.32032204951 36.678478605809225 0.3445854780021601
1.2527284008869308 13.080491153791066 1020.3973211580058 38.351405895119726 0.3499266476842293
1.2797694230840981 13.082935586482312 906.8969225577189 40.101034222783184 0.3553932193844087
1.3068123540514631 13.08451770927557 806.9128373405547 41.932842966387035 0.3609998015895931
1.3338484802446149 13.085235658522414 718.7548011343289 43.85027501514176 0.36674810072059844
1.3608555076413251 13.085033749392702 640.7745830316115 45.85807517110521 0.37264618761201906
1.3877847169226416 13.083779291032403 571.9278604268213 47.96154682510516 0.37870385854980754
1.414641551993396 13.081491748237106 508.9728827166615 50.16541013817564 0.38492658404471525
1.4413631855574172 13.078040994551156 456.9748476208212 52.47495143942873 0.39132168561087705
1.4679571366463566 13.07344563623875 409.1156073949523 54.89655125441576 0.3979006753642197
1.494366216047365 13.067582863001121 366.61916373390324 57.43639707358033 0.4046726103408934
1.5205772808725082 13.060443547663233 328.91247336134177 60.10111428361096 0.41164725733701407
1.5465601932625057 13.051961411873327 295.3579874351366 62.89780558543056 0.41883515134297056
1.5722767066807888 13.042084217205584 265.53397986872113 65.8340941858809 0.4262476587476777
1.5976999478665856 13.030759336570723 238.98441878641245 68.91817114615137 0.43389704587108574
1.6227868893198318 13.017944667447054 215.28906230158967 72.15884731762057 0.44179655345163904
1.6475392530177146 13.00360863735505 194.14128636244808 75.56561034976394 0.4499604777911038
1.671888072344984 12.987680700820379 175.28142077533744 79.14843503878642 0.4584032058190749
1.6958251958006627 12.970137857195736 158.40344690279548 82.91742823983127 0.4671376627982967
1.719290705984843 12.950899802251145 143.3216250575522 86.88536176651276 0.47618555826389786
1.742292402646857 12.929997871128126 129.8111307266258 91.0638618814125 0.48556143881952957
1.7647724461099348 12.907356865111948 117.70927510217123 95.46690730613534 0.49528679618371435
1.7867003261669867 12.882927158836315 106.84863317056252 100.10827067430098 0.5053795776699741
1.8080393260650325 12.856680436463227 97.11024426854921 105.00441658002313 0.515865259583614
1.8287516679456335 12.828552242193865 88.35198465898748 110.1718789387192 0.5267663689647211
1.8488314497152372 12.798594620225323 80.48472970804524 115.6282224108448 0.5381060535655339
1.868219525383313 12.7666925109578 73.39920320414525 121.39376388641362 0.549914064555362
1.8868905600204147 12.732853124359213 67.02383941033828 127.48985904732154 0.5622199726810972
1.9048151825008195 12.697045374555119 61.27212446189444 133.93900127068437 0.5750532836708501
1.9219592472412526 12.659238608336011 56.08916465706583 140.76672908244115 0.5884498061367984
1.9382741625177056 12.619360187805345 51.40362421839875 148.00077838259324 0.6024480424758765
1.9537741604459964 12.577526398162103 47.17348740199284 155.6697213719988 0.6170840362678555
1.9683929274509957 12.533609547576079 43.34992454829854 163.80710550906016 0.6324050745957933
1.9821117002059148 12.487619911763508 39.889401394099316 172.4466037733329 0.6484524168435046
1.9949046867926166 12.439553494700144 36.754041289354795 181.6276540846751 0.6652797692919826
2.006744059202723 12.389404724782136 33.912430438703886 191.39215602396763 0.6829412442995915
2.0175947802278595 12.33714272310366 31.33639584821532 201.78611984292132 0.7014960440396594
2.0274346186931482 12.282768433709526 28.99803995545485 212.85956012560834 0.7210071099770373
2.036248668248762 12.226314258301658 26.87699638065736 224.66775153393152 0.7415441355313062
2.0439984326184546 12.167732693856179 24.948423533129844 237.2720110183557 0.7631848214185647
2.0506625839569024 12.10703976224663 23.1929776774633 250.73906513726294 0.7860113808916278
2.0562396784567154 12.044306923291687 21.59814306260336 265.14192620433636 0.810111770796401
2.060691946624576 11.97946906203766 20.145812569142407 280.5625122079067 0.8355863547389573
2.0640018365017596 11.912589280177372 18.825561828095456 297.09024927616457 0.8625412157491247
2.066168528359292 11.843698789818346 17.62250378563079 314.8255615619014 0.8910971094154958
2.0671661118700566 11.772819631757525 16.52769561573574 333.87788605577515 0.9213801341859706
