M[M_sun], R[km], Lambda[1], P_c[MeV/fm^3], rho_c[fm^-3]
0.24162668629717493 15.618656898711224 2160425.4255784233 3.5677272577965504 0.1711233750220791
0.25364618116108284 15.277220111360435 1723190.0070557198 3.784860482535055 0.1738886825593775
0.2660440268105796 14.981186279938266 1382951.8130323791 4.011487417668044 0.1766676995739538
0.27882221980417593 14.723385883407087 1116280.0898864605 4.2478628850736655 0.17945907619300977
0.29197939907489023 14.498275277264431 905762.113819885 4.494612641204655 0.18226938905953438
0.30551705662467116 14.301063090065679 738555.851803374 4.751894538491826 0.185094388431267
0.31943509111712404 14.128000427057138 604994.4217286198 5.020387258760851 0.18794061380746596
0.33373774945324214 13.97578910545836 497555.9321447345 5.300319765744016 0.19080478405938656
0.34842190016886787 13.84185121376654 410897.3665130657 5.592415127850413 0.1936930832327595
0.36348611279637527 13.723836029358239 340569.4308822614 5.902023285702107 0.1969122981009404
0.37559608999136274 13.635612732788356 293787.798827968 6.260809776096068 0.36950975395926616
0.38049519674976967 13.579836174946886 273965.18900339305 6.678418056554439 0.5970448313230687
0.3808471102315667 13.532271534913155 266720.9810645698 7.260881078457723 0.791832694453056
