M[M_sun], R[km], Lambda[1], P_c[MeV/fm^3], rho_c[fm^-3]
0.24162668629717493 15.618656898711224 2160425.4255784233 3.5677272577965504 0.1711233750220791
0.25364443000668124 15.277276801337017 1723207.6598663798 3.7848276666476153 0.17388827352517147
0.2660408223974102 14.981252615092037 1383005.5751219175 4.01141843141405 0.1766668659157872
0.2788166294464523 14.723472073813797 1116380.991092434 4.247755393810761 0.17945782945634595
0.2919709768437329 14.498403313115029 905830.0209017014 4.494463823525383 0.1822677319401369
0.30550670748614994 14.30120676038634 738582.369144103 4.751699340474467 0.1850922799201385
0.3194234455025568 14.128116938713864 605105.8887237685 5.020144241737703 0.18793809241205486
0.3337214905313656 13.975964821282128 497678.11081062816 5.30002253072338 0.19080179139593087
0.3484042493672987 13.842000239325932 410989.86042144796 5.592062931899263 0.19368967564004633
0.36346704181046824 13.724002789441348 340655.40699198144 5.896432599963352 0.19659680578858107
0.3789217565551897 13.61996690487623 279372.2518437356 6.213995689789676 0.19953086406694634
0.39475501063012625 13.528424514191506 236394.51127356393 6.5450092639229585 0.20248802246373418
0.41097981643801884 13.447865572443499 197859.16547642893 6.890176465317286 0.2054720046468474
0.4275886809284394 13.377028686802308 166064.50590055998 7.250202118469254 0.2084858787748177
0.44458427065633754 13.314924072364057 139794.17395177105 7.625344786026623 0.21152518480462418
0.4619662557551892 13.26056829465065 117975.06430776128 8.016554319642866 0.21459609754486347
0.479732306798888 13.213123749262682 99807.01322782312 8.424535413363529 0.21770025846285349
0.4978897194102921 13.171961048122641 84637.05192394217 8.849728489680025 0.2208351288250866
0.5164286653944967 13.136378160869608 71930.95442323391 9.29300776969989 0.22400412916225057
0.5353477293423223 13.10582874730149 61269.62331957184 9.755257752039629 0.22721017314185504
0.5546550897525114 13.079790380636455 52300.31903282341 10.237288116902157 0.23045461184783245
0.5743382072605719 13.057842074908232 44727.06994967945 10.739569120543928 0.23373412992954604
0.5943960304032242 13.039509650751514 38322.100821769985 11.263347354553733 0.2370549388746858
0.6148337508705338 13.024492015759693 32898.49619253998 11.809559669377022 0.2404186429688753
0.6356396298924368 13.012434393367762 28290.01052118742 12.37918519400297 0.24382687538456085
0.656809783514805 13.003008144742978 24368.390552907418 12.97291184155999 0.24727757393457112
0.6783423676348813 12.995987053806102 21025.677720397194 13.592068677379938 0.25077554906075833
0.7002302710350367 12.991058142377714 18170.79351991349 14.23785248533711 0.2543234260798447
0.7224657872133278 12.988000377580443 15728.17946992741 14.911453114763116 0.25792318992112284
0.7450546499532269 12.986655013400318 13632.321831579236 15.613897727676475 0.2615747113821226
0.7679758725993184 12.986759820873399 11835.094824541187 16.34645767584164 0.26527993657322
0.7912223136200157 12.98813663897311 10287.924064775936 17.110746760775548 0.2690435318094218
0.8147978709950965 12.990665625501455 8955.006628841711 17.908220240499496 0.27286793008737814
0.838680914246438 12.994133798356232 7806.36417800777 18.740237311021072 0.2767541569209599
0.8628607684976565 12.998408459513195 6813.266458108422 19.608154875475368 0.28070280370209744
0.8873423031303042 13.003358351826614 5954.567733179585 20.51405308292291 0.2847201773769892
0.9120996899046611 13.008850644896714 5210.402318493663 21.459726336037605 0.28880929183957593
0.9371214860407887 13.014747016058507 4564.64826154045 22.446650840264223 0.2929700041721982
0.9624052557788849 13.020956847081159 4003.9439285522626 23.47686814529774 0.2972062425109308
0.9879258062810011 13.027336759048003 3516.123753087834 24.552793225927637 0.30152404490819973
1.0136693963884378 13.033797751061678 3091.67378200619 25.676358749335243 0.30592497036413885
1.0396346206926088 13.040255976890322 2721.0846203615624 26.849545641073185 0.31041042350587317
1.0657855073143667 13.046583712835217 2397.842277113681 28.07544170999292 0.3149890694981467
1.0921187863909128 13.05270889265106 2115.4922031020687 29.356089618107926 0.3196612679578475
1.1186184194921225 13.058547957665745 1868.3036755949915 30.69427027916299 0.3244318753267694
1.1452491157679678 13.064003063543671 1651.9077288169528 32.09335831809375 0.32930877782672247
1.1720127387807688 13.069011659759182 1461.8589365031082 33.555320883467985 0.3342898414643957
1.198870560233008 13.07346851120665 1295.2473280518204 35.08468850672075 0.33938855188538164
1.225816205177046 13.077334923261578 1148.88457419774 36.683469373941975 0.34460157744760206
1.252812069697224 13.080501346115707 1020.0243367903697 38.35673124546942 0.3499434501462196
1.279856378744976 13.082940244653818 906.5448165442187 40.10672992909359 0.3554108399969205
1.3068995636385872 13.084527286799391 806.6113116263199 41.93890771225397 0.36101813623515383
1.3339384550753903 13.085236409925361 718.5046351704486 43.85677679728655 0.3667674273796069
1.3609462454398442 13.085034817053714 640.5227585631641 45.865000365974716 0.372666325137983
1.3878778251409483 13.083771634253972 571.7131192139707 47.96892501259168 0.37872485925312493
1.4147351559270311 13.081479930121217 510.73837560150906 50.173322223475374 0.38494875457965494
1.4414591582046543 13.078026627864253 456.814944196389 52.483384862181175 0.3913448406300248
1.4680533900512411 13.073428941226835 408.9508836886762 54.90554335732821 0.39792488048806557
1.4944631047418144 13.067560455780196 366.46950711145087 57.44598822419016 0.40469793626276274
1.520675089959727 13.06041176471153 328.77770794799676 60.11134814511006 0.411673780239663
1.5466591873321367 13.051925839323303 295.24315246974845 62.908729414511654 0.4188629533564649
1.5723752188010285 13.04204212434368 265.4145714399667 65.84575916061792 0.42627682845299164
1.5978004412722393 13.030711797286443 238.88493567746653 68.93063272728791 0.4339276788543679
1.622886232627387 13.017889338195166 215.19281974970377 72.1721656470566 0.4418287529146853
1.6476391672006427 13.003548869202639 194.05735055409403 75.57985069050207 0.44999435522424774
1.6719878951943805 12.987614657947736 175.1964207038617 79.16359390229054 0.45843857127420135
1.6959248836829284 12.97005896307416 158.3391405166483 82.93365352601941 0.4671749484587014
1.719405229421323 12.950846481456132 143.25540842405593 86.90273699959084 0.4762249046180424
1.7423874666831363 12.929907955007883 129.76200198799864 91.0823942936629 0.4856026666152509
1.7648697203756605 12.907254069739238 117.65950250560874 95.48677542862241 0.49533039128078715
1.7867970063545766 12.882816125891592 106.80973399970053 100.1294918068167 0.5054253719532902
1.8081345709299266 12.856556509542026 97.06842234421873 105.027100765788 0.5159134294996336
1.8288437603363266 12.82841845359924 88.31619554154926 110.19614620831264 0.5268171053701589
1.8489233099867004 12.798449801878453 80.44998058448654 115.65430294409823 0.5381599269475353
1.8682995066368775 12.76650967682537 73.37403767763585 121.42170513545162 0.5499709426990779
1.886977501049033 12.73268680200742 66.99614776933893 127.51979134850474 0.5622800050257243
1.9049009576260219 12.696867397551138 61.24581265673066 133.97103923158795 0.5751165365533722
1.9220406001463743 12.659049278165028 56.063653826020534 140.80114025950078 0.5885168521956198
1.93835395600196 12.619158927868652 51.38198476389717 148.0377688477424 0.6025191954759813
1.9538492152699976 12.577311992796004 47.15689506068813 155.70939562374767 0.6171592229463682
1.9684669771917254 12.533377911057554 43.33167508787975 163.8497039733003 0.6324846488810119
1.9821793556151979 12.487375651530655 39.870687031808856 172.49251867913864 0.648537193696843
1.994968771628148 12.439295778271667 36.73952216015653 181.67705187816364 0.6653697480577612
2.006803564650721 12.389135105416386 33.898301460066726 191.44535748925082 0.6830368852117866
2.017649855165418 12.336857435075519 31.322939348119395 201.84347884238193 0.7015978506057032
2.0274851329838772 12.28247003833789 28.986387869140678 212.92132278907377 0.7211151600616272
2.03629461301931 12.226001639412214 26.865609054220812 224.73448953238338 0.7416594937504366
2.044037557285381 12.167403077288284 24.937357506920037 237.34404948430083 0.7633076536205674
2.050696383727375 12.10669388045702 23.183677791770474 250.81693514201532 0.7861424231469308
2.056268415131847 12.04394430619195 21.590177065466065 265.22634421899033 0.8102522472773684
2.0607135223038062 11.979092218007333 20.138267734883957 280.6538097173871 0.8357361039038143
2.0640179302827226 11.912194782792904 18.819043965332554 297.18930034951165 0.8627016962360287
2.066178081017468 11.84328995298479 17.616024547974448 314.93316158532747 0.8912693558897052
2.067168033454244 11.772397810328386 16.5204689788149 333.9947447095059 0.921564703094935
