M[M_sun], R[km], Lambda[1], P_c[MeV/fm^3], rho_c[fm^-3]
0.24162668629717493 15.618656898711224 2160425.4255784233 3.5677272577965504 0.1711233750220791
0.2536437487624311 15.277279062082238 1723132.1481547921 3.7848149859942644 0.1738881154669448
0.2660392709606362 14.981270754997706 1383052.9219691188 4.011391774103162 0.17666654377791718
0.2788140329757427 14.723531927556662 1116430.4679173478 4.24771385793594 0.17945734770279126
0.29196752480391946 14.498468261148595 905926.0238301627 4.49440631910403 0.18226709161505905
0.30550464541634753 14.301194716880666 738656.9712428941 4.751623914908625 0.18509146518007555
0.3194193071152558 14.128168329212052 605126.8209186546 5.020050339373109 0.1879371181387792
0.33371748650485084 13.975944539253732 497688.9735589098 5.299907679305062 0.19080063503272135
0.34839742702147214 13.84205682411653 411023.7643550061 5.591926844620169 0.1936883589581848
0.36345902764068067 13.724024929174478 340675.1801381865 5.896272219362549 0.19659529946003818
0.3789126211349106 13.620025678105106 283325.1898296583 6.213809074967851 0.19952916236447016
0.3947444602531618 13.528479756851493 236412.9598098519 6.544796608582824 0.2024861577636845
0.41096844897771934 13.447896691821462 197873.81431326017 6.889933664073984 0.20546993684957185
0.4275761400489737 13.377079865193185 166096.5345368989 7.249926892831366 0.20848360190364973
0.444570334333287 13.31495006194322 139814.573660115 7.625037896641855 0.2115227417677922
0.4619508733830696 13.260595634761621 117988.79875346604 8.016210413519586 0.21459343715296375
0.4797151145899922 13.213173115161151 99818.61770540389 8.424151808688329 0.21769737429196548
0.49787228546769297 13.171991080963682 84651.84419820826 8.849306600823498 0.22083207416950612
0.516410502662521 13.136406972390219 71945.09053385038 9.29254076904799 0.2240008414485471
0.5353269551038693 13.105857236625555 61281.43567625759 9.754742473106514 0.22720664526952591
0.5546329384635201 13.079816289427761 52303.90983552288 10.236721200788443 0.2304508364076698
0.5743141242036452 13.05785461404565 44735.18556334136 10.738953030479001 0.23373017444048838
0.5943698084488385 13.039538137313833 38332.71375458941 11.262672825242422 0.23705072440334224
0.6148059520948778 13.024515142295634 32905.09363213313 11.808822715896117 0.24041416106213168
0.635609587636372 13.012451248512305 28295.30543965382 12.378381582814601 0.2438221171430842
0.6567781958675281 13.003046718706303 24373.925701960023 12.97204526298225 0.24727262092677804
0.6783096983910868 12.995992747183623 21030.447766105557 13.591126825537728 0.2507703050820381
0.7001964694175333 12.991072826450159 18174.868878344638 14.23683031001132 0.254317880728815
0.7224304365745877 12.988006388780189 15731.67598221332 14.910345241241705 0.25791733217619905
0.7450170991557077 12.98665443196111 13635.88246314607 15.612709245608196 0.2615686366501409
0.7679368247976016 12.986760283189664 11756.445517697643 16.34517249033995 0.2652735302458298
0.791179803585408 12.988137015215827 10290.361285928426 17.109358421547636 0.26903678078588755
0.8147523317771276 12.99067210023242 8957.555810951886 17.906721869597323 0.272860820424586
0.8386367996905764 12.994121911270478 7808.599347565821 18.738635554387127 0.27674679767799804
0.8628156379839389 12.998386403486045 6815.592582341101 19.606428905916484 0.28069506036519876
0.8872883661642738 13.003351915162483 5920.342627241526 20.512194593117272 0.28471203318649746
0.9120483373203719 13.008845330594122 5211.971935083972 21.457726449786094 0.288800728905788
0.9370680763681307 13.014728854720289 4566.00634116676 22.44451788847318 0.2929611451047768
0.9623453496702269 13.020924774412334 4005.1575565673747 23.474575360344268 0.297196930829982
0.9878686555455011 13.027322737424715 3517.1402834636983 24.55032981554607 0.30151425894818956
1.0136098653344585 13.033782940742894 3092.3165434218586 25.673734249195558 0.3059148419126496
1.0395727062438938 13.040238710669778 2721.840892493431 26.846727965422065 0.3103997788346408
1.065723495218755 13.04656509875335 2398.7628472543247 28.072417668991445 0.3149778822555284
1.092053484367683 13.052691995258838 2116.242473220231 29.3528699296623 0.319649679056342
1.118550940847956 13.058529532231978 1868.9107909468098 30.69081650263332 0.32441969190626185
1.1451812680635667 13.063990553960007 1652.384197942755 32.08968172607167 0.3292961454186643
1.171942044336837 13.068997763635148 1462.317022598475 33.55137834907071 0.3342765547169846
1.1987971321983832 13.073462336062155 1295.6324099976628 35.08046142156182 0.3393745740607264
1.2257415724687644 13.07733134402385 1149.2347647240158 36.6789700049019 0.3445870631795661
1.252736076367049 13.080496341282261 1020.3227823698415 38.351932684315365 0.34992831643691746
1.2797776877637292 13.082929514308294 906.8715666415826 40.10159502890162 0.3553949543311859
1.3068212626021845 13.08452410467727 806.8902636336949 41.93344010745145 0.3610016068374973
1.3338567474358716 13.085236145094989 718.7491014160192 43.85091518572605 0.3667500036386468
1.3608642660947805 13.085037028037132 640.7405442969032 45.85875702989964 0.37264817036476977
1.387794066102053 13.083781402376179 571.8937715875642 47.96227328436747 0.37870592628737426
1.4146507159488726 13.081488725626828 510.9276145005503 50.166189163296 0.38492876695895284
1.441373153214031 13.078039857261658 456.9614331930921 52.47578179378798 0.39132396545284065
1.4679670363048882 13.07344299063384 409.09236664310936 54.89743661451626 0.3979030585943817
1.4943759727941746 13.06758035094639 366.6046641718665 57.437341413715416 0.40467510391913575
1.5205868140084813 13.060439722429923 328.8951439380949 60.10212190252603 0.4116498687636387
1.5465698851143121 13.051958059386537 295.3441918430986 62.898881135643926 0.41883788870377364
1.5722866693638362 13.04207981252924 265.5230347385926 65.83524270596168 0.4262505307635251
1.597709772495474 13.03075458273311 238.97085204243223 68.91939809628579 0.4339000619524757
1.622796760998401 13.01793950120936 215.28128388678795 72.16015861883976 0.4417997237587975
1.6475489742455696 13.003603946648878 194.13880647358565 75.56701242725282 0.449963813300223
1.6718974573724885 12.987672473790163 175.26533977214524 79.14992754916341 0.45840668782870897
1.6958350204840615 12.970131869206002 158.39737607324471 82.91902574382506 0.46714133385782175
1.7193156553427125 12.950924361236703 143.3073175463693 86.88707248704418 0.476189432204211
1.742301663769638 12.929990426328626 129.8051743217803 91.06568653057907 0.4855654979922959
1.7647818921982898 12.90735132754568 117.70722171298307 95.46886346008671 0.4952910884222716
1.7867100519817942 12.882915259673043 106.85125669140844 100.1103600362743 0.5053840864224681
1.8080483977454778 12.856667150357946 97.10522446914248 105.00664998363818 0.5158700022208719
1.8287608963568114 12.828538608144973 88.3505918115052 110.17426820078829 0.5267713642761453
1.8488399425198017 12.798580876090769 80.47782915559675 115.63079019189084 0.5381113577151019
1.8682277922673631 12.766679437082082 73.39511670960809 121.39651485808334 0.5499196645255628
1.8868992137113294 12.73283599665734 67.02325781059396 127.4928086534216 0.5622258925170047
1.90482526464333 12.697027581348445 61.27049855785004 133.94215556903083 0.5750595112351868
1.9219669870331573 12.659220514787888 56.08691548656832 140.7701170253531 0.5884564071379604
1.9382831404134881 12.619340762349001 51.403123409855795 148.0044202569511 0.6024550478023984
1.9537819985970264 12.577505256827637 47.17244590369085 155.67362746545487 0.6170914387059602
1.9683999243541774 12.533586157417668 43.348019717445496 163.81129949040707 0.6324129089878038
1.9821178168032363 12.487595902384747 39.8881255214583 172.45112425507187 0.6484607634187765
1.994913684703633 12.439526551914232 36.75359113603329 181.63251745270958 0.6652886279842919
2.0067493456314467 12.389377659097876 33.90947355638989 191.39739385746643 0.6829506604156906
2.0175993757065616 12.337114831091434 31.333798984354296 201.79176697720743 0.7015060671459734
2.027439701048831 12.282738855952594 28.99772579246008 212.8656407908208 0.7210177477370319
2.036254498919465 12.22628239077433 26.87558810310402 224.67432200621639 0.7415554927490714
2.0440023572205037 12.167699836179018 24.947200905036183 237.27910330476664 0.7631969144184039
2.050665547706244 12.107005721973016 23.19243530665384 250.74674108231065 0.7860243132806974
2.0562415798073994 12.04427145799212 21.597286085578066 265.1502372069371 0.8101256007875877
2.060692671368242 11.979432558422404 20.14507642697015 280.5715004657774 0.8356010975738638
2.06400312713901 11.912547510612761 18.824791375986717 297.1000008316838 0.8625570150163604
2.0661687851311084 11.843658709447993 17.621998246833687 314.8361547119052 0.8911140669651396
2.0671662182928743 11.772778377683725 16.52633679786027 333.88939066066484 0.9213983047904126
