M[M_sun], R[km], Lambda[1], P_c[MeV/fm^3], rho_c[fm^-3]
0.24162668629717493 15.618656898711224 2160425.4255784233 3.5677272577965504 0.1711233750220791
0.2536448457575352 15.277249538300632 1723235.4337681606 3.7848355721324944 0.17388837206322677
0.26604098619248906 14.981258851105302 1383038.9460999365 4.011435050414293 0.17666706674659727
0.27881830400883234 14.723446081802216 1116473.3658496353 4.247781288669005 0.17945812979767886
0.2919729014275459 14.49836089238427 905815.8231990444 4.494499673841648 0.18226813114172893
0.3055092721374446 14.301184638137109 738645.8634910345 4.751746363647382 0.18509278786015107
0.31942805168729954 14.128053586238547 605041.712599652 5.020202784255192 0.18793869981326913
0.33372749308135585 13.975856524580879 497672.8751876162 5.300094133982105 0.19080251232193493
0.3484083320959584 13.841913840965884 410952.7039833614 5.592147774780786 0.19369049651826453
0.363472331109075 13.723925030586514 340637.30074608384 5.896532588736353 0.196597744904297
0.3789266374385017 13.61995496219076 283264.5610896656 6.214112034609128 0.19953192499161146
0.394760640179293 13.528391626224652 236376.32674187722 6.545141844098591 0.20248918501276744
0.4109869286997983 13.447832374725582 197838.56864082805 6.890327840501963 0.20547329382144225
0.4275961160317493 13.377004558084014 166053.9551323409 7.250373709325205 0.20848729830199403
0.4445919085096905 13.314884656761937 139777.1959990259 7.625536118391742 0.21152670793327683
0.46197574302505817 13.260518839187597 117961.80399246233 8.016768731072087 0.2145977561906127
0.4797422610197973 13.21310441537615 99795.7158469459 8.424774576014041 0.21770205663164208
0.49789957703818766 13.171948876885445 84624.54333836913 8.849991521802092 0.22083703329003534
0.51644085138429 13.136358051209637 71928.35461727962 9.293298928315046 0.22400617893705288
0.5353605746634695 13.10581462835158 61264.69788225522 9.755579011528996 0.2272123726543718
0.5546684321105093 13.07977864195715 52293.57477751995 10.237641571629574 0.2304569657184339
0.5743533374130915 13.057811916034117 44721.41853886481 10.739953234789635 0.23373659606198716
0.594412214028303 13.039495082935929 38321.30896648716 11.263767905329262 0.2370575664835417
0.6148510977434479 13.024476228663614 32894.04626811665 11.810019141415857 0.2404214373254836
0.6356563355463639 13.012419887870674 28054.0812208089 12.379686227068424 0.24382984203851954
0.6568287956980564 13.003014970476464 24365.683691822793 12.973452134807825 0.24728066202921808
0.6783619624506753 12.995980073517268 21023.15640160691 13.59265590378641 0.2507788185800622
0.7002525668050218 12.991057393750577 18167.93602196857 14.238489793929219 0.2543268835100608
0.7224884019913338 12.987996329101756 15725.36171982976 14.91214385691624 0.2579268421352636
0.7450782620045884 12.986639041220018 13630.564123346467 15.614638729994871 0.261578498894448
0.7680006922072541 12.986751206080479 11833.364168028013 16.34725897400657 0.2652839308435997
0.7912484404851866 12.988143303070824 10287.539166660083 17.111612376878647 0.26904774100740897
0.8148231133408969 12.99066718442554 8953.426060016862 17.909154463314792 0.27287236290783656
0.8387087684994909 12.994143522118861 7805.451988114186 18.741235996694154 0.2767587453648938
0.8628902351511032 12.99842321420042 6812.101958535319 19.60923101066678 0.28070763164201834
0.8873734538770486 13.003375547895446 5953.686184320904 20.515211847756348 0.28472525526415865
0.9121290689526047 13.00886690681667 5209.517104466078 21.46097326538897 0.28881463082996395
0.9371541957471514 13.014747624924526 4563.822817920295 22.44798073954877 0.29297552781669634
0.9624397697094254 13.020965607629298 4003.4542683493296 23.4782977056016 0.2972120483800886
0.9879614113832125 13.027346883016081 3515.483424881854 24.554329176994695 0.30153014651263893
1.0137062538634751 13.033808617841796 3074.359983934602 25.677995145267165 0.3059312855311922
1.0396721647580922 13.040263276616361 2720.5940169229134 26.85130248938716 0.31041706056244844
1.0658251599008262 13.046593195527537 2397.3996542381483 28.07732723559014 0.3149960448772202
1.0921593796947597 13.052723440427842 2114.977530121676 29.358097137798588 0.3196684937961105
1.1186599785638025 13.058554359797965 1867.7825324343576 30.69642376349239 0.32443947188228367
1.1452923643847122 13.06401065899263 1651.5308112146336 32.09565073791534 0.32931665435543517
1.1720571763268777 13.069023103937115 1461.487623540391 33.55777913180684 0.33429812601475367
1.1989145895763702 13.073481646092905 1294.9639378549512 35.087324187615465 0.33939726736756576
1.225862457583906 13.077339585010845 1148.6392117481253 36.6862748381139 0.34461062744074417
1.2528597704406506 13.08050176386786 1019.8694593529959 38.359717879594136 0.34995285477076005
1.2799040843046554 13.08293906100031 906.406638571602 40.10993168369251 0.3554207451560125
1.3069489044772076 13.084527140519508 806.529646028925 41.942316928041876 0.36102844281097457
1.3339881012360635 13.085237353957753 718.3478966226028 43.86043170218855 0.3667782916471532
1.3609978750806246 13.085029739073919 640.3756077402094 45.86889330090916 0.3726776452639571
1.3879302421933764 13.083766415726373 571.594297728562 47.973072607562436 0.3787366646472845
1.414780296312104 13.081462554909356 510.63026226155506 50.177769964370256 0.3849612176397936
1.4415125569132872 13.07802085722326 456.69755901877335 52.48812568750401 0.39135785716012755
1.4681078437055082 13.07341646930957 408.8635110883281 54.91059826173698 0.39793848738162924
1.494518267948961 13.067546769853447 366.3871943737939 57.451379903076266 0.4047121732655759
1.520730424178277 13.06039612853071 328.7212431965203 60.11710114688296 0.41168869018406423
1.5467147318698036 13.051905897194153 295.1768883549931 62.91487030808148 0.41887858241882275
1.5724309765681563 13.042019611141802 265.3599434143884 65.85231671976558 0.4262932264368903
1.5978448039420041 13.030679163951636 238.8176879331497 68.937638133824 0.4339448995022899
1.6229425712338397 13.017857030321677 215.15308960377163 72.17965271489892 0.44184685425130354
1.6476948595818959 13.003514288607283 194.0189546317756 75.58785611306881 0.450013399934819
1.6720422189197943 12.987577245465014 175.15736235590143 79.17211571752838 0.45845845257165535
1.6959807154512392 12.97001523956894 158.30261771509842 82.9427748901947 0.46719590932701044
1.719460865576685 12.950797821391506 143.22158979464166 86.91250487419099 0.47624702404812597
1.7424430030617843 12.929853099160093 129.72606577136406 91.09281274422563 0.4856258438328592
1.764924541057169 12.907194844076713 117.63242752086157 95.49794483577162 0.49535489945407996
1.786851408201995 12.88275444680387 106.78548588946506 100.14142189656641 0.5054511165693978
1.8081881710149759 12.856486919700897 97.04769005826871 105.03985341080009 0.5159405097680473
1.8289011308329781 12.828356202482981 88.29319599105722 110.20978889721749 0.5268456286035977
1.8489747988847902 12.798367583660246 80.43009803231173 115.6689651012507 0.5381902139046909
1.8683496973901317 12.766421902752144 73.35538099060226 121.4374134407474 0.5500029190522084
1.887024728551815 12.732595797918265 66.97775310989718 127.53657427663012 0.5623135947275998
1.9049473439108233 12.696768360752854 61.23072482810441 133.98905084194868 0.5751520970647798
1.9220866411003095 12.65894259251056 56.05137827087035 140.82048618612657 0.5885545454175709
1.9383986295875604 12.619043718828285 51.37084973483191 148.0585649626013 0.6025591978375837
1.9538922458798877 12.577191686129552 47.14467695356734 155.73170068290835 0.6172014932662456
1.9685061768305674 12.533249697934373 43.3220801446548 163.8736531664217 0.6325293861727942
1.9822184475131543 12.487241097285501 39.863552623608584 172.51833255956373 0.6485848562046166
1.9950054959597074 12.439148895269925 36.73038947948563 181.70482403659187 0.665420335429421
2.0068371693287266 12.388981783276526 33.88869034772438 191.475268305207 0.6830906562443574
2.0176803203812455 12.336697432781389 31.31544229688511 201.87572729748553 0.7016550884324643
2.0275144319138287 12.282304319355182 28.980045805460687 212.9560472820402 0.7211759084845717
2.0363199232878304 12.225823167060124 26.859081376959445 224.77201153083945 0.74172435141804
2.0440594504618157 12.167220106608125 24.932021099561876 237.38455181476502 0.7633767138146162
2.0507154594631687 12.10650023946843 23.17848087021123 250.86071047658282 0.7862160803613994
2.0562845860519627 12.043740637595524 21.586101924919152 265.27380269372395 0.8103312134409264
2.060725835860282 11.978880262209774 20.134473437813053 280.7051411665617 0.8358202994277508
2.0640275349738073 11.91197393906501 18.813444035066453 297.2449916091254 0.862791926055425
2.06618357653543 11.843059362174138 17.578185301943208 314.9936599462543 0.8913662018664372
2.0671706716143023 11.772156939048658 16.51760541268839 334.06044926174684 0.921668478186757
