M[M_sun], R[km], Lambda[1], P_c[MeV/fm^3], rho_c[fm^-3]
0.24162668629717493 15.618656898711224 2160425.4255784233 3.5677272577965504 0.1711233750220791
0.25364384400569867 15.277269285959918 1723233.932403287 3.7848181230393787 0.1738881545686988
0.266039812999066 14.981259074728053 1382958.250110708 4.01139836879787 0.1766666234709108
0.278814936563281 14.723524286571143 1116459.5364121008 4.247724133388765 0.17945746688255926
0.29196918734686456 14.498421403485777 905896.0203826055 4.494420544950397 0.18226725002316
0.30550399312844256 14.30125069049971 738649.7936194309 4.7516425741813135 0.18509166673583236
0.31942081923865673 14.12814429521222 605150.0842762815 5.0200735695203385 0.18793735916052273
0.3337180312442521 13.975980895255661 497697.2479226133 5.299936091911355 0.1908009211005217
0.3483991141031888 13.842042564602595 411015.0799824287 5.591960510623924 0.19368868468603231
0.36346152503375023 13.724005532435173 340660.8103135535 5.896311895114489 0.1965956721030967
0.3789148001100463 13.620010471516858 283309.58358811855 6.21385524059753 0.1995295833394258
0.39474647441937327 13.528491823583588 236410.67231169902 6.544849216157663 0.20248661906104648
0.41097164814122567 13.44787827719699 197877.5473201777 6.889993729174398 0.2054704483891723
0.42757920226927737 13.377066430559257 166088.75317676313 7.249994979095429 0.2084841651638633
0.444573742180248 13.314944597172023 139810.26295081995 7.625113815885454 0.21152334613378715
0.4619542206465935 13.26058683863179 117983.64796273307 8.016295489946607 0.2145940952879081
0.4797192736771343 13.213159226256296 99815.12803229809 8.424246705704322 0.21769808778486216
0.49787611184353453 13.171992564903576 84648.7697183192 8.849410968527959 0.2208328298362793
0.5164137472603301 13.136420566763336 71942.19184901059 9.29265629642252 0.22400165476846606
0.5353320934041195 13.105852229805807 61280.82839425741 9.754869943446979 0.2272075179989507
0.5546374998407323 13.079823377693769 52300.39004297001 10.236861444986642 0.23045177037932038
0.5743205221771803 13.05785817740532 44732.82401709314 10.739105439174015 0.23373115295152067
0.5943769168678976 13.039527910535787 38330.13232048523 11.262839690420064 0.23705176697999178
0.6148127727923837 13.02450992056942 32625.415880147833 11.809005023302932 0.2404152697953383
0.6356169309447802 13.012436702783772 28062.71731748033 12.378580379694796 0.24382329423416313
0.6567860082192555 13.003032256984238 24178.296716691162 12.972259636429916 0.24727384619749693
0.6783182294628423 12.995975331069749 21029.414903254983 13.591359819672812 0.2507716023309594
0.7002047045673853 12.99106165461939 18173.197585461676 14.237083174093106 0.2543192525287997
0.722439644350117 12.987999797803237 15731.09401242782 14.91061930479607 0.25791878125352
0.7450257654605092 12.986653598075485 13634.57910230048 15.613003249582212 0.26157013940343554
0.7679458123963303 12.986763044540284 11837.40826179214 16.34549041611379 0.2652751150260738
0.7911900707932542 12.988131179237826 10289.370435086968 17.109701864702277 0.26903845083364897
0.8147626546168832 12.990665245195464 8957.068173661373 17.907092531497877 0.2728625791888005
0.838646012661737 12.994133419991277 7808.089358850239 18.73903179101235 0.2767486181802726
0.8628271159015668 12.998399608005595 6815.2329392869615 19.60685586923077 0.28069697588031833
0.8873008814236426 13.003346567956562 5955.774379018785 20.512654338052474 0.2847140478600881
0.912061547341925 13.008843325817557 5211.619778422746 21.458221171989624 0.28880284716299837
0.9370805489654335 13.014738256385659 4565.553835746607 22.445045527134134 0.2929633366153825
0.9623587742393441 13.020925683733626 4005.0201770344624 23.47514253683769 0.2971992343022463
0.9878841392770528 13.02732367311381 3516.883749492921 24.550939199469795 0.3015166797412304
1.0136247171082082 13.03378504651298 3092.1250857505906 25.674383481736516 0.3059173474260603
1.039588594033056 13.04024227744445 2721.704204063711 26.84742498342264 0.31040241204313523
1.0657387616304645 13.046570386799019 2398.558282596947 28.073165735100044 0.31498064967734823
1.0920688325515175 13.052696113645924 2115.955588986433 29.353666392640505 0.3196525458340328
1.1185669245176677 13.058531495112113 1868.7621915699212 30.691670871225803 0.3244227057468335
1.1451999544125167 13.06398604629835 1652.3030990637078 32.090591211845 0.32929927032220074
1.1719598804999605 13.069000643320885 1462.1908701631635 33.5523536199181 0.33427984148029494
1.198814952960903 13.073466603211003 1295.5160429559155 35.0815070804222 0.33937803177109893
1.225760776284846 13.077332457116722 1149.1699596604785 36.680083017414795 0.34459065358564206
1.2527558353705177 13.080488961889618 1020.2974738598085 38.353125855917376 0.3499320961429834
1.27979706895948 13.082934016182673 906.798787242283 40.102865249297984 0.35539888396873903
1.3068407356198752 13.084521450354032 806.8229022577406 41.93479262706259 0.3610056957091876
1.3338770118775596 13.085234039914667 715.7224470620315 43.85236516807246 0.36675431373605594
1.3608841025340495 13.085034954409416 640.6909656559877 45.86030143686198 0.3726526612904244
1.3878149749894602 13.083777464110552 571.8640387160203 47.963918712354136 0.37871060970658
1.4146713713207724 13.081487095544134 510.85580807395996 50.16795365434941 0.38493371125733544
1.4413947767637518 13.07803582901067 456.9324923869171 52.47766254690582 0.3913291292962449
1.4679880792347364 13.073440356353528 409.05828390477217 54.899441957187406 0.3979084566161994
1.4943977842279577 13.067576264209862 366.57957339063915 57.43948034795269 0.4046807518839713
1.5206088510113562 13.060433769489054 328.87318454733247 60.10440416525689 0.4116557836602039
1.5465918032141324 13.05194776493616 295.3195183574954 62.90131726512675 0.4188440888469883
1.572308024749815 13.042069939642431 265.4966824843631 65.83784411489884 0.42625703590681163
1.597732121115878 13.030744166678433 238.94431321641528 68.92217715238633 0.433906893411352
1.622819211804449 13.017925817557057 215.26325135287286 72.16312873367642 0.44180690454700267
1.647571459230488 13.003589329197188 194.12278382680555 75.57018815436385 0.44997136827976075
1.6719203507024627 12.987657361014952 175.2552420028417 79.1533081107086 0.45841457464011776
1.6958585820299101 12.970113013958509 158.38342718047127 82.92264412106641 0.46714964887818394
1.7193376407897705 12.950904210511146 143.29407237443755 86.89094730560399 0.47619820676180197
1.7423236514251892 12.929967506870042 129.79182726727288 91.06981940335193 0.4855746921129598
1.764803678704866 12.90732461583484 117.69198391254768 95.47329419868552 0.49530081045209323
1.7867301131563864 12.88289080887505 106.83878857760875 100.1150924986124 0.5053942988708816
1.80806934122825 12.856640974015733 97.0951446202017 105.011708708864 0.5158807444344924
1.8287816162622648 12.828508427809746 88.3427325763098 110.1796799551135 0.5267826788148706
1.848860879172668 12.798549233025142 80.47257497782407 115.63660630381216 0.5381233717953454
1.868249015104831 12.766643772046889 73.38828694768459 121.40274590927754 0.5499323486623687
1.886918492062595 12.732799391836377 67.01736904891654 127.49948962576012 0.5622393011751797
1.9048423670450123 12.69698927053126 61.26483567767686 133.94930018394433 0.5750736169234094
1.9219861683344075 12.659176559761514 56.08051049622106 140.77779086325376 0.588471358692404
1.9382999357612032 12.619296168049901 51.39725224841307 148.01266927001842 0.6024709151894474
1.953798894661228 12.577456354992526 47.167453254021005 155.68247495624973 0.6171082055866628
1.9684165671923346 12.533535548838822 43.34388466303444 163.8207990716078 0.6324306542844338
1.98213348240748 12.487541357458008 39.88358317160714 172.4613633891475 0.6484796688603233
1.9949235496149813 12.439472879015565 36.74961987938852 181.64353325565693 0.6653086934221032
2.006763406649577 12.38931710800994 33.908155024398276 191.40925786033682 0.682971988475938
2.0176123648636963 12.337051185805535 31.331738404625895 201.80455808683166 0.7015287701038174
2.0274509198425306 12.282672360468215 28.994181955281686 212.87941389153852 0.721041842952719
2.0362625917782347 12.226214758313708 26.871695828124338 224.68920457205186 0.7415812176184217
2.044011056961899 12.167626300519405 24.9452368484048 237.29516783613937 0.7632243059201074
2.0506732435572443 12.106928824686607 23.190190064871526 250.76410363421402 0.78605352784232
2.0562491739546247 12.04419051335201 21.59579796861035 265.1690622713458 0.810156926788477
2.060700053253234 11.979347921879258 20.14425261614202 280.59185959407444 0.8356344912828166
2.0640064377689407 11.912459294650827 18.82349734756287 297.12208892477975 0.862592801684945
2.0661715662119993 11.843567436249424 17.620557241221086 314.8601491257868 0.8911524773024261
2.0671675368963425 11.772684835886695 16.52515893392133 333.91544964103394 0.9214394628683289
