M[M_sun], R[km], Lambda[1], P_c[MeV/fm^3], rho_c[fm^-3]
0.24162668629717493 15.618656898711224 2160425.4255784233 3.5677272577965504 0.1711233750220791
0.2536438507419359 15.277274945907243 1723260.0005241162 3.784816166122556 0.17388813017667465
0.2660394816860207 14.98126473507322 1382945.9781922565 4.011394254967372 0.17666657375769704
0.2788142708709021 14.723530517427095 1116463.9474454706 4.247717723466541 0.179457392537121
0.29196780492154906 14.498452086382564 905906.4525994199 4.494411670734399 0.18226715120670525
0.30550476038242735 14.301207959201244 738673.1680051731 4.751630934350067 0.18509154100343994
0.31941754309613873 14.128214354721806 605104.1010186456 5.020059078331315 0.18793720880884351
0.33371701529748715 13.975979377989681 497691.17096851475 5.299918367850928 0.19080074264864272
0.3483980616328048 13.842051466263579 411020.4865389636 5.5919395094389825 0.19368848149379078
0.3634591045102671 13.724033073342603 340662.2058026488 5.896287144984418 0.19659543964463738
0.37891351435734727 13.620017874359668 283318.5572496264 6.213826442011202 0.19952932073099425
0.3947451818079331 13.528466624092468 236409.75822291122 6.544816399014849 0.2024863312990378
0.4109693050230468 13.447894817938645 197877.88882635845 6.889956259943591 0.20547012928547942
0.42757706418289815 13.377075976619656 166086.633138347 7.249952506171516 0.20848381379624867
0.44457202749531033 13.314938501323113 139808.839482533 7.625066456658717 0.21152296912389046
0.4619525333067917 13.260582956617124 117985.79234219989 8.016242418361893 0.21459368473629378
0.47971612928902735 13.213176685494092 99820.27769129552 8.424187507919935 0.21769764270028055
0.49787305108945473 13.17203766584179 84650.57587892683 8.849345862814832 0.22083235844309873
0.5164123853591318 13.136397620458688 71944.79695759666 9.29258422917187 0.22400114741052865
0.5353288946618411 13.105860327020913 61281.731646154585 9.754790426027505 0.22720697358060596
0.5546351529657071 13.07982956643564 52305.912528170644 10.236773959075975 0.2304511877572837
0.5743164261343927 13.057871590643252 44331.83114961674 10.739010364897952 0.23373054254521802
0.5943734998073009 13.039546959366618 38332.139798256816 11.262735598006584 0.23705111660870867
0.6148089098655591 13.024510887600236 32904.022515461664 11.808891297828545 0.24041457815470726
0.6356129175147708 13.012435669294902 28295.285678635057 12.37845636787281 0.2438225599509631
0.6567812579914541 13.003038696480134 24373.40177471116 12.972125907741917 0.24727308185915434
0.6783134101834585 12.995981408970605 21030.413583848524 13.59121447515337 0.25077079309161526
0.70020036307441 12.991067647593281 18174.15304300286 14.236925434434974 0.2543183967834559
0.7224340162502997 12.988004885983184 15731.303443278122 14.910448340620267 0.25791787730147714
0.7450201317553944 12.98665042101441 13635.61023097447 15.612819846302248 0.2615692019675246
0.7679397285538365 12.986762731264083 11837.818353118459 16.345292090085536 0.26527412642056486
0.7911836483516967 12.988135163777356 10289.996625075233 17.10948762057679 0.26903740903701584
0.8147567798911162 12.990670899181985 8957.572788883159 17.906861307936083 0.2728614820495331
0.838638955163171 12.994119803304077 7808.121639973486 18.73878461357773 0.2767474825278536
0.8628188640859504 12.998400395882221 6815.371840942462 19.606589524047937 0.28069578095745806
0.8872935051832322 13.003340751432878 5956.074213448383 20.512367543220893 0.2847127910806679
0.9120534485879492 13.008846209284801 5211.749963276687 21.45791255782782 0.2888015257665282
0.9370727553008749 13.014734145418602 4565.9058306906545 22.444716379206593 0.2929619695222799
0.9623505684871156 13.020925752890353 4005.127648703783 23.47478872462343 0.2971977973657164
0.9878743390959412 13.027327996543331 3517.0421608263955 24.550559057628067 0.301515169618155
1.0136156998045656 13.033777839128255 3092.2755327261357 25.67397848173145 0.3059157844530421
1.0395783596015136 13.040237680767099 2721.7971984312594 26.8469901741194 0.31040076941188355
1.065728936240058 13.0465643754101 2398.668180889748 28.072699081201343 0.3149789233216603
1.0920598525644614 13.052702125414074 2115.94169463791 29.353169548031552 0.3196507574985047
1.1185579696762749 13.058530508619294 1868.9000167381728 30.691137904188004 0.3244208256710723
1.1451871297750178 13.063986445422989 1652.3369522913881 32.0900238618492 0.3292973209634969
1.1719495265537667 13.069001939753093 1462.2708483440433 33.55174523214495 0.334277791150772
1.1988050756250057 13.073457385015812 1295.60515168823 35.080854783474145 0.3393758748019298
1.2257500026934829 13.077329970832558 1149.2135268088928 36.679388704178066 0.34458841383861777
1.2527435672533163 13.080492514343494 1020.3186886819075 38.35238153812842 0.34992973830739865
1.2797848332676913 13.082930533872592 906.8677212276676 40.10207286721334 0.3553964326032869
1.306827709767887 13.08451975659093 806.8630696116361 41.933948905373526 0.3610031450106983
1.3338642925113748 13.08523691262533 718.7193676938371 43.8514606474915 0.36675162503310577
1.3608719482067348 13.085031812077727 640.725787045358 45.859338012623176 0.37264985978360926
1.3878016291756896 13.083776315660037 571.8817008806003 47.96289226949338 0.3787076881188553
1.4146585584423486 13.081489457810413 510.9097723182582 50.1668529378931 0.38493062692852337
1.441380638304107 13.078038771215654 456.953342799205 52.47648930417181 0.3913259080112734
1.467975627502758 13.07344232181099 409.07629774663275 54.89819099332608 0.3979050892464656
1.4943839325602528 13.067579108897894 366.59707133652745 57.43814604733149 0.40467722859519634
1.5205950376589756 13.060436243363135 328.8919122962871 60.10298045378723 0.41165209385448265
1.5465781517279493 13.051953969924105 295.3381557743978 62.899797568831886 0.41884022109909663
1.572293895815404 13.042077427865696 265.5101283817231 65.836221314304 0.4262529778941539
1.5977181547318133 13.03075192443555 238.96022923722697 68.92044353226176 0.4339026318368607
1.6228057148495934 13.017934224566353 215.27644841900673 72.16127592760603 0.44180242505421924
1.6475572086224126 13.00359970557108 194.1306724974398 75.56820708354675 0.4499666553592349
1.6719066542780165 12.987667248998292 175.26297956104767 79.15119926038662 0.4584096547164434
1.69584332356368 12.970124387060318 158.3912210492265 82.9203869168251 0.4671444618294115
1.719324003240288 12.950917587077758 143.30192448273638 86.8885301283792 0.47619273304466164
1.7423102961405723 12.929980109686287 129.79815588304734 91.06724124699637 0.4855689566640539
1.764789941670911 12.90733747947721 117.69952018093859 95.470530227838 0.49529474568288906
1.7867178236317847 12.882908249463878 106.84220129943787 100.11214030663415 0.5053879281686698
1.8080564046350878 12.856656858780772 97.10262164765878 105.00855298769534 0.5158740432539761
1.8287684542333167 12.828527731398093 88.3458365299779 110.1763040073966 0.5267756206062228
1.8488485439262718 12.79856869600732 80.47740604864612 115.63297810964987 0.5381158771981996
1.8682360767512571 12.766665833385108 73.39454567988692 121.39885886759346 0.5499244360699418
1.886906218116192 12.732823055175729 67.02000368885196 127.49532191405756 0.5622309366110475
1.9048298949364857 12.69701428331466 61.26823754512241 133.94484324250624 0.5750648175371426
1.9219741683395823 12.659204300878828 56.08439749340429 140.77300378145804 0.5884620316366307
1.9382903790647703 12.619324487974334 51.401655949087946 148.00752338180033 0.602461016817436
1.9537880036861717 12.577487376973197 47.169851789780445 155.67695572494694 0.6170977460908612
1.9684065774652237 12.533566810047578 43.34684988547859 163.81487305234253 0.6324195844311976
1.982123834827833 12.48757486162931 39.88614480279474 172.4549760206504 0.6484678752827738
1.9949156304557678 12.439507997707883 36.750620546907136 181.63666138408627 0.6652961762127534
2.006755405647728 12.389354432235757 33.90918941118568 191.40185686283647 0.68295868361397
2.0176043355938105 12.33709120494884 31.332384795010665 201.79657873932433 0.7015146075490897
2.027444146178947 12.282713935257444 28.99659873751891 212.8708219558296 0.7210268118752354
2.036257109578851 12.226256755840273 26.87403982600691 224.67992052649714 0.7415651699246585
2.0440053432202405 12.167672099582564 24.945983377027954 237.28514645314178 0.7632072185415165
2.050668414250174 12.106976689244318 23.19164173253444 250.75327251560762 0.7860353031951754
2.056244306960751 12.044240767943597 21.596866756598626 265.1573188025496 0.8101373849741188
2.06069486428507 11.979401808088822 20.14456904148928 280.57915913954724 0.8356136595813871
2.064004859353405 11.912515833618546 18.82460441504708 297.1083098999143 0.8625704771957219
2.06617027922634 11.843624714995917 17.621379997895108 314.8451808909744 0.8911285161025166
2.0671665685496787 11.772743846312649 16.526256851554468 333.8991934782403 0.9214137875577295
