M[M_sun], R[km], Lambda[1], P_c[MeV/fm^3], rho_c[fm^-3]
0.24162668629717493 15.618656898711224 2160425.4255784233 3.5677272577965504 0.1711233750220791
0.2536388502195466 15.277425723642152 1723331.319746269 3.784746460367676 0.17388726132806726
0.26603173684758197 14.981421104157368 1383180.8828652743 4.011247721499949 0.17666480298722137
0.2788021383697543 14.723766609946992 1116621.6030012222 4.247489406829437 0.17945474440819642
0.2919515079860753 14.498707669364546 906114.1372230069 4.494095581792631 0.18226363148297825
0.30548253263420505 14.301503344558132 738906.803117938 4.751216342821827 0.1850870626236751
0.31939286732390343 14.128470878603405 605293.374529539 5.01954293241497 0.1879318535957474
0.33368508021270493 13.976290844784389 497928.8580132256 5.299287081691444 0.1907943866445099
0.34836076139181843 13.842360804392724 411220.73443544377 5.591191509118474 0.19368124438492204
0.36341688711853104 13.72433124917343 340841.53801389487 5.895405629052791 0.1965871602604589
0.37886284134780895 13.620360835348702 283480.7752172249 6.212800746193479 0.19951996762015478
0.3946896465811911 13.528768255855818 236568.9934529235 6.543647590481904 0.20247608242718684
0.4109075200068072 13.4482013800743 198010.23883767595 6.888621779472189 0.20545876428979196
0.4275086537624263 13.377338999583081 166213.5687516904 7.2484398351956765 0.2084712998569299
0.4444965655615721 13.315190855958802 139919.5773091999 7.623379778101598 0.21150954207804504
0.4618696249450058 13.260817357192415 118081.05975485331 8.014352318585559 0.2145790632864438
0.4796262526530673 13.21339408971903 99911.55950864758 8.422079253087684 0.21768179157122822
0.4977748654826629 13.172215216889066 84723.53797399833 8.847027228076167 0.2208155705369144
0.5163043603853871 13.13661086060308 72014.49219338341 9.29001769981631 0.22398307888386104
0.5352139077446296 13.1060237855245 61339.853199813566 9.751958606196213 0.22718758544307135
0.5545105179903823 13.080001666865336 52359.63830123802 10.233658396125978 0.23043043932342178
0.5741836303552768 13.057970574598118 44780.07368241263 10.73562459678312 0.2337088048651411
0.5942340758743108 13.039666223565769 38036.75230020693 11.259028719272214 0.23702795596329554
0.6146596916857712 13.024612154746155 32942.084610622645 11.804841417590325 0.2403899481257829
0.6354510811845018 13.012521272834645 28327.182802225896 12.374040229852676 0.24379641167005534
0.6566131335422619 13.003103908380032 24402.763353700047 12.967363791043589 0.24724586355290457
0.6781348052003131 12.996036762841378 21055.607181923613 13.586038773204423 0.2507419761698171
0.7000123812621206 12.991087088193193 18196.525269660295 14.23130840579531 0.2542879241289466
0.722235933933129 12.98801331752291 15751.768552212017 14.904360461819937 0.2578856883914165
0.7448124437865952 12.986648755842419 13653.464793123703 15.606289082815861 0.2615358210366088
0.7677211782796843 12.98674221653306 11852.447700279517 16.33823002510558 0.26523892379786684
0.7909556787961715 12.98811631794813 10235.273297199112 17.101858823913545 0.2690003127821698
0.8145181675215133 12.990634555576305 8970.371587838423 17.898628000956847 0.27282241559662623
0.8383880068698163 12.99408728833296 7818.864808523921 18.729983309184494 0.27670704508808386
0.8625588517001527 12.998349854719073 6825.190519115373 19.59710581663288 0.280653233543348
0.8870216715237038 13.00328747469816 5964.897264597029 20.5021558049683 0.28466804166028997
0.9117710685556141 13.008773011739267 5219.592605440546 21.446924037155142 0.2887544761031404
0.9367791234974117 13.01465908600829 4572.682753952888 22.432996841854436 0.29291329323621174
0.9620447469171655 13.020860005241708 4011.2530922009105 23.462191144264427 0.29714663484877263
0.9875602101018827 13.027245770527156 3522.6730085223103 24.537024161562805 0.3014614019014046
1.0132947870456026 13.033714063305153 3097.483241842314 25.65955865045501 0.30586013554704367
1.0392395621657107 13.040158677839651 2726.246776930968 26.831509180180284 0.3103422850044371
1.0653841642649928 13.046494651162421 2402.4928411502906 28.05608448749404 0.3149174587149579
1.0917013336330148 13.052615456838884 2119.5351066605763 29.33548022521956 0.3195870867976811
1.1181886603022941 13.058456596468766 1872.0253587878994 30.672162733294826 0.3243538895261862
1.1448084713711486 13.063915854894995 1655.039511943081 32.06976853268138 0.3292275551115885
1.1715619741121968 13.06893234029293 1464.8428498867934 33.53008534725823 0.3342047951054762
1.1984102228710567 13.073408747054051 1297.8962456407203 35.05763193134393 0.33929908312566465
1.2253414728152554 13.077271838706904 1151.2808542856753 36.654670256041925 0.3445086759512641
1.2523274318065174 13.080450020532965 1022.1877925916922 38.325883204414275 0.34984579739520455
1.2793594730775444 13.082894761418135 908.5096726824131 40.07386370238471 0.3553091628713802
1.3063938417498357 13.084509104563367 808.3895251434683 41.9039123494318 0.3609123399515682
1.3334212120140798 13.085224334570517 719.9985282584488 43.81926007770545 0.36665590828679323
1.3604210406136332 13.085045345196448 642.0032803877345 45.825040876951576 0.37255012837199
1.3873453342128144 13.083807919057556 573.0112908267936 47.92635213414234 0.37860368309823395
1.4141919424510125 13.081539176303242 511.8847108232154 50.1276693005548 0.38482083005857537
1.4409173938771007 13.078124250085027 457.8355287981736 52.434724344844795 0.3912112370809394
1.4674991152214434 13.073535367959071 409.8827194569326 54.85365985981784 0.3977852194438112
1.4939025045660657 13.067696737254613 367.3307836123694 57.39064891803526 0.40455181000523693
1.520109993222067 13.060583018148948 329.54983330151344 60.05230119781377 0.41152074939837263
1.5460894797157305 13.052128956665463 295.9431282160633 62.84570227248595 0.4187025442691295
1.5718024757220732 13.04228018851749 266.04649414245074 65.77845665902538 0.42610853026267376
1.597219064398269 13.030977595819964 239.44546561417704 68.85873500734142 0.43375094031461014
1.622310305554568 13.018206733293793 215.71675457377893 72.09532585893598 0.4416429788707291
1.6470625126786174 13.003901090375521 194.53604984741813 75.49769245733982 0.44979890273456646
1.6714166915930861 12.988013110775148 175.6339789724251 79.07603515363499 0.4582341093258499
1.6953499131739005 12.970509835150194 158.73096373706557 82.84004568368977 0.4669598379096581
1.7188164403472306 12.951303441522697 143.61074380645456 86.8024962329422 0.47599790860097874
1.741831039636389 12.930471850139924 130.08182320766073 90.97547887046343 0.48536481915278473
1.7643115824139217 12.907863643216912 117.95155224564208 95.37215585466961 0.4950788903422275
1.786239996670724 12.883469970153687 107.07289063190119 100.00706829378363 0.5051611873233586
1.8075846626979875 12.857262596429855 97.30849110950241 104.89623874994902 0.515635543734702
1.8283148993682972 12.829211906201634 88.5358432659255 110.05574120125169 0.5265228829728209
1.8483937368178216 12.799278286794202 80.65109339226655 115.50385243499049 0.5378491481121982
1.8677913934702857 12.767435656492651 73.55036112853502 121.26052312996471 0.549642835202522
1.886473690467609 12.733648875932033 67.16201111760036 127.34699985542916 0.5619332554228628
1.904410154353812 12.697893022210117 61.398544412971425 133.78623032194366 0.5747516663830773
1.9215488683725785 12.660087199923781 56.20573001054668 140.6026448600049 0.5881301076734163
1.9379041417402378 12.620355102257264 51.51241411182026 147.82439884632154 0.6021087676624288
1.9534092934241993 12.578545719861895 47.270652589339626 155.4805484602872 0.6167255346636866
1.9680492153347369 12.534699610151165 43.438102793624935 163.6034844863058 0.6320239364458791
1.9817879037514334 12.488777096213457 39.96959536682041 172.22768370597694 0.6480482048753569
1.9945961238624692 12.440773303708584 36.82962890660709 181.39213275936046 0.664850763932234
2.006452666659446 12.390679525716543 33.98267408344249 191.13850493032226 0.6824852526864578
2.017336966776132 12.338520114230414 31.399510673476126 201.51265291515992 0.701010667218171
2.027194307086386 12.284197666474473 29.057998402360642 212.56507274934046 0.7204918734158515
2.036018773354678 12.22778097308049 26.928880080726827 224.34958365012326 0.7409941747696406
2.043807348680196 12.169309573530956 24.99574670840031 236.9285816948634 0.7625992428740552
2.0504986695246576 12.108692791067554 23.2394890061179 250.36714980930856 0.785384415716029
2.0560971317938708 12.046005418790214 21.639322787760147 264.7395007072077 0.8094421113887502
2.0605846940120878 11.981265844949188 20.185293137570362 280.12673904002304 0.8348706691827864
2.063931443217433 11.914475935251858 18.86047728426034 296.6180920086441 0.8617762363740759
2.066123246524091 11.845648737482252 17.65456771566791 314.312667885295 0.8902760675176712
2.0671540347541515 11.774851390168735 16.556887456384413 333.32087537147186 0.9205003803038131
