M[M_sun], R[km], Lambda[1], P_c[MeV/fm^3], rho_c[fm^-3]
0.24162668629717493 15.618656898711224 2160425.4255784233 3.5677272577965504 0.1711233750220791
0.25364492891902024 15.277254178317982 1723150.427403969 3.7848447820141615 0.17388848685995875
0.26604243366139063 14.981224676089985 1382960.8637212757 4.011454411594403 0.1766673007150327
0.27881915791311934 14.723470161950894 1116331.375210743 4.247811456342175 0.17945847969722592
0.2919751304689925 14.498309661893238 905778.3767731298 4.494541439812343 0.182268596215506
0.30551256173917823 14.301108372177648 738608.8856587434 4.751801146273624 0.18509337961706868
0.31943036551124493 14.128041738039114 605022.3926394958 5.0202709872695985 0.18793940744586754
0.33373234795391016 13.975805215923161 497593.18007284147 5.300177553228077 0.1908033522153243
0.34841346718724253 13.84192224986904 410943.2602027058 5.592246618730494 0.193691452860669
0.3634788247910905 13.723860043584828 340611.10949102114 5.896649078345196 0.19659883899935507
0.3789330520364034 13.619913192280748 283252.06892292446 6.214247579844316 0.19953316100094928
0.3947682460437224 13.528344847099772 236372.43677651734 6.545296304423493 0.20249053942115114
0.4109951423551726 13.447794076179239 197823.73100539052 6.890504198139703 0.20547479575709085
0.427605636579386 13.37695695370102 166041.39694893322 7.250573619524929 0.20848895210784374
0.44460287931884357 13.314835879553508 139768.40491307172 7.625759028801205 0.2115284824434671
0.4619847764058567 13.260501646438305 117945.39440148156 8.017018530274106 0.2145996885893943
0.47975358725626854 13.213084363017146 99795.88121647798 8.42505321229995 0.21770415158698575
0.49791394062476657 13.17191068268078 84619.14802939395 8.850297967943847 0.22083925209103603
0.5164554570036188 13.136328196824657 71918.43084850795 9.293638144213025 0.2240085670381223
0.5353750653856185 13.105793953981163 61256.58523146071 9.755953297628155 0.2272149352151278
0.55468571527856 13.079759987296837 52287.100647583895 10.238049910640674 0.2304596636657306
0.5743704336267045 13.057799759103471 44713.867240410604 10.740400752611189 0.2337394692650252
0.5944306204114299 13.039482745444094 38314.96781500755 11.264257875369397 0.2370606278252191
0.614870613240057 13.024493086314344 32890.40075423502 11.810554458790941 0.24042469294828142
0.635678671288641 13.01241933210651 28281.938511587672 12.38026996753961 0.2438332984091647
0.6568510144417052 13.002993161944273 24167.993903949893 12.974081617706474 0.24728425989533515
0.678386681745355 12.995966055838649 21019.94241561784 13.593340069225084 0.25078262782992583
0.7002771861242488 12.99104553048213 18165.282628329085 14.239232311078151 0.25433091170183225
0.722514300901989 12.9880067439608 15722.849597198388 14.91294863072959 0.2579310972777766
0.7451060058719546 12.986638169777008 13628.546153608284 15.615502063119195 0.2615829116807081
0.7680298501397722 12.98676682953446 11831.388774546178 16.34819255961302 0.26528858453369647
0.7912782563205215 12.988151190511037 10285.45561556981 17.11262090146832 0.26905264512097343
0.8148545559004241 12.990675663965703 8952.235489488654 17.91024292414079 0.27287752757662725
0.8387415264806566 12.994147684651104 7804.028877470141 18.74239956560645 0.2767640913619991
0.8629246232259695 12.998425371289667 6810.847848219526 19.610484819424848 0.28071325669118
0.88741035457147 13.003367923987975 5952.367096674485 20.516561932263937 0.2847311715438048
0.9121698509418169 13.00886320206277 5208.612574727177 21.46242607493135 0.2888208513397097
0.9371929007675432 13.014758513620176 4562.913684176185 22.44953022160916 0.2929819634830339
0.9624802208755092 13.020972514103262 4002.5215416308924 23.47996330855077 0.297218812888564
0.9880031941072249 13.02735916212252 3514.621162405215 24.55611874246381 0.3015372556067011
1.0137491145203228 13.033812018175327 3090.5322166945107 25.679901745238034 0.3059386434676702
1.0397164274116886 13.040270527112966 2720.0270828170896 26.853349436795092 0.31042479356116276
1.0658704786107427 13.046601246735191 2396.8540400838333 28.079524114349766 0.31500417208702813
1.0922060918650156 13.052738062075145 2114.5807503701685 29.36043616070463 0.31967691284240485
1.1187084264731386 13.058563922023174 1867.274233751127 30.698932861574743 0.3244483228883547
1.1453416953120217 13.06401792365268 1651.1340721600047 32.0983217207839 0.3293258315894903
1.1721084917676787 13.06902779615541 1461.154609976549 33.560643336088845 0.3343077786784958
1.1989679764838042 13.073480467325227 1294.6650144416785 35.0903951349431 0.33940742215784253
1.2259172231991036 13.077352250695231 1148.3618626078044 36.689543615388736 0.3446211720102369
1.2529152495064915 13.080513676249565 1019.5562581139465 38.363197755089004 0.34996381256508974
1.2799602507799188 13.082949608211186 906.1484732682505 40.113662218329765 0.35543228618388906
1.3070140163233803 13.084545488302737 806.3039350825802 41.94628919693354 0.3610404515816302
1.3340465970517177 13.08523707521272 718.0928080209028 43.864690250902754 0.36679095025629105
1.3610570378121556 13.085032135195338 640.2205187915305 45.87342920470838 0.3726908350560493
1.3879968563417293 13.083781617199772 571.4207568539082 47.97790524487153 0.37875041989307545
1.4148416602923566 13.081450391057079 510.5103996306349 50.182952338902986 0.38497573922434375
1.441574674231988 13.078010153519326 456.5797342935203 52.49364957073596 0.3913730236738623
1.4681695471629963 13.073408022823102 408.73183241491 54.91648811840626 0.3979543418165153
1.4945817029749062 13.06753131536495 366.3013199400169 57.45766217987244 0.40472876193754803
1.520794332620816 13.060378563272366 328.6325818976064 60.123804449924066 0.4117060630060436
1.5467787485560294 13.051882015734389 295.09544344968606 62.92202559810292 0.4188967932007981
1.5724963938684486 13.041991828666037 265.28326985497506 65.85995752699354 0.426312333215964
1.5979100672132729 13.030648620477473 238.75367601068524 68.94580079474537 0.43396496490593356
1.623018698954198 13.01783482878419 215.0834759038583 72.188376633414 0.4418679458974588
1.6477605945476526 13.003471874026747 193.9543902080122 75.59718404881872 0.4500355908729117
1.6721090291767577 12.987528673208848 175.11861037376863 79.1820453834887 0.458481618368738
1.6960454426588474 12.96996590321365 158.2502929600041 82.95340319120669 0.4672203331317814
1.7195254956528943 12.950741709454743 143.18122438310505 86.92388653632253 0.4762727979129696
1.7425065388295595 12.929792919797698 129.68708685755004 91.10495250446935 0.4856528503309164
1.764988703617682 12.907126680007522 117.59379408035029 95.51095967300064 0.4953834569130323
1.7868982585476374 12.882648882257255 106.75170825173637 100.15532314416744 0.5054811148586322
1.8082500486536033 12.856407009517937 97.01881669807807 105.05471317219586 0.5159720645025185
1.8289540098251 12.828253094353844 88.27095218244288 110.22568582086292 0.5268788648422353
1.849034793974748 12.798273748767956 80.4131445318278 115.68605001564329 0.5382255054422753
1.8684056717705868 12.766322330632589 73.33314111903105 121.4557174369621 0.5500401792808353
1.8870811960633618 12.732487372819438 66.9581339415539 127.55613053649006 0.562352735033367
1.905001454350543 12.696653230653343 61.21194635585901 134.01003890536907 0.5751935340187074
1.9221408607699402 12.658816672740667 56.03533824870315 140.84302915842076 0.5885984677002591
1.9384494365461749 12.618911671533507 51.35480658120476 148.08279788120763 0.6026058110621858
1.95394172274922 12.577049589622481 47.13187342940494 155.75769202019953 0.617250749452182
1.9685516833883114 12.533100137485397 43.31055679062205 163.90156047347665 0.6325815172542988
1.9822628068311312 12.48708254233203 39.851613863533224 172.54841287632223 0.6486403962205974
1.9950453156736305 12.438980775586773 36.72094882038913 181.73718643375483 0.6654792839845834
2.0068766722024542 12.388804030247616 33.88075469570651 191.51012300305814 0.6831533149527036
2.017717363723178 12.336510343183363 31.307473515501552 201.9133061975421 0.701721787273212
2.0275469715278422 12.282110126917415 28.971761547362817 212.99651167685693 0.7212466985223956
2.036349612598069 12.22561850681901 26.85200704487059 224.81573608068155 0.741799930343376
2.044086171878627 12.167003467816334 24.926386707301457 237.43174959341042 0.7634571903628684
2.0507386959306495 12.10627369945159 23.172473649474636 250.91172258489 0.7863019143096537
2.0563027203151965 12.043504659307926 21.580269490982115 265.3290075466472 0.8104229100227945
2.0607411762996874 11.978633091447401 20.12921585487234 280.7649591975354 0.8359184149210724
2.0640369210795995 11.911713824124472 18.809452687366267 297.30989063358146 0.8628970741037233
2.066186212815723 11.842787347658941 17.60873547695781 315.06416128697055 0.8914790606463775
2.067172948467704 11.771879424849892 16.51348479184454 334.13701805962427 0.921789412486732
