M[M_sun], R[km], Lambda[1], P_c[MeV/fm^3], rho_c[fm^-3]
0.24162668629717493 15.618656898711224 2160425.4255784233 3.5677272577965504 0.1711233750220791
0.2536369369203254 15.277458198525562 1683899.154784559 3.7846996861722295 0.17388667831028562
0.26602643730255343 14.981556224304928 1383336.7175127366 4.011149396255316 0.17666361478466758
0.27879348942773935 14.723944228947122 1116789.8400812089 4.247336207589956 0.17945296752788478
0.2919400614496635 14.498876664376823 906291.5712754824 4.493883492166292 0.18226126981576554
0.30546745630087496 14.30172692499764 739050.9306558529 4.750938165643786 0.18508405777924317
0.3193756242221038 14.128657205549558 605440.5744148318 5.0191966224315925 0.1879282604960065
0.3336643064501955 13.976483615457445 498072.9520907423 5.298863526547573 0.19079012214701618
0.34833554548066115 13.842523059674459 411321.692069811 5.590689655280458 0.193676388810984
0.3633875397082766 13.72454492765648 340951.4442142988 5.8948142076868 0.1965816055058314
0.37883171835173113 13.620516943134913 283587.2371104814 6.21211260608536 0.19951369261094334
0.3946493118355277 13.529046192376672 236667.444755345 6.542863450055544 0.2024692065749695
0.41086632911690274 13.448361066788257 198092.03546418744 6.8877265089104895 0.20545113979000282
0.42746208303467204 13.377528156562814 166291.98642235599 7.247425040434956 0.20846290471994408
0.4444448994202544 13.315389758765889 139985.2129759143 7.622248267572677 0.21150053452667594
0.4618127238870111 13.261000457722943 118141.9528266797 8.013084366610025 0.21456925465281793
0.4795655312379146 13.213579711930539 99954.32630210707 8.420664980856706 0.2176711582211676
0.49770919405411285 13.172340999551109 84773.94577153423 8.845471853219788 0.22080430895839367
0.5162325746203051 13.136731743668859 72054.77049190618 9.288296065478812 0.22397095847079368
0.5351363203477448 13.1061391061539 61376.09795301022 9.750059049465948 0.227174580072202
0.5544307140164014 13.080064997496928 52393.125387138 10.231568545857902 0.2304165217358896
0.5740940447623918 13.05806629614348 44810.22601694534 10.733353534861024 0.2336942239441143
0.5941410832555287 13.039734104462775 38399.352831843775 11.256542312343713 0.23701242084781152
0.61456000198908 13.024664278492208 32965.13744716531 11.802124990318834 0.2403734277157134
0.6353447287216604 13.012594599345872 28349.09280663446 12.371078191905088 0.24377887322357567
0.6564960049832653 13.003121287617706 24422.05342471609 12.964169743695264 0.24722760768804228
0.6780155809653099 12.996070580998001 21073.481395511455 13.58256738894787 0.25072264843231606
0.6998863143936185 12.991115206781766 18212.365894144583 14.227541088695908 0.2542674862498183
0.7221028208171953 12.988035607483518 15765.486210358271 14.900277421830369 0.25786409981987807
0.7446732120539796 12.986665077844156 13665.346789935225 15.601909073312322 0.2615134333334018
0.7675757846349213 12.986746617453209 11863.273561601212 16.333493772011252 0.2652153147640849
0.7908000401936963 12.988115176627087 10312.94133818905 17.096742579258365 0.26897543421691744
0.8143580044569824 12.990602685057075 8978.652752538186 17.89310644323731 0.27279621620005734
0.8382214636096856 12.994054063669124 7826.387568795989 18.724080919937215 0.2766799266634708
0.8623839539179448 12.998316937615856 6831.83500773134 19.590745906851264 0.2806247006391431
0.8868387098418805 13.003258478797319 5970.868314837037 20.49530779407308 0.28463803261474624
0.9115830053517476 13.008722858335956 5225.026674054787 21.43955525172384 0.28872292509782793
0.9365819509688648 13.014624523000641 4577.717219785452 22.425137963088293 0.2928806519279842
0.9618414790007739 13.020806216174853 4015.249853052839 23.45374362698213 0.29711232697108725
0.9873475919183029 13.02719418464234 3526.3017128673373 24.52794828367534 0.3014253477470792
1.0130736196318044 13.033649345862893 3100.6313159233487 25.64988952415809 0.30582282052649523
1.0390155796922058 13.040097194613322 2729.290355662813 26.821128697577862 0.31030306941037394
1.0651519718803948 13.046438471319115 2405.196123133963 28.044944107595207 0.31487624560550365
1.0914619500235463 13.052557683629837 2121.946993108447 29.323619406880002 0.31954439513423827
1.117941189384143 13.058400649066268 1874.2083975234302 30.65943999596271 0.32430900924583433
1.1445542069016676 13.063865679090467 1656.9633803445124 32.05612424706986 0.32918036786418614
1.171299668096138 13.068884870079385 1466.6209624655364 33.51556305147845 0.33415585347138693
1.1981432457201107 13.073360634540558 1299.4769589672185 35.04206203138993 0.33924759768752616
1.2250690304226832 13.077231850394547 1152.7060506153555 36.63809790103609 0.3444552160993607
1.2520469725356154 13.080416397437846 1023.4439452695674 38.308117906043556 0.34978952082450676
1.2790745173124143 13.082874441425172 909.7274297898551 40.05495173476677 0.3552506555616505
1.306100801555942 13.084484824849273 809.4120489475973 41.883775614793066 0.36085146355205333
1.3331237406055476 13.08522529002841 720.9617535848972 43.79767304175108 0.366591740451944
1.3601188736349272 13.085053405671655 642.8090550508573 45.80204873274661 0.37248327033988865
1.3870376174091816 13.083831275997584 573.7192964438401 47.90185677590483 0.3785339614014163
1.4138734977072027 13.081555808682898 512.597638104235 50.10140241981544 0.38474722736407363
1.4406017450651218 13.078175693073588 458.4353027441223 52.406727600660254 0.39113436851088224
1.4671749920930564 13.073590609635987 410.4509843243973 54.823809418303156 0.3977048674237385
1.4935806476134907 13.067775771719363 367.83093903479795 57.35881092111614 0.4044677401521765
1.5197837178513012 13.060680458678506 329.99558201903955 60.01833086638466 0.41143270914166935
1.5457614961082304 13.05224070122183 296.3439588752552 62.80944292014389 0.4186102613346726
1.571473490676685 13.042415083849995 266.4345974256206 65.73973860643012 0.42601171100588203
1.5968863846290946 13.031133883540969 239.75629910298707 68.8173743860405 0.4336492678858093
1.6219802300911184 13.018377178402003 216.01046271842614 72.05112329212086 0.44153611119460284
1.6467188812826428 13.0041035034585 194.8008148283312 75.45043160345014 0.44968647028316555
1.6710843594158589 12.988242389098511 175.87403007890936 79.02548109696204 0.45811571266213996
1.695014862947463 12.970762072728174 158.95584933577393 82.78620109782315 0.4668361032081575
1.7185039411685714 12.951625596549489 143.8104415801152 86.74483784415423 0.475867340718841
1.7415038385443247 12.930784462919206 130.26372998719324 90.91398266565827 0.4852280127330325
1.763987440897326 12.908205277213153 118.11976571320744 95.30623019918643 0.49493423473361386
1.785920644897665 12.883840263172399 107.22190876613392 99.93665580825906 0.5050092402343558
1.8072570420051488 12.857643816193127 97.45209921171914 104.82097475725298 0.5154757204884525
1.8280033973853862 12.829649302030242 88.66443257171439 109.97490998860889 0.5263533671136945
1.8480793137499862 12.799727255402429 80.76597466591171 115.41732733422015 0.5376704171115235
1.8674927520034128 12.767945248889614 73.6608422822469 121.1678289002862 0.549454143719542
1.8861816869045185 12.734200923783908 67.25882492891708 127.2476167675109 0.5617337943584023
1.90411448519334 12.698450809816281 61.48876933188303 133.6798002114603 0.5745413003146523
1.921283483776523 12.660746705641438 56.282928809325895 140.4885019865234 0.5879077139495333
1.9376408692503624 12.62102605428279 51.58322199054187 147.70170643448446 0.6018727627039321
1.9531535054973945 12.579243570231975 47.337037675753436 155.34896025786523 0.6164761618479322
1.9678070671086716 12.535447627003443 43.50043369230185 163.46179131044585 0.6317586253216152
1.981560511668472 12.489585841289154 40.024614640772946 172.07541247047303 0.6477670526879914
1.9943966697133635 12.441665848892262 36.87844278182597 181.2283192756102 0.6645523754001803
2.0062526374511194 12.391577502049676 34.028266800806435 190.96208698211805 0.682168104025156
2.017140038478912 12.339429679963665 31.44284985458619 201.32245885381198 0.7006730915203755
2.0270219490381916 12.28518521759442 29.097692515377876 212.35980860670446 0.7201320442386107
2.035881223021008 12.228861178179061 26.96712597779176 224.1283147831053 0.7406117062653355
2.043673720963453 12.170403723135603 25.03082371948415 236.6894413578143 0.7621910025738896
2.0503840391876524 12.109839044735754 23.270859393433593 250.10852057972883 0.7849484252952245
2.056009263319383 12.047228274237119 21.66897065745181 264.45966479594193 0.8089764481742803
2.0605029171068723 11.98250245187003 20.211696736109634 279.8235718903233 0.8343725181762714
2.0638720385633853 11.91576627790436 18.884865504536787 296.28979073381737 0.8612443294834681
2.066090792863588 11.847007131051209 17.677260620589777 313.95605610733196 0.8897052022012908
2.067146328707294 11.776260514845749 16.577787449776253 332.93360473744116 0.9198887172723216
