M[M_sun], R[km], Lambda[1], P_c[MeV/fm^3], rho_c[fm^-3]
0.24162668629717493 15.618656898711224 2160425.4255784233 3.5677272577965504 0.1711233750220791
0.253638810551259 15.277420195716592 1723255.385221947 3.7847409831683385 0.1738871930574198
0.2660303358556195 14.981472806829048 1383159.470753318 4.011236207648616 0.17666466384912302
0.27880101379785993 14.723781943385188 1116711.9892100946 4.247471467118604 0.17945453633458533
0.2919505929799773 14.49872117374555 906191.4525164043 4.494070745805813 0.1822633549285009
0.3054808277595947 14.301531828258128 738870.5571196257 4.751183767651171 0.18508671074966138
0.31939122684827215 14.128486344833357 605301.7928070674 5.0195023784568695 0.18793143283277974
0.33368372980253086 13.97628506153075 497930.44555493334 5.299237481731582 0.1907938872552153
0.34835789927028415 13.842389236106248 411227.19551929325 5.591132739681368 0.19368067577445114
0.36341464578824945 13.724322304922405 340861.89111100073 5.895336370350842 0.19658650976807346
0.3788591573911956 13.620383097332693 279572.45979545015 6.212720160630752 0.19951923277685404
0.39468631434032336 13.5287677947377 236568.77791190465 6.543555762088333 0.20247527721622932
0.4109027072882924 13.44822269721033 198023.11721285718 6.8885169362352725 0.2054578714007906
0.4275031290647687 13.377363662269682 166224.85212237548 7.2483209939242945 0.20847031671354815
0.44448918112950436 13.31523493214986 139928.61711892055 7.623247267593486 0.2115084872091965
0.46186220643431203 13.260854466193322 118084.06312965977 8.014203828508673 0.21457791459565004
0.47961910965027277 13.213425500613502 99916.30223101134 8.421913626316396 0.21768054628945013
0.4977670088840648 13.172223642251398 84730.63496835882 8.846845075575045 0.2208142516749785
0.51629600714351 13.136625979126178 72015.64882262699 9.289816075068797 0.22398165943306872
0.535202804054006 13.106060280221309 61346.502364719 9.751736143070154 0.22718606234275376
0.5545026661466359 13.079978471831966 52364.64538287361 10.233413645518903 0.23042880937985616
0.5741718214049225 13.057993450861 44783.7573703493 10.735358622271875 0.2337070972263903
0.5942252725873216 13.039660104329752 38375.81357477063 11.25873752283006 0.2370261365626554
0.6146482405217978 13.024631786738349 32944.32944009605 11.804523280174475 0.24038801331949397
0.6354389114561039 13.012527966549031 28332.10080573232 12.373693325225062 0.2437943576220139
0.6566001503957188 13.003092187573529 24405.81526090876 12.96698971216532 0.24724372547143464
0.6781209746854795 12.996049731592965 21057.297286935147 13.585632210700863 0.25073971253872185
0.6999983369659424 12.991099980443463 18197.724607386437 14.2308671813083 0.25428553046457053
0.7222195046628074 12.98801992038754 15751.824410571115 14.903882257092835 0.2578831599427637
0.7447965340677937 12.986655986544266 13654.983084633284 15.605776094348203 0.2615331989798408
0.7677049894877492 12.98674589049662 11853.672156773575 16.337675309667222 0.2652361586805341
0.7909379076007333 12.988120616026114 10305.35550926912 17.10125959954674 0.26899739895698843
0.8144994645391378 12.990627136559683 8971.127769041355 17.897981301348615 0.2728193470532264
0.8383681094405986 12.994084051908635 7819.826449223025 18.729292001900255 0.27670386888880477
0.8625383523374196 12.998346040066487 6825.9679888836745 19.596360918173527 0.2806498916537437
0.8870007996278667 13.003293666671363 5965.768050732517 20.501353732861464 0.28466452685595456
0.9117494017933511 13.008772134972347 5220.184237038214 21.44606096372318 0.2887507806726396
0.9367559161820759 13.014659155862201 4573.702286602562 22.432076361017753 0.29290947008285845
0.9620222217177641 13.020849982501918 4011.875929093061 23.461201711820454 0.29714261646962864
0.9875344254656508 13.027246561540911 3523.0394011941 24.535961123977195 0.30145717895772456
1.013268742767696 13.033708883428263 3097.907185385274 25.658426120829876 0.30585576489710736
1.039215270176761 13.04015267861117 2726.649273858066 26.830293322219283 0.31033769171199943
1.0653571355859084 13.046488075519575 2402.808215371054 28.05477961436987 0.31491263142186926
1.0916732649127865 13.052608026116243 2119.8193545431745 29.334090959371064 0.3195820862936401
1.1181601234099623 13.05844602776053 1872.288346488889 30.67067249984217 0.32434863263111724
1.1447789083033497 13.063911670625602 1655.3846307235242 32.06817034556734 0.3292220279588381
1.171529765122564 13.068929639774082 1465.0321597739048 33.52838430696635 0.33419906242430797
1.1983785789484924 13.07340509537655 1298.1111718259003 35.055808168816974 0.33929305243741115
1.2253094752735403 13.077269414695238 1151.4689438608395 36.65272906061516 0.34450241395530795
1.2522940350196603 13.08044088390353 1022.3401566449222 38.323802258668074 0.34983920541526925
1.2793252136580688 13.082894963062481 908.6680870061294 40.071648427576186 0.3553023095511981
1.3063595029726727 13.084505445398024 808.4991691195523 41.90155359556791 0.360905209081288
1.3333864500272252 13.085231386154016 720.1184281886692 43.81673142058957 0.36664839181011966
1.3603857392138676 13.085047695087543 642.101330841653 45.82234761137749 0.372542296721553
1.3873090534877097 13.083809116481516 573.0673708432108 47.923482765627746 0.3785955159491891
1.4141492350289455 13.081525675433719 511.98251160268825 50.12459239234674 0.38481220822269413
1.4408807166294404 13.07813032991231 457.9058185768274 52.43144477787099 0.3912022326187769
1.4674627779692349 13.07354172101184 409.9493196722588 54.85016312472984 0.39777580686182834
1.4938651337793143 13.067705893396734 367.38742402278825 57.38691933080831 0.4045419618401359
1.5200712430581214 13.060599559151225 329.59087876047073 60.04832179463542 0.41151043605544635
1.5460512362340009 13.05213992010168 295.9873744327113 62.84145469416151 0.41869173384459635
1.5717644061099263 13.042294423315449 266.0965268843509 65.77392102373456 0.4260971883482824
1.597180254612228 13.030995528728628 239.48144629044867 68.85388977043807 0.4337390297825972
1.6222716095978191 13.01822669706506 215.7484475164501 72.09014765832046 0.4416304596369794
1.6470225747915732 13.003926193492427 194.56303270773364 75.49215594275378 0.44978573149757234
1.6713769448062146 12.988040723796585 175.65648072007195 79.0701127980197 0.4582202392787696
1.6953137376297975 12.970538522724905 158.7625931378864 82.83373780125434 0.46694534241419305
1.7187787905689396 12.95133903003696 143.64027644335596 86.79574150565635 0.47598261246706536
1.7417928819567858 12.930507854177202 130.10420929611675 90.96827448550606 0.48534879204809334
1.7642732555947813 12.90790288700895 117.97180691312921 95.36443248155909 0.4950619435370776
1.786203572995646 12.883513429280605 107.09217733799365 99.99881920977325 0.5051433861579406
1.8075478580601139 12.857311503079394 97.31825515501937 104.88742122060431 0.5156168196926562
1.8282775167418521 12.829262608951872 88.55672194334217 110.04627135262558 0.5265030231999291
1.848358225946154 12.79933406766887 80.6651519517237 115.49371542443016 0.5378282085463939
1.8677562664491534 12.76749569736775 73.56332500861822 121.24966326428567 0.5496207284956962
1.8864397158127733 12.733714498546963 67.17313441779642 127.33535622695656 0.5619098867534243
1.9043770538880291 12.69796232330441 61.407394563941224 133.77377903053343 0.5747270836677418
1.921518346337909 12.66016212895932 56.21269096867925 140.58927174002045 0.5881040517501461
1.9378734913519184 12.6204349277081 51.52074301664654 147.8100239023112 0.6020811167424268
1.95338385088535 12.578643972957103 47.28053761082861 155.4651311156926 0.6166963172523818
1.9680205695029809 12.534791276785635 43.44822714871401 163.58688302264076 0.631992851300369
1.9817612849746225 12.488871422855105 39.97643674130557 172.20984268060633 0.6480152633727074
1.9945710678124509 12.440873618134761 36.83567165263508 181.3729391675153 0.6648158025385538
2.0064290936297464 12.390783788573053 33.98818337694807 191.11783427601134 0.6824480928032959
2.0173159554305884 12.338631045928832 31.406615740138772 201.4903678739887 0.7009711134683301
2.0271705475343462 12.28430532801121 29.0603130769631 212.54102165752568 0.7204497117188872
2.0360021701420434 12.227899922388808 26.93370160955839 224.32365696426402 0.740949359875906
2.043791118994491 12.169438124055963 24.99983155984077 236.90059710939352 0.7625515265851214
2.0504917170669628 12.108843100247858 23.24233036888862 250.33684473668842 0.7853333282137167
2.056086354848156 12.046146768065771 21.642445764623027 264.7067102999491 0.8093875462459895
2.060576806441784 11.981412157637262 20.189135419948876 280.09121426169776 0.8348122964201158
2.063925434793318 11.91462826871956 18.863308695611575 296.57962153350456 0.8617139073111671
2.066119756301512 11.845807745955605 17.657274296498528 314.27087936220033 0.8902091723113665
2.0671529410041054 11.775016179327098 16.559341867907712 333.2754935239447 0.9204287033007204
