M[M_sun], R[km], Lambda[1], P_c[MeV/fm^3], rho_c[fm^-3]
0.24162668629717493 15.618656898711224 2160425.4255784233 3.5677272577965504 0.1711233750220791
0.2536415746525095 15.277351686125069 1723213.6016692035 3.7847924252514713 0.17388783425816956
0.26603738886665557 14.981288150473429 1383010.899821355 4.011344347149311 0.17666597065116937
0.27881059255093915 14.723590040840175 1116436.676846088 4.247639960480293 0.17945649060366684
0.2919626768291171 14.498506828352417 905992.0268873266 4.494304012266338 0.18226595240467716
0.3054969387482641 14.301329399944436 738786.1265960336 4.751489725184018 0.18509001567494487
0.31941097762376025 14.128252437860604 605193.0376328793 5.0198832785472325 0.1879353848182312
0.33370840238587013 13.976075648126606 497772.1003108288 5.29970334946805 0.19079857777030718
0.3483853140077471 13.842111940799278 411110.5452647886 5.591684735880089 0.1936860164895227
0.3634456027809169 13.724110966558847 340728.1463176799 5.8959868928263415 0.1965926196128286
0.37889727873997026 13.620110683584924 283373.5428716482 6.213477078186455 0.19952613495357396
0.39472572519214805 13.528586657731665 236459.80881179648 6.544418286521622 0.20248284039029582
0.4109484814736541 13.448011445100176 197923.80362823675 6.889501713811813 0.20546625817987832
0.4275527964000192 13.377181523595164 166134.11794222108 7.249437261501171 0.20847955130913678
0.44454622217918865 13.315032505001065 139851.27769194625 7.624491937779944 0.211518395584201
0.46192423307448716 13.26067174938292 118015.12987811798 8.015598605056692 0.21458870431987737
0.479686441264188 13.213243546465867 99843.29250217415 8.423469380444574 0.21769224338558965
0.4978392266368985 13.17207815166155 84674.05494876188 8.848556069219054 0.22082664000001245
0.5163745490053402 13.136481099079148 71964.06194376419 9.291709989149716 0.22399499270627016
0.5352893315196461 13.105935430412373 61298.75615583671 9.753825812749042 0.22720036932750204
0.5545924239859098 13.079873571519057 52320.57108135195 10.235712685605222 0.23044412008997261
0.5742706827527827 13.05790832416918 44749.84053822644 10.737857042566215 0.23372313785859372
0.5943253365630675 13.03957142405487 38346.09148964717 11.261472883990178 0.23704322714868373
0.6147585138049607 13.024536708212706 32916.15712306962 11.807511733580332 0.240406188102326
0.6355558161561342 13.012478644018051 28308.154072678786 12.376952029566892 0.2438136526522274
0.6567245931908293 13.003056181426976 24383.51283065733 12.970503703474288 0.24726381000477674
0.6782517866828188 12.995999273685523 21038.278341962312 13.589451371375066 0.25076097660214147
0.7001359765030628 12.991080464268675 18181.75333538947 14.235011978921143 0.25430801619390714
0.7223661406253507 12.988010478725553 15736.910911608651 14.90837447387498 0.2579069119862448
0.744949434189111 12.986645067361549 13641.559255258717 15.610595095428192 0.261557830516792
0.7678658300330334 12.986745332480519 11842.22849063085 16.342886330314332 0.2652621343114908
0.7911051873986799 12.988125219276407 10294.495794400678 17.106888779533392 0.2690247717530632
0.8146764345857342 12.990642914001686 8961.689278272956 17.904056512929966 0.2728481734977815
0.838552935251503 12.994116778448674 7811.506747338972 18.73578630432941 0.2767337068482244
0.8627296706892892 12.99839243711234 6818.750492279563 19.60335871949927 0.28068128637501
0.8872014764142462 13.003322207669738 5959.299372842976 20.508888695766387 0.2846975462317184
0.9119588095875211 13.00881449448235 5214.518141704168 21.454169055290542 0.2887854971727332
0.9369720786698907 13.014704233002158 4568.145723289778 22.44072381454849 0.2929453866817117
0.962246788943747 13.02090890397819 4007.3121610759076 23.470496999961377 0.29718036739666814
0.987766881631082 13.027302794522326 3518.939985533565 24.545947975174816 0.30149685197655185
1.0135048901725119 13.03375716848933 3094.191450278727 25.669065888883416 0.3058968258111296
1.03946331671193 13.040211781111982 2723.3991180272624 26.84171602107188 0.3103808446113843
1.0656135536391766 13.04654941029325 2399.8694102995205 28.067038683590418 0.3149579830495679
1.0919375159741531 13.05266348556294 2117.305669101082 29.34714296540304 0.31962906550138265
1.1184314876626829 13.05850836387205 1869.9513755595542 30.684673195044745 0.3243980209906667
1.1450589167805671 13.063968137584755 1653.136534997701 32.08314212348044 0.32927367598828583
1.171816824848675 13.068980388225238 1463.218125928173 33.54436575408623 0.3342529215488581
1.1986671756723482 13.073440974148738 1296.3728280359603 35.07294274195048 0.33934971182557033
1.225610404433639 13.077305160995847 1149.8936147663958 36.67096705668974 0.3445612469074634
1.252601768185075 13.080474887860989 1020.924441282911 38.34335340389825 0.3499011391573213
1.2796402138277299 13.082924717576994 907.424703315978 40.09246177792632 0.35536669910389035
1.3066805844387648 13.084512375597356 807.4116764513519 41.92371513881587 0.36097220678398567
1.3337134775318495 13.085234384347396 719.1688275436941 43.840489484700036 0.366719013063422
1.3607180407412915 13.085040444750524 641.1307637777423 45.84765243873972 0.3726158797221214
1.3876466889041263 13.083786318255632 572.2723071276042 47.95044238005799 0.37867225171461044
1.4144999266930656 13.081505903472316 511.2265652594169 50.15350223924168 0.3848932167996247
1.4412281725495393 13.078080514105384 457.2371712942711 52.46225898706359 0.39128683689213334
1.4678143257452403 13.073472968856793 409.3640846362041 54.88301805816026 0.39786424643379215
1.4942197913063324 13.06761601943076 366.83154958024676 57.421962391981275 0.40463449482866165
1.5204298297255767 13.06048758147109 329.1183076501987 60.08571241680891 0.41160734061409976
1.5464118909054299 13.052011798638526 295.5474969349539 62.881365427100214 0.4187933098329693
1.5721271648504425 13.042145036914414 265.6971733602054 65.81653872999786 0.426203759169127
1.597549518434737 13.030831492086453 239.12555134113381 68.89941694351032 0.4338509444037295
1.6226378872166558 13.018031132908249 215.42594262128526 72.13880387640218 0.4417480948181497
1.6473881854531702 13.0037031446017 194.26431295460395 75.54417947374448 0.44990949424492915
1.671737593734557 12.98778613823298 175.37947089618086 79.12562197405462 0.45834998320005405
1.6956754443723394 12.970255699858932 158.50077968929068 82.89301045762494 0.4670815508059027
1.7191482622140106 12.951055590757479 143.41662952245107 86.85921359826423 0.47612634552795846
1.7421450544968218 12.930144135565762 129.90135806849193 91.03597244210273 0.4854993950827989
1.7646289711787209 12.907521498816205 117.77997185549535 95.437007988656 0.4952211904049715
1.7865555279515457 12.883099174121254 106.92025868259097 100.07633544637758 0.505310662833586
1.807896449784581 12.856864196717975 97.1726058733116 104.97027987687525 0.5157927702229261
1.8286105654721918 12.828750553503692 88.41055612071591 110.13526085524755 0.5266896482856723
1.8486927535160333 12.798809930362207 80.53709925947673 115.5889752805736 0.538024982537537
1.8680837910685217 12.766926966302988 73.44805052470151 121.35171699766386 0.5498284724983332
1.8867601955925164 12.733104023835304 67.0687572845502 127.44477638766854 0.5621294921428945
1.9046868249509827 12.697313146865017 61.311377850401044 133.8907902588458 0.5749581001640944
1.9218348354868577 12.659526513381731 56.12430436634319 140.71494727943124 0.5883489154929106
1.9381559999104565 12.619664316731134 51.438403093481114 147.94511577180026 0.6023409726746286
1.953660982146095 12.577857647959922 47.207007842947725 155.61002073502857 0.6169708975846789
1.9682839293867649 12.53395305420607 43.376652839427955 163.74290272311072 0.6322849878968407
1.9820102575507104 12.487987387631271 39.91446077439609 172.37751365114443 0.6483248494870413
1.9948088808457947 12.439938339042135 36.77651967268985 181.55332379524367 0.6651443756391355
2.00664868231626 12.389796001053362 33.93534775637864 191.31210300303363 0.6827973320237668
2.0175115671164745 12.337572029072714 31.354687993739887 201.6998117738911 0.7013428557307197
2.0273601035574966 12.283222681199259 29.017086953260424 212.76662673968823 0.7208445285783979
2.0361811006394763 12.22678774130466 26.89283433674411 224.56733290399802 0.7413705595388376
2.0439376803512763 12.168229040524794 24.963728887864164 237.16361804668432 0.763000001444717
2.050609888689871 12.1075595336855 23.207025080297573 250.62167967576033 0.7858134955372152
2.0561905778498986 12.044827600451915 21.611655315455906 265.0149091592645 0.8099004070538666
2.060658071170997 11.980036478719612 20.15898439249995 280.4251186562984 0.83536095352368
2.0639847719888262 11.913189742926628 18.837126575062186 296.94121844247627 0.8622997590950386
2.066154388534827 11.8443155606308 17.63327372934355 314.66367012505043 0.8908379530666924
2.0671630220936983 11.773457748185246 16.536532938606463 333.702066557553 0.9211024413328912
