M[M_sun], R[km], Lambda[1], P_c[MeV/fm^3], rho_c[fm^-3]
0.24162668629717493 15.618656898711224 2160425.4255784233 3.5677272577965504 0.1711233750220791
0.2536389539769951 15.277442638534218 1723331.7008093596 3.784743748709288 0.1738872275285536
0.2660308144781386 14.98147735812297 1383241.1358291623 4.011242021205722 0.17666473410252972
0.27880183523940444 14.723749395552858 1116690.0671155048 4.247480525206927 0.17945464139475964
0.2919527558799883 14.498635979526497 906157.0965860935 4.49408328594409 0.18226349456585103
0.30548089004618945 14.301540561479873 738899.9304175711 4.7512002154351585 0.1850868884171195
0.3193918611936573 14.12847241049972 605309.0028442799 5.019522854863383 0.18793164528340048
0.33368416401738815 13.976325903219786 497929.99002622353 5.299262525611591 0.19079413940553167
0.34835947184171573 13.842370596023706 411225.9208480852 5.591162413376392 0.19368096287561345
0.3634151220720182 13.724345576239871 340850.65686920204 5.8953713402391195 0.1965868382126646
0.3788609173810679 13.620366741135474 279559.901727764 6.21276084962367 0.1995196038114767
0.3946882322281335 13.528774731562178 236565.9074058367 6.543602127754399 0.20247568378048378
0.4109051348471686 13.448206786089562 198015.51488154702 6.888569873285949 0.20545832223492835
0.4275066042842375 13.377343525942427 166225.72907801764 7.248380998782774 0.20847081311836443
0.44449227697538063 13.315245435475312 139925.08389050045 7.623314174241423 0.2115090198291349
0.4618663138201713 13.260829907154521 118085.48602707921 8.014278803460236 0.21457849458751502
0.4796227180115943 13.213419292265304 99913.4848320459 8.42199725381516 0.21768117505133172
0.49777066731409686 13.172218968167444 84723.87746369447 8.846937047133066 0.220814917588355
0.5162999593296896 13.13662147433644 72015.67381947793 9.289917878415123 0.22398237613497354
0.5352096708796475 13.10602795889776 61341.99484416504 9.751848467976696 0.227186831378521
0.5545073130061372 13.079994197910024 52362.2464113602 10.233537223649567 0.2304296323619984
0.5741778958357273 13.058002592925773 44780.035473409225 10.735492916610054 0.2337079594376406
0.5942305582424547 13.039674359470256 38373.033220565034 11.258884552019632 0.23702705520369252
0.6146539280362608 13.024610825624404 32665.137202764126 11.804683912173301 0.24038899023005542
0.6354450664491066 13.012537557529255 28331.200087545094 12.373868482114196 0.24379539473895162
0.6566067842367573 13.003112413954689 24211.026828957733 12.967178589637628 0.2472448050176135
0.678128410997176 12.996030402266527 21055.992776570434 13.585837489507064 0.2507408554761173
0.7000057304786164 12.99109158117808 18197.799746434885 14.23108996131594 0.2542867390569848
0.7222272477268082 12.98802014291684 15752.796650108063 14.904123708804528 0.2578844365889793
0.7448051327142139 12.986659570647173 13654.438768794258 15.606035108726674 0.26153452288953255
0.7677134783200328 12.986753938512654 11852.881184715421 16.337955392403327 0.2652375548227264
0.7909466203960398 12.988118243654386 10304.703701273655 17.101562155266848 0.26899887018300134
0.814509220950167 12.99062946757291 8970.936629492398 17.89830782776016 0.27282089639770146
0.8383782438685079 12.994096890229097 7819.221591494483 18.729641051142337 0.2767054725894692
0.8625487046988072 12.998347964960045 6825.575433188697 19.596737026073928 0.280651579012694
0.8870113059632125 13.003292745782243 5965.377182347344 20.5017587082273 0.2846663015208001
0.9117593532200349 13.008783140616506 5219.88838431525 21.44649673916575 0.28875264653688976
0.9367681083297668 13.014658867211713 4573.339724601646 22.432541121938595 0.2929114004351289
0.962030779148645 13.020869290724633 4011.415642772262 23.461701286949104 0.2971446453926643
0.9875468473322178 13.02725080520502 3522.831272908373 24.536497862900028 0.3014593111666631
1.013281611840684 13.033712488900477 3097.633495166285 25.658997946814395 0.3058579716837091
1.0392283737834218 13.040157581359878 2726.4404849676807 26.830907221272316 0.31034001091207725
1.0653711081896386 13.046492907975479 2402.6546455904704 28.05543845778664 0.31491506877015496
1.0916871342974912 13.052612760139784 2119.6687244723926 29.334792413256853 0.31958461109693403
1.118173856158574 13.058452029634154 1872.1325280097703 30.671424932910618 0.3243512868875226
1.144794458189959 13.063910443430656 1655.1595126609502 32.06897728509267 0.3292248186696239
1.1715453132819513 13.068927111551709 1464.9461102351759 33.52924317769226 0.3342019569072075
1.1983942220348591 13.073407801823114 1298.0051016960513 35.05672900267854 0.3392960973853527
1.2253259037252577 13.077270053798557 1151.3633735892308 36.65370918700823 0.3445055756913317
1.252310770676949 13.08044292034901 1022.2541981836747 38.324852945696826 0.34984253376144286
1.279342362013818 13.082901153369233 908.5798187152614 40.07276693803285 0.35530576984888085
1.3063766701638766 13.084503033230929 808.4543389817957 41.90274454929516 0.3609088095148342
1.3334035123781847 13.085229506302142 720.0567691919467 43.81800815918327 0.36665218693750073
1.3604034872622517 13.085050043543731 642.0287616513917 45.823707461487736 0.37254625098095195
1.3873280572874853 13.083810005294024 573.038965986626 47.924931530821695 0.3785996396026026
1.414167449035566 13.08152290507052 511.93142176510537 50.12614594502966 0.38481656144851667
1.4408987682119616 13.078127806060213 457.8764943440425 52.433100653660325 0.3912067790332914
1.4674802074964362 13.073539263728936 409.9248933721037 54.851928649384654 0.39778055933667644
1.4938845386456627 13.067700527576461 367.36365291947874 57.38880242317538 0.40454693424147764
1.52009133418658 13.060588109118939 329.58069968304477 60.05033101971903 0.4115156433255757
1.5460700712808952 13.052132648669454 295.9603307135621 62.84359932148567 0.41869719209164175
1.5717841097671164 13.042285957518361 266.07353776163217 65.77621109158679 0.4261029149448593
1.597199933230692 13.030985822132747 239.4589813273355 68.8563361566551 0.43374504347438053
1.6222849507075758 13.018190709395366 215.72378867565808 72.09276215835716 0.4416367806622792
1.6470422117571284 13.003914914794587 194.54849793791348 75.49495135587057 0.4497923817191306
1.6713970357599899 12.988026212400898 175.6465299610754 79.0731030225251 0.45822724232913753
1.6953309779406531 12.970525498955663 158.7451923318457 82.83692267853581 0.46695266125291
1.718795725619551 12.951321773650191 143.623955566907 86.79915199490317 0.47599033554721676
1.7418122084927736 12.930489101803843 130.09395036607492 90.971912006934 0.485356884194347
1.7642928979938124 12.907883187954797 117.96229047001546 95.36833203974658 0.49507050003847
1.7862218559917813 12.88349097461431 107.08113374396038 100.00298419903899 0.5051523740240831
1.8075663674579598 12.8572863613315 97.31036961903513 104.89187321733274 0.5156262735170408
1.8282990344771894 12.829233990441136 88.54851621453074 110.05105270419753 0.5265130504516924
1.8483764763421986 12.799305768240187 80.65665405491494 115.4988336248495 0.5378387809823051
1.8677738672402502 12.767465105356603 73.55803300770832 121.25514643265895 0.5496318902171472
1.8864569004510514 12.733681701806361 67.16642803170022 127.34123511512142 0.5619216856350627
1.9043938386414647 12.697927448541128 61.40416732299717 133.78006570558566 0.5747394955162902
1.9215335107340914 12.66012142698129 56.21040705337768 140.59602384318345 0.5881172074148027
1.9378890969410074 12.620393948488646 51.51586410267712 147.81728182257942 0.6020950777131668
1.953398946096839 12.578601756698134 47.27569959212029 155.47291533990955 0.6167110691364849
1.96803469620475 12.534742712723796 43.44162355707483 163.5952651029983 0.6320085461928705
1.9817746427593848 12.488823621045972 39.97404639389138 172.21885060964624 0.6480318955287729
1.994583691241069 12.440822549086548 36.831910581695574 181.3826300001692 0.6648334545246039
2.0064408941084486 12.390732395303473 33.98432077369281 191.1282708689368 0.6824668547915661
2.0173259250754314 12.338575317606352 31.404523088982813 201.5016195606811 0.7009910841023217
2.0271839466182433 12.284255770018817 29.059224217036682 212.55316501117804 0.7204709990849978
2.0360107759316 12.227840744200904 26.93158133116203 224.3367472921526 0.740971986819298
2.043798437414449 12.169373317468438 24.997782401416693 236.91472645524152 0.762575618417736
2.0504923215882296 12.108758682826542 23.241269726008998 250.35214567710105 0.7853591221406446
2.056092543588153 12.046075294889185 21.641587298492205 264.7232660642508 0.8094150959996571
2.060580298959879 11.981338837782674 20.187057827236384 280.10915058465247 0.8348417686018541
2.063926982979193 11.914554837557079 18.86093184745816 296.5990451104886 0.8617453769862194
2.0661217869331527 11.84572716900446 17.656008028781088 314.2919781869925 0.8902429473800393
2.067153460019658 11.774933039175433 16.55789568089104 333.2984065792805 0.9204648926413413
