M[M_sun], R[km], Lambda[1], P_c[MeV/fm^3], rho_c[fm^-3]
0.24162668629717493 15.618656898711224 2160425.4255784233 3.5677272577965504 0.1711233750220791
0.2536448914126476 15.277243818261205 1723157.4816047344 3.784837381655259 0.17388839461805508
0.26604103358437237 14.981248072736449 1382840.7267964655 4.011438854420544 0.17666711271576785
0.2788174041297051 14.723475958219321 1116338.0126733258 4.247787215883294 0.1794581985444325
0.2919733118653694 14.498349715913847 905839.123588437 4.4945078798286975 0.18226822251729924
0.30551005716992097 14.301149168940986 738629.4663654765 4.751757127073172 0.1850929041256919
0.31942583900951854 14.128117540279174 605069.3701998144 5.020216184437246 0.18793883884532994
0.3337250477826546 13.97597692692177 497656.15963755944 5.30011052375094 0.19080267733971154
0.34840948537111355 13.84195617742414 410959.9766131803 5.592167195089831 0.1936906844150969
0.3634731819976031 13.723923841277823 340625.6864839068 5.896555475937418 0.19659795986573284
0.3789284139187251 13.619937854576019 283283.1215575173 6.214138665715516 0.19953216783523578
0.39476197162045434 13.528395231413848 236373.1654006289 6.545172191492477 0.2024894511184145
0.4109884780627557 13.447800395113191 197831.53641734683 6.89036249009973 0.20547358891195697
0.42759766173303065 13.377004484533845 166056.84180384153 7.250412986328714 0.2084876232305782
0.44459463007481725 13.314878454179228 139771.97898492313 7.625579914273015 0.2115270565766524
0.4619779448267591 13.260539605796003 117961.44833946494 8.01681780981672 0.2145981358543809
0.4797442258679429 13.213105374686249 99794.2819069241 8.424829320395428 0.21770246823285888
0.4979033453058696 13.171937018535347 84627.65171568553 8.850051729993568 0.22083746922306663
0.5164437737611106 13.136351481949719 71926.6883598701 9.293365574778752 0.2240066481323123
0.5353631306185846 13.105815785736931 61263.54021897411 9.755652548222773 0.22721287612550264
0.5546724322914105 13.079787082494578 52295.23601471753 10.237722238447837 0.2304575014432496
0.5743566947672837 13.057808745484655 44719.678839631706 10.740041159266118 0.23373716056436178
0.594415446470314 13.03950012305884 38320.75564061728 11.263864170343004 0.2370581679490896
0.6148550296132753 13.024489220759856 32893.845944287736 11.810124315754045 0.24042207696093928
0.6356606863660078 13.01241456327797 28284.71815005017 12.379800915007623 0.24383052111431772
0.6568331530573528 13.003012690196975 24364.83550143235 12.973575809676321 0.2472813689040511
0.678366603469474 12.995967668334002 21022.45363716596 13.592790322009984 0.25077956698471826
0.7002571887717532 12.991056294498382 18167.29828405475 14.238635676365298 0.2543276749293963
0.7224942294496836 12.988002690331705 15724.608947698302 14.912301970744041 0.2579276781426727
0.7450831780482622 12.986647827280777 13629.625194636847 15.614808348802141 0.2615793658732782
0.7680065865876976 12.986763058172873 11833.096348326058 16.347442395086357 0.2652848451516788
0.7912536255950475 12.988142154488628 10286.972296276766 17.1118105209517 0.269048704514939
0.8148316500365469 12.99066519050347 8953.799863956187 17.909368312151493 0.2728733776052758
0.8387150658959255 12.99413184867799 7805.220574363083 18.741464601725777 0.2767597956867307
0.8628984637593304 12.99842094101315 6811.902084312464 19.60947734472772 0.28070873678759506
0.8873817691077069 13.003370056083643 5917.576847177414 20.51547709666757 0.2847264176260151
0.9121392882027476 13.0088565512263 5209.407346465195 21.46125869618316 0.28881585296196766
0.937162346890449 13.014751732381352 4563.754209866417 22.44828516312096 0.29297679221890277
0.9624476564667269 13.020960992241067 4003.257963538414 23.4786249428161 0.2972133773876483
0.9879697740606491 13.027356315365305 3515.252063478616 24.554680768419267 0.3015315432184605
1.0137145186402838 13.033808265154486 3090.76032664231 25.678369729800465 0.3059327311250471
1.0396806490467245 13.040271459258982 2720.4368418154645 26.851704647109862 0.31041857984190846
1.0658350822448734 13.046587071465126 2385.0896806953397 28.077758849351007 0.3149976416042017
1.0921687902349497 13.052726037879465 2114.874464573596 29.35855667770713 0.3196701478576223
1.1186698283855236 13.058552120609322 1867.6773684156562 30.696916716875712 0.32444121080728594
1.1453021119701396 13.064016498875871 1651.4413017657805 32.09617549567892 0.3293184573714243
1.172069097861238 13.0690151243703 1461.4865284091118 33.55834185031925 0.3343000224341592
1.1989250041665147 13.07347576617133 1294.894521345843 35.0879275233061 0.33939926243512997
1.225873593278173 13.077341900312911 1148.6130483934207 36.686917039915116 0.34461269908434417
1.2528707203966036 13.080503059960122 1019.8016280816512 38.360401554167424 0.3499550075964498
1.279915343459271 13.082938870867489 906.3552219423548 40.110664603087734 0.3554230125637688
1.3069609137201865 13.084521029833633 806.4506838504428 41.94309733888625 0.3610308021111888
1.3339997642450934 13.085238012827336 718.3155009895951 43.86126835577094 0.36678077861428543
1.3610096399699476 13.085030262708301 640.3456307778248 45.86978444389359 0.37268023658670324
1.387942028775598 13.083767584856666 571.5584725775 47.97402204696741 0.3787393670583168
1.4147924275497583 13.08145637784673 510.60649481891 50.178788113086014 0.38496407060469745
1.4415240336195458 13.078016900316639 456.6848710877152 52.48921092898162 0.3913608368266202
1.4681202533022943 13.073414693936693 408.8324678127992 54.9117554022074 0.3979416021956684
1.4945296200003029 13.067544800741945 366.364174180146 57.45261413812597 0.4047154323261109
1.5207429202376603 13.06039418501342 328.702264451284 60.11841809631834 0.41169210329666805
1.5467292084867934 13.051899064291032 295.16144493554344 62.91627605427253 0.41888216015464075
1.572443704910463 13.042013426303226 265.34393732624795 65.85381784985664 0.4262969801974754
1.5978590234979102 13.0306716516702 238.81048753219406 68.93924178624579 0.4339488415909614
1.622955215329323 13.017853560746858 215.14038639219893 72.18136663066994 0.4418509979517427
1.647708022025188 13.003504353627605 194.0111262893247 75.58968869243557 0.45001775959770346
1.6720564176074733 12.987563866531305 175.14867777522127 79.17406651124949 0.45846300375108817
1.695992861582001 12.970004955286836 158.29204283725468 82.9448629353988 0.4672007076488081
1.7194735796624367 12.950786835711042 143.21392995886114 86.91474092189117 0.47625208759601045
1.7424538641674443 12.929832309966395 129.71723391252212 91.09519772507352 0.48563114953736586
1.7649371654560064 12.907180597552946 117.62509687126476 95.50050173031387 0.49536050985163244
1.7868629627236572 12.882742876431243 106.77769925160841 100.14415293132379 0.5054570100239216
1.8082007444284538 12.856471842513225 97.04163288153777 105.04277275052564 0.5159467089920737
1.8289134469104305 12.82833859392601 88.29042492603597 110.21291199240011 0.5268521581648571
1.8489861785973258 12.798348997361282 80.42674869722286 115.67232158191862 0.5381971472355184
1.8683591771830699 12.76640340195183 73.34896385376472 121.44100941479115 0.550010239137584
1.887036189442428 12.73257348660352 66.97605027566101 127.54041626273727 0.5623212841586088
1.9049580755305602 12.696746180047539 61.22710123420167 133.99317411027198 0.5751602376767133
1.9220976031322692 12.658917098630404 56.0484797913844 140.82491492038304 0.5885631742760651
1.9384085485232687 12.619017827179382 51.366864391614534 148.0633256904678 0.6025683553344958
1.9539024313637465 12.577162504534302 47.14209487773852 155.73680685574132 0.6172111699748992
1.9685159088173196 12.533222786181051 43.32139728858813 163.87913573456643 0.632539627655652
1.9822267365783988 12.487210321109929 39.86115228857691 172.52424201714018 0.6485957673719048
1.995011529320413 12.439118540391409 36.7290851681455 181.71118181020165 0.6654319162022068
2.006844637193664 12.388947167361296 33.88587937210288 191.48211569148256 0.683102965872787
2.0176881210855737 12.336659966639042 31.313709940611183 201.8831098520719 0.7016681917386262
2.0275202149867564 12.282266735515645 28.97853205498365 212.96399669014468 0.7211898154984524
2.0363256691567617 12.225783488889952 26.85733519416953 224.78060139148138 0.7417391991966552
2.0440652706174527 12.167177645474482 24.93150558356375 237.39382398498708 0.7633925237166009
2.0507202207860566 12.106455643826578 23.17696495780333 250.87073196285266 0.7862329427057028
2.0562884273747817 12.043694552841995 21.58529028093315 265.2846478322867 0.810349227475625
2.0607290110785073 11.978831325082215 20.133535486628663 280.71689254751016 0.8358395744276162
2.0640286720523155 11.911922568801652 18.812733073856258 297.25774112993827 0.8628125825636151
2.0661849511747223 11.843007271999618 17.611638891375126 315.0075100149716 0.8913883731023549
2.067170684422163 11.772103230380708 16.51701720570157 334.0754912503775 0.9216922358062536
