M[M_sun], R[km], Lambda[1], P_c[MeV/fm^3], rho_c[fm^-3]
0.24162668629717493 15.618656898711224 2160425.4255784233 3.5677272577965504 0.1711233750220791
0.2536446333252798 15.277266372759293 1723103.6582016293 3.7848472840572884 0.17388851804671931
0.26604268069112885 14.981203128691304 1383066.9852733219 4.011459671446356 0.17666736427723942
0.27881966736383246 14.723430722044633 1116261.6042011573 4.2478196520115565 0.17945857475464014
0.29197623704800146 14.498310476649799 905748.3754890844 4.494552786421419 0.18226872256263146
0.30551272308132005 14.301148449832954 738578.1690780699 4.751816029163602 0.18509354038068487
0.3194311049972515 14.128035215347525 605020.1103611618 5.020289516136146 0.18793959969000948
0.33373297932514684 13.975780291343368 497589.164400371 5.300200215968841 0.1908035803915195
0.3484146762727879 13.841866412177673 410930.10977873893 5.592273471994973 0.19369171267338992
0.3634804219048551 13.723848430926365 340607.3244677537 5.896680725527738 0.19659913623639078
0.37893504468627554 13.619895557304515 283241.383321473 6.214284404015536 0.19953349679305163
0.3947701399962992 13.528334176492123 236359.93382802786 6.5453382674163905 0.20249090737990963
0.4109973110612678 13.447788498147053 197822.35068975404 6.890552110175897 0.20547520379609657
0.4276074482437168 13.376980420262749 166034.7812267332 7.250627930318279 0.20848940140711847
0.44460593408091303 13.314823306416448 139763.19333422492 7.625819588303087 0.2115289645360417
0.4619875940452314 13.26050069735981 117941.6763104023 8.017086394955765 0.21460021357757317
0.47975686511448407 13.21308023479587 99775.8621095612 8.425128911495312 0.21770472073910932
0.497917408456202 13.171905844431175 84616.363693015 8.850381222588169 0.2208398548902329
0.5164592184583633 13.136328169491945 71918.5193061114 9.293730301847837 0.22400921583361674
0.5353799677515204 13.105785418498913 61254.20261414875 9.75605498326846 0.2272156314088467
0.5546901661518873 13.079763227827609 52286.43658954733 10.23816069922871 0.2304603947304377
0.5743756896701894 13.057787457414559 44713.746476392684 10.74052233418524 0.23374024985639189
0.594435457642066 13.039481061127287 38314.22342935413 11.264390990600434 0.23706145953159152
0.6148749606956342 13.024471703753084 32888.212131838314 11.810699894268684 0.24042557743863985
0.6356829464834904 13.012406726717982 28048.774180533328 12.38042855893603 0.24383423744059088
0.6568569528723982 13.002991565979217 24360.17870744242 12.974252636731068 0.24728523736995006
0.6783915649056235 12.995963980730878 21018.94262946731 13.593525944838024 0.25078366273553965
0.7002841980902581 12.991052743328455 18163.982649109174 14.239434040184372 0.2543320060920789
0.7225217493126013 12.988002086196655 15721.488965535422 14.913167274298155 0.2579322533287419
0.7451132293635782 12.986642895847961 13627.643534809133 15.615736616627183 0.2615841105626554
0.7680373768302556 12.986754835221227 11830.544379918434 16.348446200037206 0.2652898488675958
0.7912857166768466 12.98814749349942 10284.69530616819 17.11289490213054 0.2690539774934094
0.8148648663442384 12.9906791598269 8951.71139748637 17.910538642797274 0.27287893074050734
0.8387506519797918 12.994145138811076 7803.591786415154 18.74271569049166 0.27676554379227924
0.8629350180271882 12.998423826600051 6810.412729383317 19.610825461805103 0.28071478493870833
0.8874203890620288 13.00337811983822 5952.321777919947 20.51692873210767 0.28473277891759324
0.9121791374122612 13.008865885448278 5208.4059277217075 21.46282078452782 0.288822541371899
0.9372034613659312 13.014760538542442 4563.16140950924 22.449951196520363 0.2929837119731483
0.9624909385524649 13.020973624122743 4002.110058435151 23.480415832912534 0.2972206507244552
0.9880152555712051 13.027359874958417 3514.8740563041342 24.55660494688385 0.3015391870660499
1.013762024921242 13.033812268030674 3090.4136978915153 25.68041974739001 0.3059406425377363
1.0397289319149754 13.040280101288252 2719.785606921044 26.853905570870975 0.3104268945355586
1.0658827601366974 13.04660247032184 2396.7024699585513 28.080120984361823 0.3150063801687417
1.0922202459839199 13.052731583866272 2114.482436824681 29.361071650866464 0.3196792002167945
1.1187209224343575 13.058567388298263 1867.2226203007563 30.699614560891074 0.32445072762686605
1.1453568843317499 13.064022603142723 1650.9150178386494 32.09904740390828 0.3293283249652288
1.1721237462017395 13.069028620451173 1461.1359173484727 33.56142151739215 0.33431040122972183
1.1989818001527057 13.073491577054831 1294.5132189358667 35.09122948838563 0.33941018113848326
1.2259325771039797 13.07734983004777 1148.3095934183634 36.69043171923893 0.34462403689578214
1.2529301574496898 13.080516333658906 1019.4941546556669 38.364143214452795 0.3499667897259884
1.2799755380361693 13.082950738563035 906.0878368702996 40.11467578229862 0.3554354218121989
1.307028885630819 13.084551329351255 806.2338678559465 41.94736844054834 0.3610437142985824
1.3340604524192234 13.085241446436509 718.0397175115573 43.86584727770517 0.36679438953831806
1.3610729662286987 13.085029291226963 640.1720383759607 45.87466158976408 0.3726944186643844
1.3880138565863547 13.083778644415617 571.3916324361626 47.97921825354024 0.378754157139595
1.4148595303048015 13.08145069691415 510.4611400651451 50.18436037303429 0.38497968469114824
1.441591825765488 13.078006875420458 456.55850685000047 52.49515039453994 0.39137714437371796
1.4681876420082467 13.073404529162419 408.71123448630357 54.91808837931677 0.3979586494310857
1.494598732349297 13.067526700058364 366.26613881718623 57.45936906386982 0.4047332690517115
1.520811701771455 13.060370846451557 328.6118817735305 60.12562572976305 0.4117107831820857
1.5467969808512483 13.051875221503739 295.07810956506296 62.92396968635276 0.4189017410599558
1.5725138987884684 13.041985529013314 265.2644563010211 65.86203353442724 0.42631752452811306
1.5979279897457237 13.030641226072355 238.7333319613179 68.94801859468056 0.43397041668830316
1.6230362742248359 13.017825801472114 215.06609689712673 72.1907469326788 0.44187367652335696
1.647778165684631 13.003461324050463 193.93898860364524 75.59971846610232 0.4500416201915679
1.6721269810822041 12.98751454347221 175.10289515874402 79.18474329724715 0.45848791257067034
1.696063088720543 12.969954781916876 158.2425080778347 82.9562909327048 0.46722696915333356
1.7195427489100907 12.95072680977845 143.1696972540248 86.92697897593112 0.47627980076717386
1.742523089602942 12.929777180107033 129.67572756451355 91.1082509292045 0.4856601881118456
1.7650055087105543 12.90711029122821 117.58387832030485 95.51449586905458 0.4953912161167689
1.786916721637067 12.882628812318785 106.74403735917846 100.159100190956 0.5054892655617395
1.808266586000818 12.856385814403627 97.01270877037518 105.05875066207408 0.5159806381207378
1.8289696761851 12.828228175736283 88.2659374265075 110.23000512472372 0.5268878953576399
1.8490513207994952 12.798248130389185 80.40688037342052 115.69069211813499 0.5382350944241567
1.8684229626595403 12.766293609673223 73.32555000056888 121.46069078625709 0.5500503031974706
1.887099864240173 12.732454605079264 66.95927731934658 127.56144414871888 0.5623633698075444
1.9050179830963885 12.696620453809349 61.20809507207451 134.01574156735353 0.5752047928441256
1.922155545894515 12.658784073735053 56.03168026698123 140.8491543218778 0.5886104018479553
1.9384642781378743 12.618875829377805 51.35208929891906 148.08938224036575 0.6026184764046187
1.953954582031378 12.577011742463476 47.12707184169948 155.76475418092716 0.617264132953693
1.9685647965071764 12.533057128903666 43.306837331925436 163.90914324785976 0.6325956819398637
1.982275372001124 12.487039793390121 39.84889298712123 172.5565861120134 0.6486554872066581
1.995057346983827 12.438936870572197 36.71827550958412 181.7459797689259 0.665495301166524
2.0068880518797183 12.38875534902054 33.87802335890145 191.51959356269455 0.6831703402913443
2.0177264212362513 12.336460169471936 31.30325594965225 201.92351699858344 0.7017399104378478
2.0275564529273375 12.28205529045163 28.96945563668133 213.00750654837805 0.7212659333923196
2.036358604636162 12.225561924767659 26.849749932740423 224.82761683446242 0.7418204665091269
2.0440935127213526 12.16694479613951 24.924380359756526 237.4445741301555 0.7634790573761009
2.0507445775519297 12.106212385166698 23.171513420047912 250.9255835969635 0.7863252371134457
2.056307548868748 12.043440425114081 21.578847228179104 265.34400786691685 0.8104478259137502
2.060744653078313 11.978565806508097 20.127809544441966 280.781213077911 0.8359450750679459
2.064040534499993 11.91164340444042 18.808945102890174 297.3275252026986 0.8629256452654749
2.066187779074932 11.84271467693568 17.607680673708924 315.08331821493914 0.8915097271201774
2.0671720279102765 11.771800300466602 16.51197602722292 334.15782374846424 0.921822273410308
