M[M_sun], R[km], Lambda[1], P_c[MeV/fm^3], rho_c[fm^-3]
0.24162668629717493 15.618656898711224 2160425.4255784233 3.5677272577965504 0.1711233750220791
0.253644824313302 15.277249860451724 1723120.3919121893 3.7848351936436 0.17388836734554527
0.2660409800273032 14.981241678348532 1382964.4916214454 4.011434254749488 0.17666705713145767
0.27881729946890366 14.7234879638646 1116437.060697557 4.247780048903978 0.17945811541827283
0.29197283809418845 14.49836151874186 905808.3644645422 4.4944979574380755 0.1822681120291768
0.3055091837489007 14.301188969458723 738584.0604371177 4.7517441123185415 0.18509276354150286
0.31942782073150155 14.128057810658369 605053.0077460656 5.020199981411028 0.18793867073267914
0.3337273994810283 13.975889761269292 497652.4678587794 5.300090705823427 0.19080247780606538
0.3484083022890894 13.84196598218609 410968.53384617757 5.592143712741969 0.19369045721692155
0.3634717209280213 13.723918377551673 340632.7152106594 5.896527801548661 0.19659769994201712
0.3789259587782745 13.619964935843003 283271.94615893543 6.21410646433178 0.1995318741973891
0.39475926124946065 13.528437152911987 236375.9861911534 6.545135496508632 0.20248912935297866
0.4109865172159248 13.447810641460352 197835.1248938773 6.890320593047389 0.2054732320990778
0.4275958177666317 13.377008312255848 166067.05247415643 7.25036549398606 0.20848723033859867
0.4445915665038931 13.314882484322418 139775.7118806347 7.625526957868556 0.21152663500962207
0.4619753469642441 13.260546968611083 117964.23284970464 8.016758465567527 0.21459767677863562
0.479741623886868 13.213116494099907 99794.465148385 8.424763125466503 0.21770197053953216
0.497898558275576 13.171989227069979 84628.81007752137 8.849978928426705 0.22083694210861682
0.5164398963983772 13.136370283360844 71928.40224285879 9.293284988290937 0.2240060807984141
0.5353599258436371 13.105809754900044 61264.05355187401 9.755563630323877 0.22721226734649982
0.5546678134189711 13.079798625723361 52294.13243174232 10.237624648966364 0.23045685302009847
0.574352612952324 13.057813549869788 44720.668590268986 10.739934844194847 0.23373647798867192
0.5944112756252327 13.039498961338563 38322.1117459958 11.263747770205054 0.2370574406789213
0.6148496338260278 13.024480403971475 32894.20239689439 11.809997142793993 0.24042130353715876
0.6356564679553036 13.012414365786412 28286.051157206322 12.379662238557724 0.24382970000076767
0.6568279049033086 13.003002354683202 24365.453909191416 12.973426266568541 0.24728051417697008
0.6783614136334531 12.995968773220593 21023.126132750145 13.592627788441469 0.25077866204135413
0.700250365858678 12.991064324095333 18167.767338785838 14.238459280703415 0.25432671797432155
0.7224871418453126 12.98799798885344 15725.387232684545 14.912110785345646 0.25792666727340346
0.7450771206264472 12.986639141464003 13630.635242675251 15.614603252017742 0.2615783175545624
0.767998764916316 12.986767491044288 11833.463071713562 16.347220609117965 0.2652837396042522
0.791247114145006 12.988131922550028 10286.16109282977 17.111570932499983 0.26904753947742976
0.8148231056241485 12.990665079974933 8953.951055355403 17.909109734098415 0.27287215067090315
0.8387073391537754 12.994133443834155 7805.649933752003 18.74118818104454 0.2767585256767243
0.8628889478180105 12.998422288871316 6812.2769422695865 19.609179486783074 0.2807074004868466
0.8873718416048125 13.00337561871243 5953.661551039502 20.515156367611738 0.2847250121415626
0.9121245894907879 13.008877964762789 5209.3976159543545 21.460913563970713 0.28881437520577974
0.9371524648811721 13.014747250151526 4563.886784036677 22.447917065571733 0.29297526335124624
0.9624380916446365 13.020965450982716 4003.305560285046 23.478229259891688 0.2972117704017234
0.987960240037234 13.027352984716677 3515.438273741777 24.554255637326744 0.30152985437444907
1.013704539625894 13.03380225363474 3090.963728948606 25.67791679633057 0.30593098316755674
1.0396695769066557 13.040264452761505 2720.6083053711955 26.851218373211157 0.3104167427866823
1.065822927208564 13.046593275909663 2397.425920096729 28.077236958358597 0.3149957109024852
1.0921576311506995 13.052722203728305 2114.942475572631 29.35800101950431 0.319668147829268
1.1186575844051705 13.058549328878946 1867.7526745071464 30.696320656406648 0.32443910816535754
1.145289845187048 13.064007788102224 1651.553019345987 32.095540978596794 0.3293162772332275
1.1720551499393406 13.069016481035053 1461.5516988456639 33.557661432591544 0.33429772935626284
1.198913216130121 13.0734729652518 1294.996084963621 35.08719799288663 0.33939685007580894
1.2258603820720158 13.077340616766378 1148.6593073478002 36.68614051412471 0.34461019413234795
1.252857531427137 13.080500893985894 1019.8720515477636 38.35957488113681 0.3499524044823267
1.2799019319374765 13.082943554952182 906.4153428052408 40.10977838517118 0.3554202709016012
1.3069475183404617 13.084522308162427 806.516937412254 41.94215369619132 0.36102794933636084
1.333985249404383 13.085240776534325 718.3379993639554 43.86025670659778 0.36677777146975643
1.3609951262454565 13.085029213069124 640.3949729646686 45.868706908304894 0.3726771032595834
1.3879274387476277 13.083766682049372 571.5999086056851 47.97287402167296 0.3787360994077381
1.4147778313226738 13.08146326435429 510.63282571143293 50.17755700724972 0.38496062091047345
1.4415092682536848 13.078021199999224 456.73232904917234 52.4878986972681 0.3913572339299856
1.4681052524052112 13.07341720602718 408.86892753618514 54.91035623312154 0.39793783588412435
1.4945157645757743 13.067546131280967 366.39818654812694 57.451121749380796 0.40471149159758973
1.5207278294044855 13.060398634449266 328.7254877514157 60.11682569267861 0.4116879762946837
1.5467120188154238 13.051905345372536 295.1791328804605 62.91457628119092 0.4188778340970101
1.5724282942203374 13.042020925744907 265.3625378448331 65.8520027424347 0.42629244129792315
1.5978423385123954 13.030681680499985 238.82129023861205 68.93730271299368 0.4339440749728362
1.6229398668603432 13.017859335099546 215.15704356792565 72.17929423147493 0.4418459875529823
1.6476921335514794 13.003514831966775 194.02352242368733 75.58747281007582 0.4500124880660823
1.6720408121786525 12.987577182124989 175.1631633936118 79.17170768892511 0.45845750064559204
1.6959778231306906 12.970016598204154 158.3006122394064 82.94233815422598 0.46719490570902633
1.7194582171683768 12.95080010666163 143.22316756196167 86.91203718220457 0.47624596495588556
1.7424338252279366 12.929824578240876 129.73159684259406 91.09231390156529 0.4856247340915574
1.764922214022311 12.907197370801226 117.63466210896206 95.49741003589725 0.49535372598374056
1.7868483498129388 12.882758490276412 106.78555785717263 100.14085067378112 0.5054498838954089
1.8081849440216669 12.856491490314008 97.04566801722272 105.0392428024473 0.5159392131399303
1.8288984300957745 12.828358124724437 88.29514018966651 110.20913567172258 0.526844262882851
1.8489717945845112 12.798371785010165 80.43068267563339 115.6682630613066 0.5381887637324217
1.868347361568122 12.766426001348165 73.35878963001718 121.43666130884425 0.5500013879872792
1.8870222813329696 12.732600031074224 66.98019317612733 127.53577068933288 0.5623119864112475
1.9049451903357584 12.696773090622274 61.231665514979206 133.98818842229414 0.5751503943806028
1.922084698373947 12.658947347336897 56.05184017499009 140.81955987594577 0.5885527406130808
1.9383965808591102 12.619049268479015 51.36994002212913 148.05756921347714 0.6025572824646017
1.9538906945069159 12.577197254439795 47.14580676376858 155.7306326814011 0.6171994692964808
1.9685044050971383 12.533254086455809 43.323960511397146 163.87250643909127 0.632527244076611
1.9822163841035085 12.48724747495283 39.864225682035205 172.5170965453074 0.6485825740394353
1.9950019028001964 12.4391573683253 36.73032345101817 181.70349425391115 0.6654179132118296
2.006836348563317 12.388989464380728 33.89143116375877 191.47383611670185 0.6830880815819051
2.0176790014530215 12.336705231947978 31.314889844556447 201.8741831749702 0.7016523477673148
2.0275127454592803 12.282312497877102 28.97993843771283 212.95438459838292 0.7211729997189884
2.036318682790271 12.225832157739571 26.85942669901212 224.77021489249037 0.7417212458858817
2.044058329213318 12.167228294573652 24.93209901171169 237.3826124671204 0.7633734070487307
2.050714114763379 12.106509277849101 23.17810915567142 250.85861440495805 0.7862125534712286
2.0562838131458943 12.043750112846919 21.586348002184774 265.27153435039656 0.8103274456683736
2.0607258943000213 11.978890076654276 20.134598586364916 280.7026832775046 0.8358162679176285
2.064027250978701 11.911984525439554 18.814724854252145 297.24232495365766 0.8627876055957528
2.0661837787015354 11.843070537619267 17.612568677069625 314.9907631053986 0.8913615645939921
2.06717129387126 11.772169560489292 16.51822133449042 334.0573031247327 0.9216635091146548
