M[M_sun], R[km], Lambda[1], P_c[MeV/fm^3], rho_c[fm^-3]
0.24162668629717493 15.618656898711224 2160425.4255784233 3.5677272577965504 0.1711233750220791
0.2536446929558561 15.27729674013578 1723161.1725897496 3.7848426789283325 0.17388846064600846
0.2660422483870063 14.98122016173241 1382972.0301816373 4.011449990443383 0.17666724728803182
0.27881928333777095 14.723426868204779 1093838.5074465002 4.247804567505342 0.1794583997970999
0.2919744340671289 14.498354024958058 905841.8976614951 4.494531902473598 0.18226849001502557
0.30551169060635547 14.301158195939092 738615.3366605769 4.751788636540957 0.1850932444880807
0.3194294737269171 14.128051828901537 605029.7154327616 5.020255412943176 0.1879392458562198
0.3337286725240198 13.97586534772246 497610.6822732926 5.300158504214074 0.19080316042336132
0.3484123302244845 13.841929403181556 410944.44359372294 5.592224047416918 0.193691234477001
0.36347750093376296 13.723868589395009 340613.07524767437 5.896622477560016 0.19659858915915132
0.378931460221291 13.619921224465967 283251.5067239896 6.21421662760699 0.19953287875381379
0.3947661018135833 13.52837382886043 236364.28274598552 6.5452610328192975 0.20249023013683196
0.4109932081031593 13.447802545764699 197829.13609199363 6.890463926153161 0.20547445278395396
0.42760319926661405 13.376974251774147 166042.7378623286 7.250527969161197 0.20848857445408375
0.4446011478657731 13.314840164925675 139762.54167763307 7.625708126186148 0.21152807722592096
0.46198220339537066 13.260488841494979 117949.71395984272 8.016961487414129 0.2145992473167552
0.479751338231145 13.213092329577147 99794.36475448373 8.424989584278931 0.217703673193218
0.4979103835916815 13.171948496036858 84623.66952720888 8.850227989329465 0.22083874541596835
0.516451820362208 13.136336860952062 71921.06459110115 9.293560682361973 0.2240080217018617
0.53537214345635 13.105796402843344 61258.36623394841 9.755867827203724 0.22721435003936005
0.5546805359010052 13.079767378630777 52289.70903826201 10.237956788921272 0.23045904918003554
0.574366122214157 13.05780439721913 44715.45637807148 10.740298559079974 0.23373881315089923
0.5944269837254204 13.039484134195902 37983.34356586325 11.264145987480214 0.23705992874766274
0.6148666155666088 13.02448231693654 32891.175080806686 11.810432215402654 0.24042394950452206
0.6356728823846254 13.012408509993941 28282.06888091896 12.380136666257375 0.24383250912238125
0.6568458567239982 13.00299513316414 24362.09957050035 12.973937870681459 0.24728343829628638
0.6783803443099978 12.995967666512891 21020.138705603476 13.59318383486885 0.250781757958888
0.7002713593354382 12.991058598623297 18165.543639789594 14.239062751479235 0.2543299918327328
0.7225084131189409 12.98800324389157 15724.017342899715 14.912764854130264 0.2579301255816209
0.7450991682842115 12.986649097806191 13628.718508670734 15.615304913847172 0.2615819039844038
0.7680227893034614 12.986758427371559 11831.451590369365 16.347979367367838 0.2652875218238247
0.7912706543726219 12.988146316457291 10285.924630557802 17.112390596009813 0.2690515252235167
0.8148473241727735 12.990683952285446 8952.58225990807 17.909994364261877 0.2728763481777747
0.838734113823033 12.994145389189693 7804.341821422192 18.742133853873543 0.27676287055406934
0.8629160809335479 12.9984245676353 6811.107962358428 19.610198500265973 0.2807119721576862
0.8874021460921189 13.003378084461366 5952.653490173808 20.516253627273265 0.28472982050353224
0.9121608856810178 13.008869150400228 5208.892811994668 21.46209431129804 0.28881943082390626
0.9371838027836048 13.014764753578197 4563.162700937256 22.449176381510455 0.2929804938327099
0.9624714429605947 13.020969910600414 4002.7348107782395 23.47958295062098 0.2972172681419957
0.9879946549163283 13.027356233285422 3514.8767066568475 24.555710075917617 0.3015356321685162
1.0137383946084215 13.033817904236724 3090.7049145026585 25.679466352195192 0.3059369632020659
1.039706336167112 13.040272461164415 2720.1123797602418 26.852881993325067 0.31042302764390534
1.0658606648581996 13.046596900763394 2397.02585853594 28.079022431774437 0.3150023161450337
1.0921961542713159 13.052727375260623 2114.5828819745993 29.359902017363126 0.31967499025434115
1.1186972279847336 13.058560064431308 1867.4377793691922 30.698359878878925 0.3244463016547668
1.145330458575037 13.064020158126725 1651.2375686143066 32.0977117691543 0.32932373585576885
1.1720971489334213 13.069026289990692 1461.3058569466293 33.55998925917931 0.3343055743718725
1.1989549415668088 13.073481275388191 1294.7568277560715 35.08969384479627 0.3394051031814471
1.2259041228890544 13.077351224726538 1148.429844017419 36.68879714748072 0.34461876402031644
1.2529032907253939 13.080510555522181 1019.6157451909137 38.362403079329916 0.3499613102073072
1.2799475498406672 13.082948139170218 906.2075122119792 40.11281030012731 0.3554296506335782
1.3070006715542335 13.084551573050229 806.3293170921356 41.94538207446837 0.3610377092129895
1.3340329229803074 13.085238976725199 718.1301098226968 43.86371775119365 0.3667880594842158
1.3610441569433407 13.085027839352858 640.2570743568441 45.87239336590996 0.37268782297753156
1.3879833339831118 13.083785218326526 571.4426801019104 47.97680164147508 0.3787472786815582
1.4148289475880163 13.081456811810089 510.56943955423355 50.181768866252334 0.3849724230035552
1.4415607725544195 13.07801389544344 456.60397826202933 52.492388108001926 0.3913695601698239
1.468156257160967 13.073410571157927 408.76283441424033 54.915143078473704 0.397950721210917
1.4945670034644813 13.067535448391066 366.31706066761666 57.45622752298874 0.40472497365294857
1.5207796048805082 13.060380861579343 328.65826468426235 60.12227364316592 0.4117020956435164
1.5467639227270595 13.051887042592613 295.11375075210486 62.92039157079802 0.4188926344713962
1.5724818834085403 13.041998256016484 265.30605584412797 65.85821262164588 0.4263079698653405
1.5978954211472713 13.030654798193186 238.76866175393104 68.94393671296045 0.4339603826313788
1.6230049494965282 13.017840619112995 215.09629465474188 72.18638437625457 0.4418631292565211
1.6477461170559509 13.003480642143517 193.9716633694723 75.5950538509538 0.4500305231826731
1.6720942453790746 12.987536989519295 175.12806156694637 79.17977776727959 0.45847632804606536
1.6960310730111878 12.969976387324074 158.2652525125776 82.95097602569068 0.46721475551249464
1.7195106782937442 12.95075458390826 143.19039395188625 86.92128732323081 0.47626691197415405
1.7424924074897774 12.929806311245363 129.6993961003814 91.10218016204357 0.4856466828894816
1.7649737577772875 12.90714265962937 117.60131807785741 95.50798748562495 0.4953769352702729
1.7868828541570059 12.882667260478634 106.75521548469091 100.15214852360555 0.5054742641651867
1.8082357149898292 12.85642620364601 97.02460421581044 105.05131965148745 0.515964858354181
1.8289400807850944 12.828271423885028 88.27500262436953 110.22205543825172 0.5268712746779052
1.849021302191216 12.798295047606658 80.41613447742351 115.68214832461697 0.538217445894985
1.8683924534815604 12.76634451054992 73.33650214855221 121.45153733698643 0.5500316701291205
1.8870686733876876 12.732512251077452 66.9645305226645 127.55166444962329 0.5623437965141
1.904989715351666 12.696679743353062 61.21744933794814 134.00524582771675 0.5751840709951843
1.9221283050547195 12.658846398323227 56.03908489402874 140.83788097479734 0.5885884370808054
1.9384385398320922 12.61893983919836 51.36247668173977 148.0772637512465 0.6025951658878654
1.9539307804149368 12.57708101748256 47.13486293736485 155.75175630611528 0.6172395006798189
1.9685427485835498 12.533137393447655 43.314223803982244 163.89518719307856 0.6325696119135494
1.9822526358477521 12.487119217296435 39.854569472848425 172.54154332521983 0.648627712345588
1.9950360402947205 12.43902099873212 36.72278852773449 181.7297957019738 0.665465821664166
2.006868516987663 12.388843802517624 33.88321369426861 191.50216307915466 0.6831390053020374
2.0177086454869997 12.336553217386314 31.30912161242521 201.9047241182103 0.7017065549289503
2.027540573937011 12.282155527128166 28.973460424697684 212.98727060525866 0.7212305318205102
2.036342786561149 12.225664999971784 26.853440514661774 224.8057504484616 0.7417826699403597
2.0440800767671115 12.1670535075407 24.926804478550178 237.420970737266 0.7634388114229796
2.050733009147431 12.106325549393095 23.173628955682666 250.90007260098935 0.7862823118241169
2.0562984833923963 12.043558700390864 21.581292371732456 265.3164000087101 0.8104019686005575
2.0607380291785375 11.97869225304577 20.131104097089715 280.751298082328 0.8358960075125356
2.0640349778745635 11.911772997449647 18.810781770465223 297.29506909585274 0.8628730605568632
2.066184650174675 11.842848566384545 17.609611155769205 315.0480602603802 0.8914532860696346
2.067172216155334 11.771943419342877 16.51420778223893 334.11953130966714 0.9217617935620064
