M[M_sun], R[km], Lambda[1], P_c[MeV/fm^3], rho_c[fm^-3]
0.24162668629717493 15.618656898711224 2160425.4255784233 3.5677272577965504 0.1711233750220791
0.25364541612584807 15.277262477243365 1723088.132119906 3.7848440164434662 0.17388847731748935
0.2660423498144843 14.98123385565564 1382922.6650883816 4.0114528021952705 0.176667281266394
0.2788195251105917 14.723457650561116 1116344.7323300992 4.247808948648895 0.17945845061176288
0.29197495631554354 14.498356582306604 905810.1103916669 4.494537968003316 0.18226855755610671
0.30551217719035684 14.301126920521016 738568.9315308027 4.751796592444262 0.18509333042702047
0.31943004054854934 14.128044820053518 605028.9486473022 5.020265317856593 0.18793934862351944
0.3337320448098636 13.975773523290293 497633.34127328126 5.300170618947259 0.19080328239862251
0.34841305357628566 13.841925653206202 410945.07188059663 5.59223840224953 0.1936913733639554
0.36347831505425404 13.723868287123516 340623.50214442675 5.896639395041031 0.19659874805171315
0.37893348529973103 13.61989844984013 283251.70148991246 6.214236312507868 0.19953305825640763
0.39476758659723954 13.528346605425284 236366.6818233355 6.5452834647340925 0.20249042683442067
0.4109944418805155 13.447775206700438 197823.73250477272 6.890489538190855 0.20547467090681465
0.42760466611563314 13.376969793509414 166049.68724560284 7.250557001716797 0.20848881463297583
0.4446017471458303 13.314843916266412 139767.4714716869 7.625740499046185 0.21152833493470252
0.46198239811241115 13.260500445514127 117949.31054041839 8.016997765320294 0.21459952795568882
0.47975300594501286 13.213082585522647 99792.25054155682 8.425030050186347 0.21770397744027148
0.4979128670937493 13.171912889422815 84619.9414989675 8.850272494058304 0.22083906764922054
0.5164534940903791 13.136344436559193 71919.55132108903 9.293609946244775 0.2240083685226679
0.5353745128944926 13.105788766937032 61256.72001639307 9.75592218434084 0.22721472219709363
0.5546840684207831 13.079768572089277 52288.21399473297 10.238016012092011 0.23045943997813795
0.5743686637808124 13.057815090471259 44714.40185466645 10.74036355169672 0.23373923042363093
0.5944293216927151 13.039482602153184 38316.27799780548 11.264217145465885 0.23706037334404492
0.6148692863528653 13.024468528233227 32889.71198092492 11.8105099592254 0.24042442231667704
0.6356761284712483 13.012404978844648 28281.893085680258 12.380221442621666 0.24383301108952488
0.6568491824445027 13.002993976313178 24361.295335800387 12.974029290274167 0.24728396081318996
0.6783834832648404 12.99596229616299 21019.665597654814 13.593283196086979 0.2507823111755301
0.700275260124146 12.991044109468763 18165.328410841776 14.239170587211968 0.2543305768468458
0.7225126448824046 12.988004028194837 15723.103910866623 14.912881731511403 0.2579307435563922
0.7451034920864392 12.986652139791733 13628.4408580252 15.615430295905696 0.26158254485431776
0.7680270083187202 12.98675834744362 11831.169914660464 16.348114952344105 0.26528819768092554
0.7912752144634725 12.988145467062568 10285.835925998892 17.112537064547382 0.2690522374504165
0.8148519594011535 12.990679605541244 8952.21057966819 17.910152442137306 0.2728770982459905
0.8387389411279832 12.994147729831 7804.238083643381 18.742302839883124 0.2767636469573477
0.8629212181129491 12.998424897889487 6810.829214711627 19.610380592060473 0.2807127890887288
0.8874060563306627 13.003373545275057 5952.41178445264 20.5164497014808 0.28473067973111144
0.9121663928897753 13.008871584599994 5177.87031110476 21.462305304585442 0.288820334236062
0.9371894693923246 13.014759257271685 4562.886185411307 22.4494014148497 0.29298142849308656
0.9624773215547219 13.020966155425059 4002.626898304473 23.4798248485991 0.2972182505615598
0.9879999421920124 13.027361159494067 3514.7729147725117 24.555969977424038 0.3015366646338202
1.0137458478027106 13.033818970170797 3090.621505356431 25.67974325104426 0.3059380318080522
1.0397128200175998 13.040275382588984 2720.0486572823643 26.853179275389238 0.3104241507220123
1.065868215956684 13.046600652452026 2397.0031774473937 28.079341488991147 0.315003496476415
1.092203535354942 13.05272859681053 2114.6795795383 29.360241718757205 0.3196762129707821
1.1187041866009275 13.058558877172773 1867.3788934279978 30.698724281053714 0.32444758710705107
1.1453377579400261 13.064014252856396 1651.0045042663978 32.09809968257384 0.32932506868807043
1.1721049916418789 13.069028524971854 1461.24516857504 33.560405235077454 0.3343069762535382
1.1989638869767696 13.07348067468736 1294.6815527317635 35.090139847025114 0.3394065779899064
1.2259131272518047 13.077349957939587 1148.3981520803088 36.68927188153452 0.3446202954388867
1.2529112226925876 13.080509779383616 1019.598958517539 38.36290847225914 0.34996290164119104
1.2799555294892526 13.082942783266725 906.1862679900787 40.113352097672944 0.3554313267741815
1.3070093271671235 13.084545178307287 806.2911341867982 41.94595898040533 0.3610394532870378
1.334041787751479 13.085240122081803 718.1398299743194 43.864336235243044 0.36678989793866695
1.3610516812405042 13.085028276551096 640.2341016327753 45.873052131863936 0.3726897385794391
1.3879923293543637 13.083783815229527 571.4243269021637 47.97750350382815 0.37874927640838113
1.414837254570573 13.08145527840131 510.519943773629 50.18252152321011 0.38497453203129545
1.4415695440827234 13.078009719872544 456.5974479007969 52.49319036446643 0.3913717628654959
1.4681649892744573 13.07340653914927 408.75652303463613 54.915998487685265 0.39795302381867254
1.494576430030914 13.067531893591918 366.299514574195 57.45713992605095 0.4047273828997227
1.5207889833618087 13.060378555034298 328.6431194203784 60.12324719482348 0.41170461877868286
1.5467733054576864 13.051883083286906 295.1004628215991 62.92143076778728 0.4188952793103537
1.5724910680837225 13.04199402508483 265.2956649456712 65.859322333904 0.42631074483744996
1.5979040386652255 13.03065100341515 238.75575056051207 68.94512221801622 0.43396329683272744
1.6230133642612374 13.017836609431516 215.0890139095455 72.1876513971594 0.44186619250803477
1.6477545661134783 13.003477204750777 193.9609021033465 75.59640859816076 0.45003374609417324
1.6721026369673855 12.987533195861609 175.1236266706433 79.18121990858678 0.4584796925452359
1.6960402884338488 12.969969427211003 158.25643606689633 82.95251963570992 0.46721830272382314
1.7195201045513342 12.950746370471494 143.1845624058941 86.92294035047502 0.4762706552675573
1.742501135783785 12.92979775328698 129.68966253682362 91.10394329448249 0.48565060521017245
1.7649827833452114 12.907133339077385 117.59719586528433 95.50987771355649 0.49538108285242205
1.786893592712403 12.882655943595532 106.75562277773821 100.15416749307276 0.5054786210137064
1.8082440013707903 12.856413862135309 97.01987546301616 105.05347783496374 0.5159694412613167
1.8289479774309052 12.828261334921768 88.26912723938244 110.22436425885097 0.526876101807614
1.8490296523028635 12.798281534611611 80.41290463260967 115.6846296892238 0.5382225715380096
1.8684011655845432 12.766329641743765 73.33503154235518 121.45419576132171 0.5500370817068633
1.8870768321188751 12.73249668481561 66.96010835850379 127.55450475302932 0.5623494811564897
1.9049980328734042 12.696661600741534 61.215133754601304 134.0082940873499 0.5751900892061764
1.9221363374331708 12.658828097787724 56.036236006362564 140.84115507100958 0.5885948162653027
1.9384449504886103 12.618922023879875 51.35564883613947 148.08078329751174 0.6026019359102149
1.9539380202072625 12.577060919115747 47.13199221691891 155.7555312475718 0.617246654571756
1.9685472444295384 12.533114009727917 43.3112121079266 163.89924041322837 0.6325771833624739
1.9822598178945285 12.487095985952662 39.852737754887535 172.54591215810976 0.648635778917841
1.9950416981565624 12.438994830241441 36.72177304686743 181.7344959895414 0.6654743833031435
2.006873913650577 12.388818204873319 33.8807555313329 191.5072253550855 0.6831481058161911
2.0177139376021107 12.336525965028088 31.30653244390924 201.91018206539928 0.7017162422468286
2.027545075601806 12.282126564736727 28.973403580007155 212.99314765072518 0.7212408133599415
2.036347086154335 12.225635605537466 26.852568697475053 224.81210101076917 0.7417936470384937
2.044084197222073 12.167021444604437 24.92712781223492 237.42782576465024 0.7634504998743833
2.050736194049704 12.106292824401129 23.17330572529889 250.9074816376315 0.7862947784107541
2.0563011146667094 12.043524512184867 21.580278946424478 265.32441801875706 0.8104152867071325
2.060739778400752 11.978653614351078 20.129591231451524 280.7599861332366 0.8359102579381519
2.0640358563608086 11.91173531788516 18.809348938178726 297.3044951374813 0.86288833243327
2.0661857039600444 11.842809694999614 17.60911425321842 315.0583000147447 0.8914696779023674
2.0671727855656306 11.77190278261389 16.513861583064532 334.13065233820555 0.9217793583382413
