M[M_sun], R[km], Lambda[1], P_c[MeV/fm^3], rho_c[fm^-3]
0.24162668629717493 15.618656898711224 2160425.4255784233 3.5677272577965504 0.1711233750220791
0.25364170330575064 15.277363673063832 1723182.2995210944 3.784798090690824 0.173887904875138
0.2660365914402665 14.981334568613722 1382812.3385526764 4.011356256938022 0.17666611457393727
0.2788114480209375 14.723580534384093 1094047.5564906916 4.247658517446731 0.17945670583651277
0.29196409912537036 14.49851296787331 905959.4218374144 4.49432970325769 0.18226623847982845
0.3054972615649451 14.301327560719038 738710.9105980039 4.751523422410034 0.18509037966929795
0.3194125197812717 14.12823033061818 605174.6350625895 5.019925230122384 0.1879358200820152
0.33370884213208435 13.976110678338157 497751.06071707065 5.299754659721113 0.1907990943794164
0.34838844859067175 13.842131809828912 411071.959161855 5.591745532809062 0.19368660471653515
0.36344911870787583 13.724093787530068 340715.0145262286 5.896058542148859 0.19659329255842828
0.3789011978518766 13.620084427352193 283354.8945028663 6.213560446795597 0.19952689517490702
0.39473073025925887 13.528554147978081 236447.0355813114 6.544513287748988 0.20248367342271945
0.41095353218854436 13.447988561982234 197913.5136912379 6.889610181422571 0.2054671819355682
0.42755963376197703 13.37716108277344 166120.02110708586 7.249560213139953 0.20848056845653462
0.4445519960819545 13.315008136329187 139838.078366716 7.624629033519602 0.21151948695444092
0.4619313857878995 13.260670353205098 118013.39556371995 8.015752235869968 0.21458989277842325
0.4796933008538709 13.213242747159457 99848.3693978812 8.42364074407639 0.21769353180053894
0.4978475955303101 13.1720546784205 84666.82293134442 8.848744533741886 0.22082800456368246
0.5163830797768535 13.1364678738857 71960.32982149145 9.291918604103284 0.2239964613685489
0.5352991389313875 13.105902491229958 61295.97744829324 9.754055992301225 0.22720194525855744
0.5546023586994195 13.079861570092593 52315.59968964489 10.235965929841596 0.23044580659779595
0.5742807437748555 13.057925209697526 44344.21612781572 10.7381322510997 0.23372490478262764
0.5943364193513003 13.03956232280037 38341.71062696781 11.26177419497452 0.2370451097451665
0.6147708051313021 13.024546874221427 32914.045453611856 11.807840926634814 0.24040819014534373
0.6355686071639106 13.012452867571183 28304.241709607482 12.377310995320503 0.24381577811509086
0.6567377117202248 13.00305375298291 24380.728039929225 12.97089079352466 0.24726602245277093
0.6782665219263032 12.99599359163505 21036.162184863777 13.589872081652278 0.2507633190042499
0.7001516288130293 12.99107774780507 18180.36775103864 14.235468564709837 0.2543104931940945
0.7223816906015937 12.988010883186465 15735.117490230288 14.908869335345372 0.25790952850537824
0.744966123930779 12.986656256338806 13640.010059551081 15.611125959293208 0.261560543940734
0.7678812262830721 12.986760746285793 11840.603773031873 16.343460384397304 0.26526499582711666
0.7911249373601058 12.98812595258657 10293.776123389522 17.107508904245186 0.26902778720954484
0.8146956545985613 12.990646743599035 8960.439231901828 17.90472577962221 0.27285134912038134
0.8385743743849702 12.994110065302694 7810.668764792169 18.736501744796545 0.276736993926992
0.8627521279447538 12.998385191822067 6775.794931880108 19.604129634544186 0.28068474498462587
0.8872227972541485 13.003326244176268 5958.705144020669 20.509718794924332 0.2847011838549374
0.911980354230609 13.008818886841993 5213.872377975884 21.45506230208077 0.2887893217968163
0.9369968406862274 13.014708239610153 4567.6418952750455 22.441676488459915 0.29294934354676955
0.9622719966275951 13.020908714002912 4006.7944265858346 23.47152105405481 0.2971845263846177
0.9877926989383532 13.027304440881919 3518.3297353284893 24.54704822841541 0.301501222760362
1.0135326106418112 13.033758951805149 3093.788126638 25.670238082913787 0.3059013495336446
1.0394907168302596 13.040217458294254 2722.9890951211983 26.842974483244202 0.31038559885486067
1.0656412394528476 13.046556748079214 2399.499976904727 28.06838930325379 0.31496297957899716
1.0919681914604844 13.05267186488605 2116.9474022685195 29.348580956458456 0.31963424138625113
1.1184617173105176 13.058511565422396 1869.6700055982992 30.686215721876717 0.3244034623540198
1.1450887409237147 13.06396406801435 1653.0290192039072 32.08478415244072 0.32927931783805997
1.171847399533507 13.068985601992399 1463.0075643729078 33.54612654156389 0.3342588555842026
1.1987005445931393 13.073447383875918 1296.206259850945 35.07483059626286 0.33935595444798294
1.225643457927683 13.0773160178581 1149.7333627295893 36.67297650044 0.3445677290619466
1.2526357141188826 13.08047705376542 1020.8112154611102 38.34550755117356 0.34990796302365346
1.2796748794403365 13.08292636640151 907.3106830041065 40.09475501439285 0.355373793611397
1.306716059247678 13.084512351742173 807.2611778084676 41.926156941448326 0.36097958872327507
1.3337499696567474 13.085224999952906 718.9989221783829 43.8431072230958 0.36672679433572875
1.3607546435452325 13.08503903667692 641.0469129457847 45.85044062904761 0.3726239874007897
1.387684173499702 13.083784388258579 572.1856957204084 47.95341292839311 0.37868070685408606
1.414537856795414 13.081501453255395 511.1545634778867 50.1566877097363 0.38490214283899676
1.4412589152991522 13.078058925222457 457.1601923497891 52.465654324054455 0.3912961592153874
1.4678525173723584 13.07346484193143 409.2809806084916 54.88663829177122 0.397873991451588
1.4942594543282175 13.067609710039246 366.7798037346272 57.42582376959668 0.4046446909929983
1.5204697518494164 13.06047379595247 329.0681262593578 60.08983251203874 0.4116180185859186
1.5464521087892853 13.051997581211031 295.5001958529788 62.885763259614606 0.4188045026663616
1.5721665205514854 13.042128526324477 265.64825295988464 65.82123489744475 0.42621550251393653
1.5975897798247787 13.030813457499516 239.08989055727957 68.90443376687001 0.4338632767285303
1.622670763067323 13.017976685547191 215.38535779945735 72.14416556030578 0.44176105765583507
1.6474286765224067 13.003678147704782 194.23474647691853 75.54991228346854 0.44992313246340476
1.6717781350382355 12.987758731609844 175.35244202050356 79.13172450672371 0.4583642203389535
1.6957158286640204 12.970224531944984 158.47318916078325 82.89954223409315 0.46709656080920303
1.7191786492828371 12.950986329415999 143.39025248599256 86.86620823158364 0.47614218493100186
1.7421843800893024 12.930107278033573 129.87427087331554 91.04343284414284 0.48551599173126286
1.7646650878240062 12.907471239921101 117.76255527934087 95.44500600401426 0.49523873983653754
1.786594603601494 12.883052488313227 106.89985737375589 100.08487803840802 0.5053290973765778
1.8079346772979317 12.856813760067721 97.15505587401898 104.97941132938962 0.5158121608814806
1.8286479543633947 12.828697890093347 88.39477120718017 110.14506809254237 0.5267102156160554
1.8487303254314411 12.7987514932001 80.52141514522805 115.59947368119785 0.5380466686105072
1.8681203706844454 12.766867160261535 73.43576717018843 121.36296428028973 0.5498513678440902
1.8867949093273808 12.733036897765844 67.05798884153513 127.4568356774388 0.5621536950412407
1.9047217769786673 12.697241142267153 61.30150413248077 133.90368631908805 0.5749835609912037
1.921868913557291 12.659450381229062 56.11558864261697 140.72879844527424 0.5883759028313049
1.9381875448086354 12.619581037803973 51.42949296572571 147.96000496052193 0.6023696127699181
1.9536910865272332 12.57777179151212 47.20040692890548 155.6259899975367 0.6170011609356775
1.968313644424848 12.533861657064623 43.37031441675153 163.7600989709863 0.632317186736547
1.9820387595913667 12.487890739117397 39.90806683823989 172.39599434845033 0.6483589720739791
1.9948334306097115 12.43983701231603 36.77163322486439 181.5732060878545 0.6651805915108097
2.0066727482216886 12.38969091214257 33.9288869175182 191.33351595483623 0.6828358263440321
2.017534150999444 12.337457092750729 31.35110381306325 201.7228977542822 0.7013838310686697
2.0273790687294784 12.283101957409386 29.01203718761833 212.79148477971128 0.720888016232209
2.0361985682407884 12.22666111448762 26.888343800797365 224.59419298861133 0.7414169878345397
2.043953766062814 12.16809611672458 24.95966373781104 237.19261098624452 0.7630494370700039
2.05062374926847 12.107420453228972 23.20342733003767 250.65307776711524 0.7858664256220496
2.0562021587410735 12.044681803326295 21.607387793206268 265.0488833265335 0.8099569420420597
2.0606683639359438 11.9798839448554 20.156657316043823 280.46188788109845 0.8354213074228848
2.063990204861339 11.913031358701609 18.833806932578952 296.98108039592637 0.8623643426021371
2.066157874443291 11.844148662366596 17.629809868468488 314.7069717239604 0.8909072704097782
2.067163522290155 11.773289062495985 16.533654513257762 333.74909328255336 0.921176716288561
