M[M_sun], R[km], Lambda[1], P_c[MeV/fm^3], rho_c[fm^-3]
0.24162668629717493 15.618656898711224 2160425.4255784233 3.5677272577965504 0.1711233750220791
0.2536447165670051 15.277252665847502 1723133.558525823 3.7848337463341686 0.17388834930553143
0.2660406879705424 14.981259614347291 1383008.6231113651 4.011431212195895 0.1766670203639931
0.27881675216532487 14.723526126857692 1116444.8466537818 4.247775308150961 0.179458060432682
0.29197248116461116 14.498375853447133 905836.2265551902 4.494491394063047 0.18226803894447258
0.305509147732937 14.301185014396562 738652.2531749487 4.751735503439577 0.18509267054917974
0.3194262581112858 14.128074321758946 605032.3766504454 5.020189263590376 0.18793855953115318
0.3337263060839812 13.97587190232289 497635.76528804796 5.300077596861246 0.19080234582056793
0.34840751811271903 13.841972654937704 410972.6893109928 5.592128179885266 0.19369030693226003
0.36347163549030287 13.723919789821691 340631.5255519576 5.8965094957961615 0.19659752801051572
0.37892592392432184 13.619945441839654 283259.15635255823 6.2140851641251516 0.19953167996515175
0.39475925936728024 13.528402711670193 236392.65244314942 6.545111223939942 0.2024889165153419
0.4109852654043094 13.447819493275615 197835.68641623767 6.8902928794919704 0.2054729960788103
0.4275936879991655 13.377018353425632 166063.12868488132 7.250334079344533 0.2084869704533202
0.4445912060081506 13.314882627075184 139788.94805006904 7.625491928946485 0.21152635615687887
0.4619735526022534 13.260529848531121 117962.48468089575 8.016719211319112 0.21459737311528843
0.4797397198369981 13.213128067629125 99806.25054153558 8.424719339746844 0.21770164133213166
0.4978976193574451 13.171955060582228 84631.18948054757 8.849930772663066 0.2208365934403127
0.5164376342559117 13.136372605060458 71928.90768823442 9.293231683097314 0.22400570552652782
0.5353577420711264 13.105813034000048 61265.944982637084 9.75550481422197 0.227211864660333
0.5546643452646588 13.079790200185968 52291.09326324311 10.237559938510408 0.23045642207370545
0.5743499710028799 13.057827486384033 44721.825012053065 10.739864520542888 0.23373602648904282
0.5944091699446125 13.039497456241289 38322.32842234778 11.26367077568285 0.23705695961575324
0.614846630612117 13.024483782550842 32896.0411061533 11.809913022483736 0.24042079194532076
0.6356523047101715 13.012440096678597 28286.932265486663 12.379570509157462 0.24382915686418213
0.6568246121826913 13.00301089172373 24366.21741971622 12.973327349318895 0.24727994880653403
0.6783576730763066 12.995968937136599 21023.424244422087 13.592520278542166 0.25077806345503845
0.7002476187517478 12.991057745126774 18169.858987949254 14.238342601612057 0.25432608498455644
0.7224820933658365 12.98800797687982 15725.742669375026 14.91198432347212 0.257925998621808
0.745072805124834 12.986639187382407 13631.007524045188 15.614467588354893 0.2615776241319072
0.7679951811155585 12.986753013461307 11833.536021714199 16.34707390628285 0.2652830083274135
0.7912415027582077 12.988139610492633 10286.456744326682 17.11141245410141 0.26904676885064277
0.8148185381798645 12.99065853691407 8954.246995500882 17.90893869491841 0.27287133910222394
0.8387010789610156 12.994143273224187 7805.720436067005 18.741005339755482 0.27675768561560576
0.8628834953130082 12.998421715041141 6812.456696363271 19.608982465709975 0.2807065165775463
0.8873675969926329 13.003358019424217 5953.986922549887 20.51494421833934 0.2847240824705567
0.9121240326791471 13.008855277570808 5209.880011074379 21.46068527313192 0.28881339773051806
0.937146252169837 13.014752040448673 4564.1411486704865 22.447673584216936 0.2929742520683157
0.9624317324980931 13.020962338883193 4003.523982425585 23.477967532102106 0.297210707447403
0.9879531285475365 13.027343839660693 3515.4190927368854 24.553974430965816 0.30152873727507207
1.0136977620944985 13.03379965611177 3090.944815215439 25.677617200008257 0.3059298269676499
1.0396623377032455 13.040259824831512 2720.7099804071013 26.85089672379925 0.31041552765312336
1.0658164841808573 13.046593990895238 2397.4498645949757 28.076891749969796 0.3149944338265469
1.092150340436618 13.052713765448615 2115.06267867918 29.357633475742272 0.31966682489739773
1.1186491843217412 13.058551813367288 1867.817007493279 30.695926388544002 0.32443771735992416
1.1452829370073405 13.064011028352509 1651.6222917127702 32.095121273581384 0.3293148351681338
1.1720472574351055 13.06901602181053 1461.6179771353557 33.557211366610424 0.3342962125875027
1.1989054653530347 13.073473874913462 1295.04217032487 35.08671544135788 0.33939525440872337
1.225851973649378 13.077345367860696 1148.6857710590427 36.68562687754122 0.3446085372202388
1.2528494382482775 13.080501847444106 1019.8306294380315 38.359028074717564 0.34995068264133294
1.279892588245143 13.082937731499932 906.4160517747589 40.10919219291948 0.35541845741860867
1.3069370320585907 13.084522620756664 806.5457694548178 41.94152952043878 0.3610260623584987
1.333975903446903 13.085236737598752 718.3600121879587 43.85958754817799 0.3667757823848695
1.3609851502587902 13.085031385893611 640.4087548429616 45.86799416951681 0.3726750307120059
1.387918444818392 13.083766656709978 571.6146537720623 47.97211465771679 0.3787339380127908
1.414768064027538 13.081462322099659 510.6432029806944 50.176742690058276 0.38495833910396343
1.4414995862683166 13.078023741389064 456.7357672075967 52.48703071973487 0.39135485078888244
1.4680953661166585 13.073419083137017 408.8857565364762 54.90943075130255 0.3979353446535119
1.4945059397282188 13.067549193863627 366.41142845058243 57.45013460793614 0.4047088850003087
1.5207176280184294 13.060400108669308 328.741854792468 60.115772396989 0.4116852464884382
1.5467018909934105 13.051910966805163 295.19092189557125 62.91345196669234 0.4188749726272243
1.5724181172921787 13.042026165125474 265.374347531125 65.85080214086031 0.42628943904588973
1.5978314172356447 13.030686337173412 238.83564677774416 68.93602011517463 0.4339409220986448
1.622929999132505 13.017862701916984 215.16363856931335 72.17792344631243 0.4418426734326644
1.6476826071076964 13.003521538366092 194.02984516481717 75.58600711924285 0.45000900122232507
1.672031714050778 12.987581980978103 175.17237472717665 79.17014745169251 0.45845386062997867
1.6959677894694993 12.97002470513899 158.30964915189557 82.94066814516655 0.46719106803307164
1.7194480437210742 12.95080888214334 143.22933522349797 86.91024880293166 0.47624191515673175
1.7424240672772906 12.92983117519754 129.72881548054931 91.09040640774003 0.4856204906199194
1.7649120423369191 12.907206931120966 117.63660494442253 95.4953650483139 0.49534923882435916
1.7868389584953848 12.882767259716367 106.78941669757235 100.13866641169855 0.5054451703525963
1.8081756368412596 12.856502612149155 97.05123608919438 105.03690793728475 0.5159342550488636
1.828884123221952 12.828360850243932 88.29764580786953 110.20663784661977 0.5268390405950019
1.8489628281148227 12.798386446388603 80.4344297638974 115.66557857911212 0.5381832185185516
1.8683380631291988 12.766441557805454 73.35956344434176 121.43378528462102 0.549995533455906
1.8870139600265756 12.732616585536151 66.98246562497503 127.53269790956871 0.5623058364858329
1.904936807659007 12.696791451653764 61.23457855490774 133.98489067912834 0.5751438836116533
1.9220754095851245 12.658967583580523 56.05408339018453 140.81601782807098 0.588545839356848
1.9383884703000707 12.619070166809713 51.37391498601364 148.05376164500055 0.6025499584171986
1.9538823760552344 12.57722015545701 47.147487967451916 155.72654883432895 0.6171917299974803
1.9684965353194603 12.533278856553336 43.32647347910458 163.86812156046577 0.6325190530868977
1.9822088106690383 12.487272685830673 39.864593723177464 172.512370251969 0.6485738474555482
1.9949950753183905 12.439184996292454 36.731974421904845 181.69840940962143 0.6654086510974505
2.006829851368735 12.389016843954815 33.8916185236956 191.46835969408846 0.6830782365512932
2.01767399983063 12.336733797387366 31.317092566322184 201.8682787405385 0.7016418679786229
2.027507543458605 12.28234199810816 28.9807979554988 212.9480268115186 0.7211618771512436
2.036313561651629 12.225864203904912 26.859445551123553 224.76334489209435 0.7417093709266458
2.0440546615309287 12.167261589799697 24.933493531702837 237.37519677768904 0.7633607626170333
2.0507115042720994 12.106544642622849 23.180023688843253 250.85059943784296 0.7861990673343987
2.056280885279453 12.04378775868205 21.586573972108845 265.26284453232154 0.8103129859193751
2.06072359680341 11.978928950151506 20.13552390969922 280.6932848024915 0.8358008522311311
2.0640253476793466 11.912024889977761 18.815555095332115 297.2321282041041 0.8627710850344111
2.066181713438853 11.843113332212116 17.613285768171263 314.9796861807997 0.8913438326163726
2.0671729316506164 11.7722110672459 16.52018285937878 334.04527295049695 0.921644508415413
