M[M_sun], R[km], Lambda[1], P_c[MeV/fm^3], rho_c[fm^-3]
0.24162668629717493 15.618656898711224 2160425.4255784233 3.5677272577965504 0.1711233750220791
0.25364433408702425 15.277286619561819 1723259.428576085 3.7848260973640953 0.17388825396480945
0.2660406724821163 14.98124155793495 1383118.5763508596 4.011415132454238 0.17666682604980477
0.27881596555704813 14.723478040650173 1116389.490173341 4.247750253552677 0.17945776983709838
0.29197167997890683 14.498386498949136 905884.733810664 4.494456707071306 0.18226765269676912
0.3055063701090573 14.301208472610872 738607.064019678 4.751690006172324 0.18509217909186057
0.31942343222131625 14.128126785522555 605084.5808157489 5.020132620814749 0.18793797184049393
0.3337228914036928 13.975924738713099 497676.7147898101 5.300008317214727 0.1908016482894832
0.34840340569555633 13.842007357970745 410994.29466394894 5.592046090303027 0.1936895126929698
0.3634674168305131 13.72394406988745 340618.1842270759 5.896412751888979 0.19659661937126627
0.37891943420315205 13.61999547453783 283305.7072576034 6.213972595027545 0.1995306534705236
0.39475164194577333 13.528459741149984 236393.30858867348 6.544982946437123 0.20248779169493658
0.4109783096611684 13.447853548854008 197863.9090983077 6.890146417023865 0.20547174874297136
0.4275859824792616 13.37705428405506 166072.37241524726 7.250168057375656 0.20848559699611946
0.4445829062850938 13.314934758495154 139797.36060064618 7.625306806261052 0.21152488246126933
0.4619643804542076 13.260571646886476 117976.37639114216 8.016511758713378 0.21459576830166485
0.4797297202399213 13.213150225315303 99806.80381876075 8.424487939359116 0.21769990152470775
0.49788696323431264 13.171972921572845 84639.82142506074 8.849676277633877 0.220834750787564
0.5164257130515013 13.13639516088715 71933.72673890399 9.292949974613926 0.22400372228124227
0.5353455657536513 13.105850247403323 61272.11919254511 9.755193982015648 0.22720973653851542
0.5546523378696621 13.079794335714992 52301.73136780715 10.23721795622709 0.23045414460510627
0.5743351779699949 13.05783065825173 44727.50863840184 10.739492874060371 0.2337336404035034
0.5943945687403737 13.039500320303208 37990.495889316364 11.263263875561561 0.23705441729643204
0.614829682355042 13.024497169040337 32898.8606858055 11.809468464680696 0.24041808829214997
0.6356353612848817 13.012425177373188 28290.21564092675 12.379085739635979 0.24382628650787408
0.6568061432401906 13.003032320301097 24369.74956677715 12.97280459423525 0.24727696095284174
0.6783383951642085 12.995973612381416 21026.541350639964 13.59195211407229 0.25077490006749054
0.7002272766195226 12.991054930815707 18171.05237922124 14.237725980999368 0.2543227397876384
0.7224587338052284 12.988016037015974 15727.987213999566 14.911316004185375 0.2579224649658141
0.7450491900643305 12.986644751125645 13632.556613333301 15.613750640762724 0.2615739595713862
0.7679707185976204 12.98675205532714 11835.343047865748 16.346298620604443 0.265279143722755
0.7912164719049862 12.98814607934037 10288.043824718383 17.11057493887934 0.2690426962977243
0.8147920439304267 12.990670766807112 8955.699018542093 17.908034800677232 0.27286705018868107
0.8386732131598424 12.994140704844707 7806.657754182002 18.74003907579808 0.2767532461326799
0.8628551162230474 12.998405890591773 6813.48756361924 19.60794126714417 0.2807018453762311
0.8873366691607018 13.003356010709965 5954.956309199889 20.51382307330012 0.28471916943915854
0.9120954461688466 13.008840688777994 5210.683564224406 21.459478826528407 0.2888082320755331
0.937113999305439 13.014737013896665 4564.782966391862 22.446386861944777 0.29296890775654566
0.9623984317505261 13.020948526247674 4004.1706199215478 23.476584385201576 0.29720509007686696
0.9879198285008918 13.02734387605516 3516.2200342850033 24.55248834830268 0.301522833774128
1.0136621168780169 13.033796169805843 3091.5567083960727 25.676033934376747 0.30592371684065817
1.0396274229890328 13.040252479556846 2721.1745795181146 26.849196917571458 0.3104091060912781
1.0657783066744475 13.046581802937853 2398.007326411238 28.07506744543915 0.31498768493081963
1.0921116255546353 13.052699752028067 2115.584149906104 29.35569113903079 0.3196598336778372
1.1186100189569586 13.058542047958335 1868.3795605048847 30.69384282777993 0.32443036746431747
1.145240610838922 13.063995627857283 1651.926181548554 32.092903289594126 0.32930721439361627
1.1720047177946036 13.069010380998296 1461.9073785167075 33.554832940026415 0.33428819704468854
1.1988613671345856 13.073461320134728 1295.283518954658 35.08416534514715 0.33938682193188713
1.2258070652965394 13.077333701640997 1148.9405742361341 36.68291251250134 0.34459978109879486
1.252803272803865 13.080499637894096 1020.067700359731 38.35613842410705 0.3499415834085812
1.279847344695636 13.08293178958136 906.6269152454236 40.1060944092496 0.3554088739108367
1.306890375287804 13.084521074717554 806.6694734349941 41.9382310141675 0.3610160904743191
1.333923108252911 13.085240886474349 718.4517816651894 43.85605133344807 0.3667652709258966
1.3609364510462727 13.085031972143389 640.5442983808579 45.864227656574734 0.3726640782040125
1.3878668964374083 13.083776789360298 571.7178815509421 47.968101756903394 0.37872251600168333
1.4147246311488793 13.081479962866862 510.7684237200622 50.17243939349027 0.3849462807927468
1.4414483978464028 13.078026412319943 456.82246971221207 52.482443859468376 0.3913422569891387
1.4680439436290664 13.073428160929977 408.9729588998258 54.90454001489307 0.39792217967067733
1.494452298008618 13.06756291972089 366.4784215318159 57.44491803749002 0.40469511038025335
1.52066465433605 13.06041442209185 328.79470774311176 60.1102062418297 0.41167082079082323
1.5466484408022867 13.051927720456034 295.25702458031117 62.90751052132506 0.4188598511763987
1.5723640132898613 13.042046246820433 265.43296802138354 65.84445756659662 0.4262735736569123
1.5977886211466379 13.030718136634809 238.88984521039023 68.92924224358153 0.4339242607757417
1.6228760682957653 13.017893190037698 215.20769811626755 72.1706795624218 0.4418251600371017
1.6476275192303909 13.00355714638632 194.0673598920548 75.57826172220479 0.44999057510632434
1.6719772735584626 12.987619682423126 175.20543237495156 79.16190243969326 0.4584346251113135
1.695914320009938 12.970065654792366 158.34759590711852 82.93184306476125 0.467170788024003
1.7193951499197553 12.950855720136307 143.26170286143477 86.90079821905768 0.47622051423403294
1.7423772423124522 12.929919717490751 129.76771159891808 91.08032638688341 0.4855980662838357
1.7648588248052506 12.907265376405753 117.66538482364976 95.48455847282706 0.49532552678474995
1.7867855948801956 12.882828066915396 106.81206885602911 100.12712387158011 0.5054202620517796
1.8081235241901026 12.856569296946931 97.07133438111421 105.02456957109646 0.5159080545024005
1.8288334466546454 12.828434689088033 88.31796115530604 110.19343835957923 0.5268114439787661
1.8489128658726703 12.798466707990968 80.45476315075574 115.65139275450045 0.5381539155000555
1.8682890341813312 12.766527146694205 73.37596418782088 121.41858730973014 0.5499645959484646
1.886968577378774 12.732704935926328 67.00089394225026 127.51646023510689 0.5622733380659952
1.9048913594756836 12.696887491285358 61.24836323089104 133.96746425458926 0.5751094784387564
1.9220322829353202 12.65907031221727 56.06799988242941 140.79730045388752 0.5885093707940809
1.9383453829391775 12.61918212405794 51.38502210729991 148.03364121667806 0.6025112557722666
1.95384160141565 12.577335881890676 47.15568781846915 155.7049685058578 0.6171508331148061
1.9684576798763351 12.533403490127052 43.332056975502184 163.84495053788376 0.63247576942415
1.9821720677713799 12.487403183619906 39.87450132111718 172.48739515411523 0.6485277336680819
1.9949625112959328 12.439326402864154 36.74166257602009 181.67153968879828 0.6653597075284013
2.006798139628002 12.38916445552854 33.8997965838211 191.439420836572 0.6830262128200665
2.017644197666553 12.336888720562666 31.323837035344415 201.83707823572232 0.7015864901602502
2.0274796404705007 12.282503042774701 28.98915642467268 212.91443076099227 0.7211031028708357
2.0362892794184213 12.226036540202193 26.866375366922576 224.72704228395565 0.7416466210042355
2.044033970011285 12.167440036492987 24.93981324020578 237.33601073107351 0.7632939468078623
2.050692593380313 12.106732449878276 23.185015780317112 250.80824679994777 0.786127803976538
2.056264885486592 12.0439850270366 21.591105085087435 265.2169239598665 0.8102365714188808
2.060710885751587 11.97913508122121 20.139691989523406 280.64362173204347 0.8357193932366179
2.0640175123648326 11.912237335719947 18.819681104529828 297.1782470886156 0.8626837879728415
2.0661766653020868 11.843335912225033 17.616607111672057 314.9211542807361 0.8912501345567095
2.0671689550328702 11.772442904595799 16.52131982955282 333.98170415858925 0.921544106586434
