M[M_sun], R[km], Lambda[1], P_c[MeV/fm^3], rho_c[fm^-3]
0.24162668629717493 15.618656898711224 2160425.4255784233 3.5677272577965504 0.1711233750220791
0.2536436399105684 15.27727923101345 1723274.1034841703 3.784814123391961 0.17388810471502322
0.26603939884978883 14.981265098163377 1383013.4147353303 4.011389960742401 0.17666652186452256
0.27881402331857946 14.723538525431676 1116499.446132905 4.247711032469355 0.17945731493163677
0.2919676165501322 14.498446793109471 905878.5831767278 4.494402407390754 0.18226704805722385
0.30550392281841954 14.301214136840875 738679.6490050899 4.751618784129716 0.1850914097578711
0.31941955383068205 14.128135501528446 605107.2750857022 5.020043951735673 0.1879370518645754
0.33371629599346453 13.9759749205408 497679.66744368273 5.299899866642529 0.19080055637217322
0.3483969631630787 13.842060740308032 411026.1602655303 5.59191758742804 0.19368826939230438
0.3634592485358731 13.724023236426174 340667.17169323267 5.89626130966829 0.19659519699388098
0.37891204634338627 13.620025673631742 283318.6396595816 6.2137963807518775 0.19952904660850532
0.39474396380973353 13.528481209121518 236415.55196656202 6.544782143026739 0.20248603092029965
0.41096727261718574 13.447906990713593 197874.9443484983 6.889917147925804 0.2054697961911232
0.4275750757254507 13.37708620968236 166092.9331325616 7.249908171109819 0.20848344702364535
0.444569454573578 13.314982421349145 139814.01253800697 7.625017021093469 0.21152257558500412
0.4619501450312466 13.26059083261309 117994.50413978985 8.016187020031547 0.21459325618542094
0.47971330919043725 13.213183145631255 99821.32545746246 8.424125714847131 0.2176971781027582
0.4978704320788661 13.172005353024758 84642.93282277265 8.849277902842509 0.22083186638386204
0.5164074454506383 13.136430664176759 71943.97640130456 9.2925090025135 0.22400061781016387
0.5353255624400713 13.105871964003773 61280.43314210208 9.754707422639774 0.2272064052954773
0.5546315667078835 13.079817857984516 52305.46041779818 10.236682637923776 0.23045057959403456
0.5743124137497545 13.057869385228432 44735.33848985514 10.738911122772553 0.2337299053800316
0.5943669503554713 13.039569830744316 38331.90295346854 11.26262694247641 0.2370504377269899
0.6148041778139668 13.02451598417265 32905.45952110176 11.808772587025823 0.2404138561949621
0.6356050538431622 13.01244990399545 28295.365296024927 12.378326919885893 0.24382179347982716
0.6567761484457767 13.003035050822355 24373.773819229747 12.971986317015388 0.24727228401580337
0.6783073798532171 12.995981768030529 21030.62681009221 13.591062759506475 0.2507699483795404
0.7001947959201628 12.99107135875918 18174.803689652985 14.236760780415432 0.25431750352736393
0.722427206750226 12.988000709390821 15731.988937415612 14.910269882510926 0.25791693372618274
0.7450144695947195 12.986641355039122 13636.188459253037 15.612628403940187 0.26156822344115843
0.767933234067761 12.986751534421176 11837.794808195391 16.345085070998465 0.265273094482338
0.7911768926375712 12.988132340921657 10290.515501214208 17.109263985808056 0.2690363215768646
0.8147508115127094 12.990663135306985 8957.556229728305 17.90661994964866 0.2728603368217172
0.8386309189617176 12.994132272501652 7808.669345259261 18.738526602278302 0.2767462970994313
0.8628100703708682 12.998404798438496 6815.565993535457 19.606311505047685 0.28069453366154135
0.8872854959033611 13.003343993306272 5956.403616033652 20.51206817846121 0.2847114792178737
0.9120446601168014 13.00883644214778 5211.99804762653 21.45759041762477 0.2888001464554663
0.9370635440357654 13.014725044015128 4565.982332657864 22.444372805455448 0.29296054251251885
0.962340878366997 13.020926817672693 4005.118706821031 23.47441940584325 0.29719629745241477
0.987864765900966 13.027324801437553 3517.2136223667267 24.55016225552737 0.30151359331177974
1.013605901136468 13.033779043090279 3092.3691022665325 25.67355573224568 0.3059141529813596
1.0395687412419585 13.040232767024014 2721.9070817196252 26.84653630921658 0.3103990547920079
1.0657185479629032 13.04656304861578 2398.779331056411 28.072211976432392 0.31497712130931055
1.0920488620121527 13.05269184923962 2116.0299786034693 29.352650929739976 0.31964889079108827
1.118546083617409 13.058528545166299 1868.949775188076 30.690581580818293 0.32441886320433677
1.1451757290772222 13.063983494037453 1652.431839326212 32.08943164907599 0.32929528617873877
1.171937408661471 13.06899774710071 1462.3716549962865 33.55111018365057 0.33427565097186973
1.1987914154304822 13.073457154219398 1295.6327131597582 35.080173902098224 0.339373623311807
1.2257371250572069 13.077323860617105 1149.299427595138 36.678663965724525 0.34458607594455376
1.2527315232169538 13.080487459222383 1020.3731369210894 38.351604604451914 0.3499272771518323
1.279771809918018 13.082930233726847 906.899113195778 40.10124576355893 0.35539387382089765
1.3068150744670346 13.08451880048484 806.92304104855 41.93306821298038 0.3610004825441695
1.3338518506209458 13.085236973104633 718.7613317126502 43.850516492790206 0.36674881851705265
1.3608583045189346 13.085033051444348 640.7448033120386 45.85833237385753 0.37264693552268446
1.3877882465504592 13.083777039783518 571.9146370108002 47.96182085148393 0.37870463851733915
1.4146450211401371 13.08149169102558 510.9237079732659 50.16570399277674 0.384927407457691
1.4413674357725668 13.07804250194534 456.97456227169397 52.4752646557912 0.3913225455856564
1.4679607234551766 13.073444697449714 409.10825813034586 54.896885219339396 0.3979015743377318
1.4943701859639995 13.067582312257771 366.6146825967397 57.436753286192975 0.4046735509384467
1.520581042711305 13.060443344115304 328.9057194242702 60.101494365425715 0.4116482423877666
1.5465638006752398 13.051958331061707 295.35293155063346 62.898211291405396 0.41883618389693156
1.5722795215217567 13.042082036112781 265.52673216943606 65.8345274165937 0.4262487420944068
1.5977036799476505 13.030758884175615 238.97670154989768 68.91863396121643 0.4338981835602759
1.6227905988131532 13.017942464500644 215.28973742543906 72.15934195048469 0.441797749315783
1.647543635570273 13.003607863608003 194.1418318929091 75.56613922404313 0.44996173597048056
1.6718923301704398 12.987677897719509 175.2765339573904 79.14899802495687 0.4584045192593696
1.6958283570367632 12.970136967429646 158.40205552701696 82.91803083027926 0.4671390475493912
1.7192942853579372 12.95089596415575 143.3188804920172 86.88600706296809 0.4761870195428773
1.7422943069119776 12.929997460847495 129.80432293197356 91.0645501524842 0.4855629699693206
1.76477593545213 12.90735244934086 117.70819120381708 95.46764518163727 0.49528841524732514
1.7867037572765205 12.88292357126519 106.84593123464977 100.10905879670527 0.5053812784039308
1.808042839942137 12.856674596614475 97.1055486058583 105.00525903582722 0.5158670485402798
1.8287544046176072 12.82854777563398 88.35058001888552 110.17278018528407 0.5267682532315496
1.8488348112424655 12.798588552452799 80.48175866553184 115.62919099582636 0.5381080543278728
1.8682221766323526 12.766688374853974 73.3993751389496 121.39480157198241 0.5499161769029107
1.8868940001642327 12.7328465184501 67.02568321808059 127.49097165895364 0.5622222056837652
1.9048182624212187 12.697038778907883 61.27388191664041 133.94019109342196 0.5750556327503707
1.9219619685977676 12.659232532349368 56.086912926023814 140.76800703722466 0.5884522960786983
1.938277422785799 12.619352878810014 51.40372611215258 148.00215212172196 0.6024506849314384
1.9537773767242228 12.57751790407133 47.173825422255945 155.67119477602574 0.6170868285159764
1.9683963110371567 12.53360338157067 43.35020358027762 163.80868750595425 0.6324080297791388
1.982114272934499 12.487610903939661 39.88856008937038 172.44830892787792 0.6484555652249343
1.9949077878633728 12.439544027608397 36.75393156655372 181.62948857770542 0.6652831108464741
2.0067457339262753 12.389394643804092 33.910347982526595 191.39413176726643 0.6829447961170152
2.0175968926313366 12.337132076206252 31.33598838273975 201.78824997650074 0.7014998248166425
2.0274373371969325 12.28275717533383 28.998115736740502 212.86185378917546 0.7210111226042224
2.0362504937906833 12.226302851940066 26.87640404431036 224.67022995503183 0.7415484195411809
2.0439999165958 12.167720084207073 24.948494162637125 237.27468627016734 0.7631893829686563
2.0506628625340615 12.107026965770801 23.192930166884047 250.74196235355723 0.7860162649434165
2.0562401809863298 12.04429332433466 21.597291017870795 265.1450611612737 0.8101169875468818
2.0606917959804085 11.979455911824925 20.146390600039265 280.56590262844423 0.8355919158177523
2.0640021668410276 11.912572135674463 18.825275230981106 297.09392761570916 0.8625471753182758
2.066168785801594 11.84368336617549 17.622764440711475 314.82955735421916 0.8911035058930847
2.0671661365023466 11.77280435574092 16.527269349033563 333.88222565239636 0.9213869882321893
