M[M_sun], R[km], Lambda[1], P_c[MeV/fm^3], rho_c[fm^-3]
0.24162668629717493 15.618656898711224 2160425.4255784233 3.5677272577965504 0.1711233750220791
0.2536449973507218 15.277269421539032 1723277.9590017716 3.784838574161723 0.17388840948207288
0.2660417699290616 14.9812449637391 1382972.59791729 4.011441361327175 0.176667143010255
0.278817716595156 14.723503036687319 1116360.9859479857 4.247791122023274 0.17945824384976983
0.2919736392892131 14.498341375218391 905849.2483401443 4.494513287723431 0.1822682827354622
0.3055100420358085 14.301165140578327 738590.0959402012 4.751764220370382 0.18509298074683952
0.3194282713074758 14.128059311905474 605042.2267579184 5.020225015410207 0.18793893047008287
0.33372615502532527 13.975902056051316 497665.02540003293 5.300121324923697 0.19080278608959883
0.34841010599258165 13.84195301600055 410955.2059471554 5.5921799934530885 0.19369080824278212
0.36347386863164244 13.723918664124213 340621.31038188026 5.896570559058001 0.19659810152959328
0.3789278090826101 13.619956759824719 283263.8077539692 6.214156216153072 0.1995323278740942
0.39476418665526836 13.528342839299222 236371.3379950327 6.545192191047906 0.20248962648749752
0.410989571389446 13.447824455684485 197836.59897532038 6.890385324907186 0.2054737833827595
0.4275994198367378 13.376987855546433 166058.00140646874 7.250438870705872 0.20848783736539683
0.44459569709737734 13.31488904118714 139780.94805063301 7.625608776699102 0.21152728634012255
0.46197932340847175 13.26051718887622 117953.51042530256 8.016850153778947 0.2145983860610777
0.4797459162003814 13.213097470429261 99790.91991387097 8.424865398153209 0.2177027394871616
0.4979056313724955 13.171927030941475 84626.17534713815 8.850091408539889 0.22083775651269533
0.5164462372240334 13.1363390024351 71925.2224123525 9.293409496311618 0.22400695734264187
0.5353662757413201 13.105813731112937 61262.5471193473 9.755701010596816 0.22721320792456798
0.5546736649654583 13.079776307002623 52292.78940585117 10.23777503908043 0.2304578498607147
0.574358972518607 13.057820138038654 44718.844319265176 10.740099103571394 0.23373753258475055
0.5944180080944834 13.0394939138521 38318.62760048531 11.263927611289091 0.2370585643292688
0.6148574059262216 13.024475530129193 32897.31960307151 11.810193628190575 0.24042249849619865
0.6356634696295309 13.012426004678746 28284.66002148947 12.379876497173223 0.24383096864192866
0.6568360195246093 13.003011250100146 24364.636099342977 12.973657314481036 0.24728183475209226
0.6783696779714068 12.99597213477689 21021.9030454234 13.592878906993533 0.2507800602021733
0.700260503347622 12.991044107320517 18166.775137657853 14.23873181659775 0.25432819649484945
0.7224977403195403 12.98798602850286 15724.540187035562 14.912406171823276 0.2579282290930575
0.7450878430908138 12.986637141005405 13629.82119494777 15.614920132002124 0.2615799372348478
0.7680103328089141 12.986762342926282 11832.78562140128 16.34756327439921 0.26528544770473583
0.7912578487074392 12.988149310771696 10287.121847382296 17.111941103165567 0.2690493394920262
0.8148349501425534 12.9906722476015 8953.540997048785 17.909509244288866 0.2728740463181905
0.8387193846434818 12.994138311855066 7805.180325067959 18.74161525865073 0.27676048787734886
0.8629028569102836 12.998407640335351 6811.799863358225 19.609639685641625 0.28070946510889266
0.8873866507220359 13.0033622651517 5953.293392079189 20.515651903070985 0.284727183654779
0.9121444601275737 13.008861239347834 5209.37747239325 21.461446803098603 0.2888166583813062
0.9371660626464929 13.01475741666993 4563.624603511175 22.448485786888977 0.29297762549581724
0.9624527511129345 13.020964139921869 4003.0557779148075 23.47884060152604 0.29721425324174783
0.9879752496811308 13.027349987770265 3515.23113767137 24.55491247736543 0.30153246368810616
1.013720012232234 13.03380778934106 3090.635581118317 25.67861659196973 0.3059336838137013
1.03968643776315 13.040266288843737 2720.374172334211 26.851969680949274 0.3104195810920293
1.0658406243396334 13.04658948569103 2397.301423563619 28.07804329573362 0.31499869389505775
1.0921747931910013 13.052726224091085 2114.8248028911507 29.35885952837934 0.319671237934091
1.118675474614138 13.05855197926721 1867.643413799703 30.697241588201983 0.32444235681194045
1.145308445809112 13.064012960212732 1651.316185488029 32.09652132720572 0.32931964561448734
1.1720742010320846 13.069019612338671 1461.4215288640385 33.55871269934144 0.3343012722336001
1.198931898965348 13.073478347563393 1294.8716473825386 35.08832514052291 0.3394005772474717
1.2258805709482985 13.077342511544217 1148.5996239792426 36.68734027130438 0.3446140643632911
1.2528785093245964 13.080502130063037 1019.7061732856829 38.36085211762749 0.34995642637759156
1.2799226113531488 13.08294600296999 906.2898519712312 40.11114762072794 0.3554245068589818
1.306968402198051 13.084526856758108 806.4124020877448 41.94361165516217 0.36103235696720953
1.3340062452474781 13.08523968562647 718.2752496857942 43.861819738160605 0.36678241760790153
1.3610165374274714 13.08502975502999 640.3339088895267 45.87037173687515 0.37268194435491586
1.3879496665622153 13.083768897482175 571.5471676041544 47.97464775953297 0.37874114803826275
1.4148003218480447 13.081459053577055 510.59514772675413 50.17945910779717 0.38496595080582324
1.441532599566584 13.07801791137312 456.66735473805096 52.48992614046181 0.3913628005293783
1.4681282804718636 13.07341158640125 408.82241550117516 54.91251799798117 0.39794365496634154
1.4945387433389135 13.067541596278856 366.35887512808097 57.45342754232308 0.4047175801613375
1.5207511413696344 13.0603890488915 328.69225625862396 60.11928601265185 0.41169435265879034
1.5467354106973936 13.051899024435597 295.1462586461689 62.91720249130976 0.41888451801055554
1.5724520131389146 13.042010159763278 265.3316882969978 65.8548071488384 0.4262994540613642
1.5978661019176887 13.03066907047158 238.79123413516203 68.94029865174069 0.4339514395713206
1.622965085790748 13.017846267758681 215.13242057583173 72.18249616438519 0.4418537288031831
1.647716845915756 13.003499417579516 193.98953887848708 75.59089643054595 0.4500206327780467
1.6720650625121278 12.987559859272233 175.14595253870996 79.17535215766975 0.4584660031494779
1.696001853881365 12.969997538062433 158.28798424960812 82.94623903655544 0.4672038699252582
1.719481975536229 12.950779974423815 143.20894775320735 86.91621456324897 0.47625542466864057
1.7424619147766336 12.929823856380592 129.71792648858116 91.09676951996227 0.48563464620243646
1.764945189346467 12.907171311092965 117.61648958676177 95.50218682411446 0.4953642073236941
1.7868711958655246 12.88273174341075 106.76700507694078 100.14595279141066 0.5054608940439044
1.8082076666258944 12.856461342548458 97.0384326665298 105.04469671220872 0.5159507945287405
1.828921400186929 12.828327614962893 88.28741311667821 110.21497023836783 0.5268564614096661
1.848994902038773 12.798336234427904 80.42397466224892 115.67453363998541 0.5382017165841618
1.868367354088828 12.766389769782927 73.34823031065255 121.44337931036591 0.5500150633765044
1.8870437757211396 12.732560237994866 66.97224660500915 127.54294829194798 0.5623263518146038
1.90496536586529 12.696731157663175 61.22641937315927 133.99589151813515 0.575165602683583
1.922104379341988 12.6589014105553 56.04569500853612 140.8278336453311 0.5885688610621989
1.9384154317234905 12.619001051351045 51.36549024000761 148.06646321575445 0.6025743905204863
1.9539089445346653 12.57714343029222 47.14023343175702 155.74017204653205 0.6172175473483079
1.968521557984411 12.533203975606641 43.32011247526971 163.88274898892297 0.6325463772448182
1.9822335094673982 12.487189572543198 39.86043248490279 172.52813661372159 0.648602958318666
1.9950175339300305 12.439097581957489 36.72831464152926 181.71537187035997 0.6654395484548836
2.006849707305246 12.38892408245063 33.88471465883059 191.48662843218392 0.683111078480868
2.017692980711221 12.33663552896021 31.31231315028047 201.88797529726799 0.7016768274239127
2.027525344404804 12.282241084434826 28.977640891437623 212.96923572225103 0.7211989808716812
2.0363295099348058 12.225756411898534 26.85592022829573 224.78626251693655 0.7417489845867767
2.044068397784784 12.167149570193793 24.930073644589278 237.39993479013967 0.7634029432007342
2.0507232193040745 12.106426163785002 23.176910913669353 250.87733660925036 0.7862440558099432
2.056290131465625 12.043663758246048 21.58370471898001 265.2917953123404 0.8103610996110477
2.0607314323941344 11.978799619839222 20.133150196636617 280.72463729353626 0.8358522776136729
2.0640309621486828 11.911889371424927 18.813219687406026 297.2661437085258 0.8628261962465104
2.0661855904771573 11.842972233177989 17.61085068922567 315.0166379199816 0.891402985082955
2.067171662550013 11.772066837439805 16.515995988384564 334.0854047021042 0.9217078933113749
