M[M_sun], R[km], Lambda[1], P_c[MeV/fm^3], rho_c[fm^-3]
0.24162668629717493 15.618656898711224 2160425.4255784233 3.5677272577965504 0.1711233750220791
0.25364326493950345 15.277281093425033 1723239.4463039378 3.7848076144696843 0.17388802358444705
0.2660376402205176 14.981350993509151 1382979.948736991 4.0113762777183775 0.1766663565132524
0.2788123839054607 14.723584757122193 1116581.2985859585 4.247689712456135 0.17945706765161198
0.29196618074731395 14.49846438479341 905897.7160290788 4.494372890966584 0.18226671938499034
0.30550072417421137 14.301293204350669 738669.9614041802 4.7515800691124905 0.18509099156179634
0.31941701200810646 14.128180076853695 605124.8095141071 5.019995752974949 0.18793655178382987
0.33371355309616535 13.976028354506814 497709.7486381107 5.299840915242762 0.19079996282939563
0.3483933246156123 13.842088483313542 411034.8929104256 5.591847736237508 0.19368759356282056
0.363455872155422 13.724034247546777 340689.2131650487 5.896178989439355 0.19659442382487
0.3789082171937872 13.620040342442962 283335.8419721687 6.213700595348746 0.19952817316096189
0.3947379526361584 13.528531391298996 236423.14036999788 6.544672991934355 0.20248507381267533
0.41096250216453006 13.447916909270281 197886.82844043654 6.889792524067356 0.2054687348420483
0.42756918830336527 13.377102339195499 166106.91249424242 7.249766905100648 0.20848227836615485
0.44456305488008985 13.314969928688459 139828.32178511703 7.624859503410387 0.21152132164296322
0.4619425545314332 13.26061769324334 118003.24747072058 8.016010503297132 0.21459189068577258
0.4797051982319953 13.213202775066755 99830.35071475887 8.42392882269723 0.21769569774904113
0.4978616347649286 13.172044475172179 84658.94676263219 8.849061361275252 0.22083029853039401
0.5163985024294754 13.136434013169293 71951.87849853642 9.292269307355282 0.22399893034130677
0.5353154469363939 13.10587549663592 61288.2134778242 9.754442948800664 0.2272045945675806
0.5546196967793211 13.079836460624962 52308.853183682135 10.236391661571218 0.23044864180503677
0.5743001933376712 13.057867203399505 44739.76726762229 10.73859490821115 0.23372787518459637
0.5943557212047531 13.039542424858482 38337.29600608186 11.262280734507046 0.23704827461333222
0.614790147692795 13.02452385981363 32909.104977303214 11.808394340554479 0.24041155582532603
0.6355904521531498 13.012445162580796 28299.935334748036 12.377914462236266 0.24381935128747811
0.6567612468592054 13.003041104804385 24376.834043518767 12.971541542249156 0.24726974186562806
0.6782914293695992 12.995986745184638 20870.538530894188 13.590579352025914 0.2507672568962013
0.7001775513681637 12.991070806032598 18040.839253182763 14.236236148446643 0.2543146573733286
0.7224092534912684 12.987993732409157 15733.52612793748 14.909701267761081 0.25791392724565937
0.7449949791487267 12.986654386205167 13637.804141866542 15.612018418600169 0.26156510560071955
0.7679126957641015 12.986762680077637 11838.84828624952 16.34442545502807 0.26526980646216297
0.7911553341820943 12.98813382327635 10291.378080697077 17.108551428964397 0.2690328566542259
0.8147283586225444 12.990662932214414 8959.064084981046 17.90585092223364 0.272856687841621
0.8386085420750714 12.994116473025274 7809.9755643938 18.73770451513724 0.27674252003437744
0.8627862788366913 12.998390590868325 6816.495611209121 19.605425669673277 0.2806905594768835
0.8872581538040765 13.00334809294707 5956.868988633921 20.511114331662245 0.28470729931330435
0.9120193296048037 13.008830736827912 5212.717372777614 21.456564004289746 0.28879575165080174
0.937036291675196 13.014719295530515 4566.597539880658 22.443278101083852 0.2929559957337894
0.9623133675320538 13.020924171978876 4005.6233805554534 23.47324267356003 0.29719151839297137
0.9878356795303934 13.02732209663131 3517.7577976155635 24.54889795699436 0.3015085708538988
1.0135757877837233 13.033774914484288 3093.2787483711313 25.672208761170445 0.3059089547605683
1.0395375742322952 13.040231366060235 2722.3945595195128 26.845090199750743 0.31039359165084623
1.0656855543151176 13.046555146175969 2399.1088524660154 28.070659959942727 0.31497137972544675
1.0920162764509458 13.052678808951976 2116.619939456108 29.35099850656048 0.31964294308223506
1.118511759649668 13.05852172369254 1869.2463166361963 30.68880902417662 0.3244126103959245
1.1451406728103366 13.06397670153177 1652.6678241483357 32.08754474389812 0.3292888029584003
1.1719010092943705 13.06899220779647 1462.6640595483416 33.54908679852347 0.3342688319553716
1.1987548340353391 13.07345174849139 1295.8759145679246 35.07800448795802 0.33936644964737483
1.2256997000646133 13.07732339871605 1149.4864808207608 36.67635481764106 0.34457862699028496
1.2526930147429607 13.080488880386271 1020.5527627570657 38.349129156730235 0.3499194354761221
1.2797328801047418 13.082932872044603 907.0365644578652 40.09861046876084 0.3553857210991875
1.3067747038838897 13.084520791149508 807.0797150761147 41.9302621788188 0.3609919994777867
1.3338097708605847 13.085234789220001 718.8559087638694 43.84750826184531 0.36673987649894196
1.360816827774874 13.085034992647353 640.8746747064932 45.85512824889599 0.3726376183625438
1.3877466853747324 13.083779835226109 572.0304003926849 47.958407148002415 0.37869492201526334
1.414601828912932 13.081492644653322 511.02862078025026 50.16204328206442 0.3849171497428564
1.441323853216545 13.078047968808868 457.05703383561683 52.47136274864302 0.39131183241054573
1.4679167341609813 13.073457343592008 409.17998746368465 54.89272484020812 0.3978903753453383
1.4943251830622928 13.06759464645079 366.68472728631303 57.43231576027134 0.4046618334251518
1.5205357601161629 13.060456010876837 328.96756380226003 60.09675949337476 0.4116359711106467
1.5465181164747819 13.051974554614297 295.4102455439788 62.89315721158388 0.41882332086196866
1.5722338621188376 13.042099837651351 265.57392437318816 65.82913045339733 0.4262352463235562
1.597657716000227 13.030780791983219 239.01988109212795 68.91286845796452 0.4338840108350981
1.6227448813379903 13.017966650990724 215.3141237343217 72.15318008510208 0.441782851895079
1.6474959813843788 13.003637109064451 194.182247869782 75.55955080556687 0.44994606227906
1.6718450802418319 12.987710019801618 175.3041629819545 79.14198466671547 0.45838815717483045
1.6957830530498672 12.970171690277706 158.43237677852127 82.91052411392587 0.4671217971370742
1.7192482187824163 12.950932681760401 143.34707254708448 86.87796835048593 0.476168815814227
1.742250251124973 12.930041116799217 129.83464770563717 91.05597609764797 0.48554389585330615
1.7647311988698369 12.90740031647802 117.72776282072341 95.45845319769384 0.495268245982083
1.7866589732217784 12.882975754609859 106.86629165569401 100.09924088024823 0.5053600917661548
1.8079989210304142 12.85673195687633 97.12762386777041 104.99476428185882 0.51584476290823
1.8287109492601845 12.828608645891297 88.36943273675207 110.1615530691095 0.5267447803181287
1.8487927193913414 12.79865503832123 80.49720500676922 115.61712504122556 0.5380831302293084
1.8681806946252657 12.766762094118718 73.41475664073775 121.38187482771534 0.5498898627887062
1.8868538155873893 12.732923929809026 67.03740909139968 127.4771115583857 0.562194388572517
1.9047788412533 12.697121185063782 61.28398941129981 133.92536917184273 0.5750263696750075
1.921924526114607 12.659321306622473 56.09869073504567 140.75208725583107 0.5884212782905567
1.9382415967816027 12.619444792333313 51.4140509839394 147.98503915819256 0.6024177672946666
1.9537524121336955 12.577653845213906 47.18157008889746 155.6528402910002 0.6170520449295431
1.9683624294931565 12.533706897077577 43.35820994548792 163.78898028667712 0.6323712165297507
1.9820829318613937 12.48772201551811 39.89697059308213 172.4270675469765 0.6484163453375844
1.9948772603757097 12.43966336444814 36.76028755626821 181.60663604241773 0.6652414846365792
2.006713493530366 12.389504151308973 33.919709556471275 191.36951969757664 0.6829005507041565
2.0175717046786468 12.337263253521964 31.341155001838573 201.76171469330063 0.7014527273064521
2.0274131360102223 12.282896376535453 29.00331035096418 212.83328144256268 0.7209611369932526
2.036229827115117 12.22644734419598 26.881648367721272 224.63935612527638 0.741495053391447
2.0439807223020128 12.16787241773088 24.952546466779303 237.24136056724004 0.7631325595838141
2.050646843548593 12.107187293063717 23.197319888477473 250.70587170175455 0.7859554242623684
2.0562213877124265 12.044437402182972 21.602017387419462 265.10600904557157 0.8100520025574733
2.0606818196506618 11.979630011861518 20.150290148764586 280.5236682837812 0.8355226416625473
2.0640019105696696 11.912768942660867 18.82953007760946 297.04810676819903 0.8624729373350789
2.0661641983133734 11.843872025832026 17.625498186998716 314.7797821229894 0.8910238255379204
2.0671652308505073 11.773000404937832 16.529526448132305 333.82816779460285 0.9213016081639157
