M[M_sun], R[km], Lambda[1], P_c[MeV/fm^3], rho_c[fm^-3]
0.24162668629717493 15.618656898711224 2160425.4255784233 3.5677272577965504 0.1711233750220791
0.25364434078945874 15.277292167173773 1723117.8760891045 3.7848266704600326 0.17388826110817385
0.26604068889471133 14.981241373305934 1382924.8761033167 4.011416337220664 0.17666684060869603
0.2788160941836032 14.723473078588215 1116474.3024711513 4.247752130753243 0.17945779160979608
0.29197102053220053 14.498404827804906 905853.5607391841 4.494459305969856 0.18226768163610763
0.3055074877030449 14.301184390783378 738657.3674343112 4.751693415018885 0.1850922159139093
0.3194243529588636 14.128099485882373 605095.8162659404 5.020136864724571 0.18793801587269635
0.3337232964151871 13.975877600065047 497657.23428146815 5.3000135079245085 0.19080170055131776
0.3484037137986691 13.842004758332505 410992.6751695658 5.592052240777642 0.19368957220050362
0.36346698814470835 13.723963118386262 340626.4152514885 5.896420000314565 0.1965966874500133
0.37892059462190253 13.619980894531382 283291.9341785663 6.21398102912715 0.19953073037935667
0.39475216553397796 13.528469152793608 236395.26131847204 6.5449925574589525 0.20248787597061418
0.4109789369675167 13.447871922894052 197858.65633627935 6.890157390517232 0.2054718421978457
0.42758623171451465 13.3770586778522 166073.25362936006 7.250180496322449 0.20848569990033847
0.4445832922706394 13.314904449182722 139796.31474781546 7.625320676285877 0.21152499287558532
0.46196499449992195 13.260553532515093 117975.41196743905 8.016527301754389 0.21459588853965308
0.47973095028932705 13.21312594801905 99801.21478977801 8.424505276627983 0.21770003187673256
0.49788765657488054 13.171971319752402 84639.00178885956 8.849695345209188 0.2208348888449562
0.5164272602400971 13.136381124887977 71935.8504853688 9.292971081083802 0.22400387087210605
0.5353463920368725 13.105827876908743 61273.8252137456 9.755217270498648 0.22720989598379734
0.5546534334215356 13.079812524226533 52302.89747887446 10.237243578538783 0.23045431523970686
0.5743361916960354 13.057829770838177 44726.13898447391 10.739520718873736 0.23373381917583044
0.5943938365807486 13.039513849041068 38323.35731341312 11.263294361644144 0.2370546077740277
0.6148309349587237 13.02449714792458 32899.65506018298 11.809501772143994 0.2404182908570991
0.6356353559207722 13.012432443335111 28289.866301332306 12.37912205982887 0.24382650156243127
0.6568074245678589 13.003009318179952 24368.723747402295 12.972843760368677 0.2472771848103996
0.6783399003645426 12.995972548521447 21025.98897337424 13.59199468234485 0.2507751370762274
0.7002289467092594 12.99105327630566 18171.171987910308 14.237772179673739 0.2543229904177016
0.7224587531478666 12.988034845049238 15727.630282613372 14.911366076191298 0.2579227297153842
0.7450517927572824 12.986640542323062 13632.66434350598 15.613804356063083 0.26157423412837083
0.7679727595857512 12.98676188248069 11835.329660326363 16.346356706659115 0.2652794332671691
0.7912189804813263 12.98813752144295 10287.676154997083 17.1106376872344 0.2690430014217266
0.8147941944713278 12.99067089258528 8955.501951245747 17.908102522208907 0.27286737152250656
0.8386769684933979 12.994124536392286 7806.52464575667 18.74011147012551 0.27675357874715656
0.8628577322008758 12.998400962437376 6771.252386812113 19.60801927562725 0.2807021953510973
0.8873392622372194 13.003355056583501 5954.589508286214 20.513907071423347 0.28471953753195867
0.912096293396349 13.008851945147388 5210.717220885247 21.45956921548989 0.28880861909489064
0.9371156674175448 13.014740525661255 4564.74057528657 22.44648326520271 0.2929693081607954
0.9624009191764074 13.020949075437924 4004.133525627767 23.476688012626006 0.2972055109386283
0.9879223935446317 13.027338332816976 3516.2168631831123 24.552599687699388 0.3015232760726958
1.0136635114296015 13.033805004513088 3091.5948886989163 25.676152554747073 0.30592417461951227
1.0396293988326086 13.04025307656698 2721.152840172327 26.84932426916974 0.31040958720268425
1.0657817451143823 13.04658198420953 2397.9315809790887 28.075204124444063 0.3149881905658914
1.0921132261518427 13.052707074168437 2115.5560671008575 29.35583666100407 0.31966035746759003
1.1186069029190624 13.0585561217949 1868.2721805643757 30.69399893022494 0.32443091812580743
1.1452438547165897 13.063998977617004 1651.9143747160579 32.093069462998685 0.3293077853490669
1.1720073853244288 13.069009531669392 1461.8820505459955 33.5550111337197 0.3342887975758075
1.1988642574560444 13.073465010295552 1295.2582903976997 35.08435640023421 0.33938745369926493
1.2258104307679636 13.077336248178302 1148.9294042588886 36.683115874524134 0.3446004371132006
1.2528057860474835 13.080496804183152 1020.02779312678 38.35635491841805 0.34994226512841203
1.2798510739367583 13.082934866489724 906.6084252736305 40.10632649671237 0.3554095919119111
1.3068942847909506 13.08452577760154 806.6693024400698 41.93847813960347 0.36101683757195135
1.3339284710756716 13.085239426946298 718.4834641468633 43.856316267748255 0.3667660584476507
1.3609395637449877 13.085033921610131 640.5435275765129 45.86450984457869 0.37266489876839565
1.387871261498397 13.083773264448666 571.7366313821082 47.96840240400686 0.37872337174039084
1.4147283204712027 13.081481160906698 510.74265011574596 50.172761796639065 0.3849471842018993
1.4414522843242974 13.078025858449523 456.8221911987917 52.48278750682192 0.391343200516018
1.468046627747703 13.073429488252737 408.9632068792199 54.90490642819935 0.39792316598939986
1.4944562253710167 13.067561316802133 366.4799626205388 57.445308861765604 0.4046961423716661
1.5206685508496687 13.06041633792203 328.7992490606305 60.110623256398014 0.4116719015594852
1.5466521170622434 13.051925921677269 295.24986621781215 62.90795565195436 0.4188609840692397
1.57236851673218 13.042044003567277 265.42691955195806 65.84493289886261 0.4262747622837579
1.5977934231398678 13.030716045708285 238.89093669630873 68.92975003759217 0.4339255090319034
1.6228793172572091 13.017891703514513 215.20017976354157 72.17122226905674 0.44182647212825554
1.6476321225972326 13.003552508257151 194.07275049694425 75.57884200104601 0.449991955575936
1.671980826542332 12.98761918682323 175.20354071301264 79.16252014855165 0.45843606621901306
1.695917900327175 12.970066290419918 158.34410049430684 82.93250423086084 0.4671723073817743
1.7193978461888615 12.95085227069975 143.25546294478815 86.90150624619093 0.4762221175671338
1.7423809414213403 12.929915362950272 129.7606779700515 91.08108156975085 0.48559974628774294
1.7648623610243397 12.907263173545292 117.66016123016603 95.48536808701373 0.49532730325905355
1.7867897995221425 12.882825973734422 106.80849773517483 100.12798862206019 0.5054221281457995
1.8081275123658576 12.856564845951002 97.07117256036905 105.0254939424017 0.5159100174068046
1.8288371583416771 12.828427896418006 88.31698648489784 110.19442724327021 0.5268135114715132
1.8489169001296561 12.798460640280183 80.45291042673585 115.65245553112142 0.5381561108298185
1.8682927549439594 12.766520433341295 73.37633294501897 121.41972591305564 0.5499669137275838
1.8869714195835974 12.732698001527996 66.99863798352041 127.51767672902882 0.5622757727822655
1.904894890734954 12.696880618128738 61.248508060160596 133.9687698050899 0.5751120560008144
1.922034846786487 12.659063674359333 56.06636597057006 140.7987027171532 0.5885121029361762
1.9383493254036255 12.619173313188877 51.38459485919879 148.03514859089012 0.60251415528156
1.953845156768533 12.577326862619236 47.15850225453337 155.70658524962448 0.6171538970060824
1.9684606696850315 12.533393805637447 43.332504702683536 163.84668644946746 0.6324790121214147
1.9821747267443732 12.487392405028745 39.87371026685347 172.4892662185548 0.6485311883839916
1.994964117477666 12.439316189761914 36.7402310948099 181.67355268937524 0.6653633742368642
2.0067998476891367 12.389153542738596 33.897691828458115 191.44158884664074 0.6830301102777684
2.017646038879311 12.336877840360316 31.323655729211414 201.83941567679406 0.701590638887583
2.027481787492177 12.282490984585275 28.9885421739248 212.91694766385382 0.7211075060418104
2.0362902555104263 12.226024119891344 26.865712129953472 224.72976194716773 0.7416513220068436
2.0440356965585074 12.167426547734541 24.939262428721126 237.33894640527632 0.7632989524020537
2.050694196063632 12.106718058431879 23.185108195914676 250.81141969669622 0.7861331427532394
2.056266190398011 12.04396984233299 21.59092117695192 265.2203641443421 0.8102422960857187
2.060712194898274 11.979118860483126 20.138999618662833 280.6473422813232 0.835725495803387
2.0640163316823736 11.912222904529104 18.8193181721305 297.18228362640804 0.8626903278873366
2.066177400231703 11.843318760815125 17.616702551963925 314.9255392239745 0.8912571539883822
2.0671686899925303 11.772424964597464 16.52125975817347 333.98646643102035 0.9215516282153313
