M[M_sun], R[km], Lambda[1], P_c[MeV/fm^3], rho_c[fm^-3]
0.24162668629717493 15.618656898711224 2160425.4255784233 3.5677272577965504 0.1711233750220791
0.25364418272673944 15.277295300688374 1723157.8004253937 3.784823686884645 0.17388822391934597
0.2660403086440934 14.98125630976935 1383012.7361516159 4.01141006512969 0.17666676481417815
0.2788156863113956 14.72349396201763 1116410.9435740963 4.2477423579314575 0.1794576782597907
0.29197055641053193 14.498415828495894 905879.3935760371 4.494445775949634 0.1822675309761923
0.30550531461491487 14.301231610580109 738622.1111484246 4.7516756683689145 0.18509202421621965
0.31942200737896403 14.128137773540736 605112.469652832 5.020114770696517 0.18793778663862776
0.3337217785315386 13.975895558243257 497673.95495846233 5.299986484815152 0.19080142847344597
0.34840210982141423 13.842018291490351 411001.1071976762 5.592020221094397 0.19368926240125992
0.36346554007029497 13.723957620719682 340618.50532634405 5.89638226465834 0.19659633302874432
0.3789185955851246 13.619998168662853 283296.27854975406 6.213937120812153 0.19953032998839296
0.39475142574300526 13.528432550694829 236403.7509153839 6.544942522050796 0.20248743722767917
0.41097613490557605 13.447882136520798 197859.11082585514 6.890100262044337 0.2054713556677975
0.4275851719849474 13.377064090724717 166082.37206733722 7.25011573866244 0.20848516417681318
0.4445797612188504 13.314915050722227 139799.2328434144 7.625248468401489 0.2115244180543961
0.46196138600438813 13.260560513788908 117977.81448159645 8.016446384114845 0.2145952625762921
0.47972651641877345 13.213145153725286 99809.80651779311 8.424415018207654 0.21769935325959064
0.497883653471271 13.171978881409618 84642.28998044347 8.849596078787732 0.22083417011365158
0.5164223735670151 13.13639500199844 71937.12710466466 9.292861200152581 0.22400309730349996
0.5353412170653908 13.105837776436205 61274.597217817216 9.755096029986397 0.22720906590707415
0.5546481237471709 13.079799224255764 52297.01575469475 10.237110188098265 0.23045342691140877
0.5743301007951558 13.057841414348392 44729.557142774654 10.739375758077506 0.2337328884826154
0.5943881982672862 13.039518071419753 38327.61747367188 11.263135650394208 0.23705361614326603
0.6148248319026359 13.024501700711895 32899.69910316125 11.809328372786345 0.24041723629969416
0.6356298631521615 13.012427949930277 28291.24364439969 12.378932976208734 0.24382538198428588
0.6568000075951737 13.003012611113435 24370.138772305916 12.972639860792228 0.24727601940403354
0.6783320455064071 12.995975565255282 21027.342713273873 13.591773071255798 0.2507739032050567
0.7002190193100191 12.991058009659863 18171.57096777375 14.237531668746898 0.25432168563418533
0.7224542732052528 12.988008808704839 15729.394776351479 14.911105400745985 0.2579213514260425
0.7450421609302896 12.986654731413134 13633.548666836921 15.613524713671607 0.2615728047819597
0.7679635556354467 12.98676200717428 11836.3130049101 16.3460543101909 0.2652779258966187
0.7912086615013387 12.988137451193397 10288.578512535989 17.11031101891634 0.26904141294431505
0.8147834516274687 12.99066083499333 8955.790808990769 17.907749963636828 0.27286569865729116
0.8386667383676971 12.994129503953465 7807.072419346228 18.739734585076395 0.27675184715536144
0.8628474918594412 12.998407472398489 6814.48924237638 19.607613163424695 0.280700373381766
0.8873273526339991 13.003354307085687 5955.078866086868 20.513469777318736 0.2847176212413887
0.9120856127292613 13.008844724746814 5180.359810597075 21.45909865087208 0.2888066042734666
0.9371043120661917 13.014733062725885 4565.082525574033 22.445981390335323 0.2929672236583205
0.9623879132907258 13.020946356285476 4004.3372444397733 23.47614852899507 0.29720331993530685
0.9879088514205627 13.027336200187689 3516.4613364051716 24.552020055823355 0.3015209734704165
1.0136503012904865 13.03378917774159 3091.7439599163313 25.67553501838539 0.3059217914277617
1.0396154299281297 13.040249593150058 2721.320220657019 26.848661278394037 0.3104070825429181
1.0657666772537546 13.046573555320922 2398.2030639161026 28.074492575595915 0.3149855582372969
1.0920981236570748 13.052706579421148 2115.6845346491295 29.355079076041747 0.31965763062688524
1.118596140978213 13.058540394696497 1868.5195865199228 30.693186263835806 0.32442805139246034
1.1452276725871888 13.063993912463198 1652.042804799659 32.09220436767167 0.32930481296673175
1.1719916097361032 13.069003728600537 1461.993646844739 33.554083461403806 0.33428567122445585
1.1988474724749065 13.073461117530838 1295.416629192693 35.08336177221522 0.33938416473405036
1.2257930030371704 13.077336858154888 1148.9937724101342 36.68205717727004 0.34459702191974173
1.2527884363614594 13.080499025946319 1020.1315123629225 38.35522785521666 0.3499387161144385
1.2798311086363132 13.082940051150743 906.6621397837305 40.105118256538226 0.35540585402045927
1.306875847992051 13.084522325142808 806.7195017366839 41.93719161266908 0.36101294820612073
1.3339123558819348 13.085238242464232 718.5491318099865 43.854937029071124 0.36676195863701255
1.360919839079974 13.085033426125515 640.5817445333721 45.86304078427339 0.37266062694058455
1.3878515595660044 13.083774278788095 571.7820269230083 47.96683724690824 0.3787189167980444
1.4147086797550674 13.081486382375424 510.7889972275218 50.17108337920812 0.38494248109129237
1.441432213445055 13.078031815268481 456.85398589489193 52.48099849364766 0.3913382885561268
1.468025505643915 13.073437150618846 408.9920184310649 54.90299889723555 0.39791803125910724
1.4944356157980851 13.067567472644878 366.51217534790027 57.44327424924584 0.404690769873641
1.5206473912337612 13.060423177993432 328.8251268583181 60.10845229937791 0.4116662751317966
1.5466313173307102 13.051934631784038 295.28199810615047 62.90563832512073 0.41885508628821244
1.572348536461919 13.042052630838949 265.44966635344366 65.84245834497067 0.42626857435712806
1.5977715649962685 13.03072513100905 238.9101210628599 68.9271064908143 0.43391901068122346
1.6228586232156497 13.01790293690285 215.22066372911058 72.16839697043969 0.44181964145937536
1.6476104467703516 13.003564479524602 194.08643449907254 75.57582110517062 0.4499847689362386
1.671959683734617 12.987630790182637 175.22602620636204 79.1593043956072 0.45842856390418424
1.6958962765087415 12.970081338487786 158.35167741683102 82.92906224399069 0.46716439770597135
1.7193761945830282 12.95087071990408 143.27118450790914 86.8978203057555 0.47621377072556476
1.7423577404909125 12.929925672346702 129.77514298971616 91.07715014155045 0.4855910003071037
1.764842413588445 12.907284176410961 117.67333175670748 95.48115329549002 0.49531805506533333
1.786768964689182 12.882848395153832 106.81603875075079 100.12348679719051 0.5054124134030369
1.8081076305114951 12.85659110522266 97.08100852357946 105.0206817384112 0.5158997986815441
1.8288174265752073 12.828457467310509 88.32392574058012 110.18927919547811 0.5268027482730006
1.8488967571200323 12.798491483874262 80.45760903022703 115.64692280603953 0.5381446821289959
1.8682742164666242 12.766552619193167 73.3846404181727 121.41379844373743 0.549954847572227
1.8869528880671587 12.732734028381865 67.00440898812961 127.51134024641712 0.5622630852762805
1.9048766277898743 12.696918482537866 61.25525268192111 133.96197323052195 0.5750986374522996
1.9220180416129211 12.659101760174734 56.07087240288508 140.7914026692198 0.5884978796667341
1.938332041073552 12.619215013205718 51.38998300518793 148.0273013502318 0.6024990607237292
1.9538282133152463 12.577372820185422 47.158995776800275 155.69816864663116 0.6171379467008962
1.9684455535483876 12.533445718270592 43.33884023723608 163.8376494762567 0.6324621309803545
1.9821601813200487 12.487445159071536 39.87710564695101 172.4795256603108 0.6485132035082047
1.9949513257544065 12.439370041652895 36.74424965637482 181.66307323360294 0.6653442857628691
2.00678665201527 12.389210659030384 33.90137328231045 191.430302436162 0.6830098205622906
2.017634603982827 12.336938098192874 31.326936932460864 201.82724723628516 0.7015690411059974
2.026739206074768 12.284267016112477 29.10296769621266 213.18274869284153 1.0486326480343444
2.028043301251382 12.23595682355944 27.846703240675968 227.42001625789814 1.7386411836635853
