M[M_sun], R[km], Lambda[1], P_c[MeV/fm^3], rho_c[fm^-3]
0.23848912294887037 16.21570186450063 2784644.0411725277 3.4469561053153734 0.1694538074003404
0.24846650899697476 15.87305766436208 2285702.957658873 3.6324330056923295 0.17193066602007662
0.25873330031547986 15.569851614252892 1885030.2773314219 3.816756833471105 0.1742149054076775
0.26928839431057355 15.300525096435951 1561330.7936129007 4.012616613541544 0.17661618283847227
0.28012052516679353 15.060933518985044 1298471.2611865045 4.216537707211475 0.1790463259217729
0.29124747954769586 14.846767140654876 1083701.143287423 4.4231335511543906 0.18137505369222817
0.30265368619232114 14.65521783535266 907878.1568170463 4.644691524606171 0.18387243309587925
0.31433803319302195 14.48355760094541 762999.8148468983 4.86698245335385 0.18623795917943747
0.32631615435972855 14.329686340693302 643322.4205170064 5.100125336026335 0.18867207696301713
0.3385657762573658 14.191202652722943 544033.0997238809 5.347128583655665 0.19122733180430804
0.3511072396471641 14.06692682442442 461404.19262665074 5.592561175998647 0.1936035598897277
0.36392834883205677 13.955057061798342 392352.76204265177 5.8549829575566354 0.19614427382511462
0.3770233022622338 13.854290880146316 334514.3183922507 6.125286832104895 0.19866968428314055
0.39041009930226206 13.763470257434145 285869.7294510024 6.401076305124082 0.20112919345335178
0.40408637335598907 13.681806162355485 244860.8087552781 6.695706848843572 0.20375672856616586
0.4180301236726486 13.608206280536033 210201.31301282733 6.9922138357038035 0.20625793694734
0.432276618307865 13.542096519711055 180817.89299581537 7.301381636158813 0.20880691222836356
0.44679885524169044 13.482569825209563 155852.05701800637 7.631412377208668 0.21152789481347073
0.4616049546763137 13.42917498866931 134599.47681404202 7.9573211254078 0.21403579219712066
0.4766973847889835 13.381401691536443 116459.73766333365 8.303388775292696 0.21668941027270164
0.4920617872195207 13.338631547811081 100942.56146849191 8.667896278473028 0.21945471997366245
0.5077072426993439 13.300327433543085 87643.73711365432 9.031275305357042 0.22204952570525593
0.5236361924473549 13.266357613569182 76220.38920842175 9.418314073896378 0.22481328018929034
0.5398417696497102 13.236357148810496 66401.53998282012 9.819839028051042 0.22760724094581433
0.556320415652743 13.209663395209807 57927.00482234117 10.226050808538849 0.2302892841430832
0.5730888122864057 13.186198065210109 50607.11248655014 10.658477773150697 0.23314441502422126
0.5901119351500228 13.165769689846016 44281.23963854311 11.101703871258902 0.2359705320818295
0.607431801784487 13.148020726058107 38795.530536165075 11.555402496135637 0.23875714135225026
0.6250110810876871 13.132631285614977 34035.67718649902 12.038146933543004 0.24172214951133145
0.6428555839819062 13.119553457626813 29897.80802390796 12.527911186368726 0.2446068499977365
0.660965321801957 13.108502449827196 26297.338030709238 13.034586671996822 0.24751631029180704
0.6793399407410793 13.099257871025094 23158.57847865 13.57347765191768 0.2506107601978823
0.6979731323718549 13.091778595719756 20417.708112096687 14.114972645607216 0.2535678321607215
0.7168530927575661 13.085767263365506 18022.562083648707 14.680996822118791 0.25661167789122435
0.7359863036445371 13.081235621172091 15926.615970988607 15.282809495128083 0.2598479794686437
0.7553612528873169 13.077839076558424 14090.071141342818 15.881581447089316 0.2628607331110335
0.7749815012425286 13.075698443704045 12479.104461107154 16.513991721092562 0.2660236939670457
0.7948387508020497 13.07453736568044 11063.632166467689 17.18364803759721 0.2693619851871078
0.8149289871669227 13.074203387093167 9817.33545458068 17.849324651521062 0.2724838990255418
0.8352458119474954 13.07479380180754 8721.504186624728 18.55615352405831 0.27579881018874386
0.8557855688727064 13.076033397122972 7754.739835629219 19.297214076297664 0.2792352773903774
0.8765301955887297 13.077849685819006 6902.363589210882 20.042091172127392 0.28252476088314527
0.8974853856544115 13.080219367258769 6149.431555528058 20.832909926676646 0.286017129293216
0.9186374630266912 13.082938054348507 5483.596197215605 21.65301399122028 0.2895658325555112
0.9399754877568286 13.086101974041473 4894.2828886951875 22.487584119930844 0.2930436099153219
0.9615116711645559 13.0895434041145 4372.340675951591 23.373578438967183 0.29673567949421537
0.9831944106157406 13.093209665728436 3909.898972168926 24.281115746000154 0.300387171323398
1.0050593039962346 13.096904307989236 3498.9667444802812 25.217216210888026 0.3040453230017676
1.0270727273945566 13.100693349837195 3133.863033853097 26.211006308883693 0.3079289178201565
1.0492302373520987 13.104629147715961 2809.552346089566 27.216416385624356 0.3116980189686186
1.071551778800292 13.108428618337266 2520.4971431831937 28.267815591114104 0.31558808820066137
1.0939785639051018 13.11206240150347 2263.227096597663 29.38298678701269 0.3197108180627692
1.116518865966146 13.115613378515636 2033.9116813586606 30.498149132939062 0.32363032924464885
1.1391646483234144 13.118949122896836 1829.3281735126095 31.68134480597333 0.3277889602168568
1.1619073229062944 13.121999321267088 1646.5502603601126 32.91533522906123 0.3320636460194902
1.1847181053194524 13.124699537485599 1483.3285422305503 34.17273367814385 0.3362715419852331
1.2075998632947922 13.127024511385102 1337.27631228772 35.50716564835503 0.3407372313680272
1.2305141557903332 13.128871443841327 1206.584811153347 36.8732050947107 0.3451538392653291
1.253497420100857 13.130416684915867 1089.5363218830998 38.29379526216048 0.34965615124116367
1.276477035779916 13.131327972854244 984.538549424879 39.800478816412166 0.35442782865679456
1.2994861490714296 13.131700179661129 890.3566559234167 41.31634462335872 0.35902300263868453
1.3225175135293705 13.131774158141404 805.8717116339035 42.924899574238 0.36389915316919214
1.3454683553222435 13.130699631881017 729.8992882664489 44.59368637759933 0.36886635865621137
1.3684252279075857 13.129210469477389 661.5663836568872 46.3140260726259 0.3738664873000405
1.391324130522031 13.126977021574868 600.1358120927429 48.14043150390928 0.3791748936215398
1.4141458864940524 13.124085203495264 544.8142962858478 49.991499869277966 0.3843571784444513
1.4368891590943471 13.120314339081853 494.9817732790696 51.949450415174 0.38982279193132935
1.4595227535604771 13.115751850938281 450.0529192384313 53.98190401113434 0.3953822059050715
1.482035940579187 13.110280366097513 409.4934351708024 56.08599738343728 0.4010050898065749
1.504435434210945 13.104159386665028 372.92351248581053 58.31354520469185 0.4069436915754711
1.526644678397353 13.096768673549107 339.81871223880586 60.58025785797384 0.4127896186548096
1.5487167040807108 13.0886791976261 309.9171185342632 62.98740873566436 0.4189977405707346
1.5705718937453472 13.07950413871787 282.8638176730386 65.46474008201079 0.42523394569153944
1.592225031930421 13.069289548152396 258.35468900408506 68.06468243240606 0.43171761169792544
1.6136465603341374 13.058093468502982 236.17208318747902 70.77634118710533 0.4383831475042576
1.6348243634902244 13.04574434266301 216.05116308623897 73.59188601128272 0.4451789880924088
1.655721177815142 13.032349080889517 197.8088419428238 76.55685174003462 0.45228014306046865
1.6763284835558676 13.017864338741976 181.26563745441482 79.61339008398826 0.459409741327001
1.696651636344284 13.00218195513433 166.20247352779907 82.85394575276874 0.4669539012871929
1.7166271387735175 12.985317501863541 152.53151479297722 86.1803760188744 0.4744970920078276
1.7362528165612499 12.967202573715232 140.09634605427038 89.71729143042745 0.482517590072659
1.7555161371489898 12.94788810226258 128.7786946460266 93.35033927051225 0.49054486984305895
1.7743995858292207 12.927361734419478 118.47322286143928 97.21068925994352 0.4990680155505625
1.7928637410961648 12.905538603008806 109.0847099117304 101.18930900567048 0.5076379171652037
1.8108989632405839 12.882316347398802 100.51535822465051 105.41372344064862 0.5167220602725494
1.8284885747379644 12.857915037728564 92.70749546228602 109.77289567808337 0.5258566001458325
1.8456048524996744 12.832078849315442 85.57786215380925 114.40170241521709 0.5355372663618161
1.8622452861700591 12.804989038620668 79.06952093251148 119.18827530985294 0.5453327335415415
1.8783575533295165 12.776420568534807 73.11232277314758 124.25961793947162 0.5556715275611243
1.893967621577631 12.746462405526897 67.66372825405224 129.5355743631009 0.5662385678762215
1.909004557125764 12.715133018057957 62.68084987670749 135.10025992023722 0.5772945145325987
1.92346964983289 12.682318850709875 58.11824792593734 140.93078296218926 0.5887217484187326
1.9373922792386407 12.64818136965959 53.93643414999181 147.04801451461498 0.6005512662363098
1.9506562259348075 12.612392284712294 50.101097440372165 153.50817266046718 0.6129415049191768
1.963335382667934 12.575289772778225 46.58504959582215 160.2471666739857 0.6256477170724187
1.9753500303982505 12.536695475029253 43.36011916587695 167.3793210720677 0.6390107987662381
1.9867229543091418 12.496613385920586 40.39696536614423 174.8656537101831 0.6528558547033496
1.9974025440121295 12.454984631713902 37.673902580309324 182.7441882853048 0.66724864274098
2.0074084148279026 12.411943621789279 35.17030166579035 191.07998288952174 0.6823534495050784
2.0167016159821904 12.367355610260708 32.86710409408718 199.82731288531514 0.6979540201988496
2.025254175948328 12.32126566596134 30.748349705033704 209.06885882148381 0.7142795074547187
2.033080329333551 12.273673894404842 28.79859643933148 218.85180227543665 0.731417771242009
2.04018362855808 12.22462458145272 26.9997335367911 229.15535476291592 0.7492327604998222
2.0464427231810816 12.173959002486896 25.34698887599309 240.0037093235552 0.7677132925700644
2.0520059489017535 12.121977927216362 23.818598822567477 251.54262538203955 0.7872541628392801
2.056626824911317 12.068652958709526 22.424311760575797 263.8646006676363 0.8932927318233812
2.0596087800337695 12.015415189461645 21.222433489254776 277.25391668040595 1.0887400503819311
2.060536583111186 11.961186574945936 20.20679886712374 291.85504953800427 1.2899057406346486
