M[M_sun], R[km], Lambda[1], P_c[MeV/fm^3], rho_c[fm^-3]
0.23848912294887037 16.21570186450063 2784644.0411725277 3.4469561053153734 0.1694538074003404
0.2484852666478173 15.872451229006465 2285014.0080957413 3.6327919820492935 0.17193545979052577
0.25877403442780816 15.568656974811448 1883631.4092629252 3.8174618056717193 0.17422354849833177
0.26934877079957137 15.29910238869486 1559663.4450294685 4.013752644219583 0.17663011078645058
0.2802038543499615 15.059153445954173 1296600.9066638197 4.218026779588965 0.17906311059726052
0.2913530401665678 14.844807322689084 1081881.5279800682 4.425128783208246 0.18139754374916076
0.30278181297419293 14.653049177894081 905973.0339302613 4.647260712711338 0.18390139272824088
0.31449247133966396 14.481505017836454 761300.9477120171 4.8699252720803905 0.18626868354603196
0.32649812495739144 14.32745598272901 641671.5295671388 5.103726731556091 0.18870967717111356
0.3387776938171897 14.189194993141253 542563.0208334926 5.351115937534672 0.19126593654780746
0.351343452224675 14.064677454167514 459984.97163091257 5.597296247785673 0.19364940388485238
0.36419340832028163 13.95280746505643 391009.9958180311 5.860555189739179 0.1961982230357074
0.37732328811240284 13.852089360388366 333317.8847096384 6.131264451175679 0.19872299309424082
0.3907416888055552 13.76138215707858 284776.2708244405 6.40799161817492 0.20119086468277625
0.40444612476808145 13.679735176298658 243880.8685389953 6.703667265005358 0.2038277200958072
0.418426845270249 13.606280440271304 209312.7519340264 7.000594890482365 0.20632703567440025
0.43270243716983553 13.540205505255347 180016.3427462497 7.31092086832782 0.20888555970382175
0.4472646768750812 13.4807734560828 155130.4748980212 7.642237648686384 0.21161714521201308
0.46210383095420743 13.427533898411168 133945.43549491614 7.968584588031024 0.214122159495597
0.4772281613338665 13.379733045578655 115865.17173454088 8.316066400772078 0.2167866212548282
0.49263833515521704 13.337118650698393 100408.19474585542 8.681048425563597 0.21954863641938033
0.5083286469082764 13.299070353945668 87167.55212808053 9.045978699889366 0.22215451925079296
0.5242933769542539 13.265065480145198 75785.10578395941 9.434729125581756 0.22493049628335846
0.5405402116720374 13.235134585020914 66012.52955257901 9.836754126997779 0.22771892413236974
0.5570659845771824 13.208553937078296 57578.8805310209 10.2448335317571 0.23041329845643765
0.5738817872095087 13.185419591966182 50293.65239046054 10.679316563215032 0.2332820046703518
0.5909513085008611 13.164892724382689 43997.211723250424 11.123069209080205 0.23610175762489718
0.6083016031790485 13.14714155366824 38540.640814850536 11.579001485952665 0.2389020859480479
0.6259373413388546 13.131925702881478 33803.5128125142 12.064200126256402 0.24188216777975566
0.643824072191644 13.118888464154674 29691.872504028262 12.554534097080527 0.2447597255637066
0.6619837789829454 13.107881505324313 26109.827715998017 13.063868350525413 0.24768445318294585
0.6804085656558376 13.098739833880156 22989.297247474577 13.605675717610735 0.25079564973040763
0.6990876064149446 13.09127305713818 20265.264758589954 14.14780139453473 0.25374437169985675
0.7180279220539382 13.085447766216761 17885.200380926086 14.716979476022036 0.2568051778369874
0.7372100627816476 13.080972562526046 15802.903800606293 15.322246703153212 0.260060056588759
0.7566327101306575 13.077677914165395 13978.569178333812 15.921711069293371 0.26306143893352824
0.7763088215598761 13.075579585286945 12377.603847867436 16.5578506558474 0.26624305171551776
0.7962165556480776 13.074500779831336 10972.045385849815 17.228329143012903 0.26957153222300495
0.8163626750721455 13.074267732566584 9735.508212410148 17.89803400426576 0.27271233787890403
0.8367338782490907 13.074844614846791 8647.024064633948 18.609261609244285 0.2760478783738157
0.8573281884883973 13.076131800000052 7687.789455192031 19.35127737256753 0.27947402861744564
0.8781227883713706 13.077967367004154 6841.364438466969 20.100904514565343 0.2827844889915638
0.8991319837181897 13.080362214629535 6094.340817461871 20.896905542360855 0.28629974305940814
0.9203410171330287 13.08318615908141 5433.627148359195 21.718142651114277 0.2898372333294691
0.9417386148305036 13.086370441174925 4849.273387666111 22.558310725907432 0.29333833815988736
0.9633192760820296 13.089889014956992 4331.4122145297815 23.450407948198887 0.29705583944073083
0.9850602005386275 13.093503467812477 3872.6056651940385 24.359276914762248 0.30069261440500633
1.006982098933517 13.097294328630312 3465.109675328703 25.301970676131496 0.304376531777865
1.0290546279275008 13.101142166191202 3103.3565984071424 26.302944624803015 0.30828820009519203
1.0512757536288024 13.104976531810939 2781.51620465131 27.30994214563043 0.3120440546889267
1.0736507653965763 13.108966441216081 2495.373830918936 28.36910651987885 0.3159628542490048
1.0961106238189295 13.112392232614386 2240.1833517608306 29.486275559680074 0.32007385175101316
1.1187081045116307 13.115954490923556 2013.1142452345248 30.609852948603532 0.3240229396624547
1.1414199162466578 13.119285486003445 1810.271997350586 31.802202935591993 0.3282137457130599
1.1641912960978806 13.122273304556902 1629.3575355330781 33.038655804931416 0.3324763395090327
1.1870532094499477 13.124880883512978 1467.5710176004752 34.305991063020464 0.3367174891013894
1.2099856259691222 13.127202034035875 1322.906365156986 35.65123093225608 0.34121934722189445
1.2329469983212842 13.129058450634613 1193.5725907009305 37.02027459859079 0.3456199503252051
1.2559680487976508 13.130455597693771 1077.583266989292 38.45261333930371 0.3501594973483556
1.2790190778379695 13.13139943672826 973.6661769542118 39.962967119280385 0.3549203933800569
1.302053815236719 13.131728605591537 880.4966516197615 41.491636525510465 0.35955438001015927
1.3251123061272132 13.131467809648319 796.7534341796566 43.114105983640904 0.3644727107794442
1.3481280455822218 13.130565649191809 721.6227916254052 44.78746009475177 0.36942955760834634
1.3711227745595838 13.129001761493765 654.0332697540033 46.52299958680695 0.37447386412049
1.3940531930087972 13.126777622179208 593.2455246492406 48.36131487522889 0.3798065215812038
1.416910693111348 13.123695354925019 538.5130767390938 50.2226888186708 0.3850025417517458
1.4396790621688729 13.119815853570719 489.20258772189356 52.19873323503776 0.390518664227568
1.4623391562167498 13.115107635096493 444.7627594280375 54.238042492582935 0.39606669879063033
1.4848979502120858 13.10964430696727 404.6463070033123 56.3620078760398 0.4017426877553779
1.5072977029907162 13.103161459108758 368.45382513697564 58.59776111736239 0.40767669383663285
1.529536764729408 13.095747240045519 335.7431429607697 60.886362546920175 0.4135790727956478
1.5516247472173699 13.087479838544667 306.1614083700848 63.31729563851197 0.41984852982965704
1.5734993090930725 13.078174880101125 279.407921998422 65.80484840744323 0.4260820986468386
1.595153529909525 13.067776037445983 255.19743987931346 68.43106501968323 0.43263128669771905
1.6165859076358 13.056489628242122 233.2813519084486 71.1549163188708 0.4392969089276326
1.6377598690949466 13.043975407861078 213.400566030665 73.9995825525926 0.446163039448754
1.6586872809935318 13.030498394883478 195.3651050638713 76.97896028102606 0.4532647419705705
1.6792781908806993 13.015686351765053 178.99077313347925 80.0678731816237 0.4604698562480128
1.6995703581167676 12.999760141509203 164.13194254325094 83.3254249607087 0.468023052690288
1.7195300485120264 12.982687632417724 150.63293721537133 86.68795725435075 0.4756481102944355
1.73914650798116 12.964380778074052 138.3363499241828 90.24842538638488 0.48369625143308914
1.7583926238449568 12.944849311785655 127.15690967633823 93.91835385725705 0.4917989714400819
1.7772550531657159 12.924111236081071 116.98017178166613 97.8105317801326 0.5003722247675814
1.7956810663334943 12.901977530385555 107.70432399591024 101.82621062435084 0.5090075047230642
1.813681726030061 12.878574111654622 99.24839714561921 106.0834818187013 0.5181335829926897
1.8312287234099744 12.853897614234564 91.53645260424395 110.48842145790874 0.5273544038842379
1.8483129090425545 12.827813147701546 84.49322455477778 115.1495449095803 0.5370676863032627
1.8648884080792303 12.800412686684512 78.06215947278663 119.99375017155292 0.5469810950614753
1.8809525194275143 12.771531324506403 72.18081364070345 125.10297693187687 0.5573606636640938
1.8964871880484804 12.741336647954375 66.80941919044972 130.44423200348163 0.568058488502465
1.9114712423481226 12.709698526246953 61.88496299410406 136.01865189668575 0.5790478148696241
1.9258761952932997 12.6766001105975 57.378905127786425 141.853814356361 0.5903933502675184
1.9397057132984883 12.64207887517221 53.25432632995299 148.07505617087935 0.6024895549084783
1.9517103490301826 12.607756248119045 49.74015181604125 154.93979702143517 1.031911291484164
1.9533014854660313 12.576705762263677 48.260079886086935 164.3877135335754 1.927999644502
