M[M_sun], R[km], Lambda[1], P_c[MeV/fm^3], rho_c[fm^-3]
0.23848912294887037 16.21570186450063 2784644.0411725277 3.4469561053153734 0.1694538074003404
0.24847826069642384 15.8726794278143 2285265.5759557933 3.6326485488396894 0.1719335443833735
0.2587570544348579 15.569157250012722 1884258.9751306593 3.817180115106382 0.17422009491946647
0.26932521117998354 15.29967790027072 1560239.378115073 4.013298693781105 0.17662454526941476
0.2801723772214489 15.059753144513333 1297237.6567460345 4.217431736303426 0.17905640332862816
0.29131227536985005 14.845507066567874 1061818.028976094 4.424331442071461 0.1813885561993034
0.3027276231597134 14.653959775415826 906776.5439921833 4.646233961553986 0.18388981929148707
0.3144292877027539 14.482436301050381 762056.4248515065 4.86874917069246 0.1862564045123731
0.32642604491022675 14.328299054287204 642288.6859969991 5.1022873678865786 0.1886946495594411
0.3386905119471248 14.189885408314531 543064.5443018876 5.349522280396335 0.19125050708583383
0.35124891522381957 14.065627102984758 460542.12338973046 5.595403664183941 0.1936310802780913
0.36408548874004976 13.95377182586052 391583.5918153911 5.858327900440574 0.19617665887694927
0.3772061704932877 13.85291174939951 333789.30268368596 6.128875077617244 0.1987016844992691
0.39061057174027936 13.76220428701719 285193.971755583 6.405227309707257 0.20116621239292964
0.4043015441157729 13.68058758605059 244248.8493872852 6.70048504790294 0.20379934086849547
0.418270445371808 13.607067244630722 209658.4583395122 6.99724447071799 0.20629941269054528
0.43253488740765833 13.540848380009272 180316.24581647728 7.307107284961852 0.20885411810570684
0.4470764563166849 13.481502021422022 155421.92060720845 7.637909736475197 0.21158146316094398
0.46190512484434987 13.428192693554474 134199.35574335468 7.964081438011444 0.21408762971422915
0.47701524928339084 13.380447168846555 116107.70537902514 8.3109976359906 0.21674775438631427
0.4924065091651252 13.33771498876332 100625.03288864747 8.675789889127001 0.21951108642481273
0.5080783592555974 13.299596837873896 87357.24444440076 9.04009967245112 0.22211253847324572
0.5240324321655943 13.265569069969878 75955.7819483229 9.428165401583325 0.22488362624576225
0.5402566737006206 13.235530832506422 66162.94188010019 9.829990413653121 0.22767426621687914
0.5567671842639389 13.208979566887539 57715.22876210263 10.237322677997666 0.23036370749133325
0.57355847620667 13.185672785438964 50421.291412844745 10.670983131443268 0.23322698257333993
0.590616386213898 13.165248732097163 44111.10981832941 11.114525186136149 0.23604928038067133
0.6079569226725954 13.147521926347002 38641.097437149925 11.569563776444577 0.2388441196960807
0.6255658114977357 13.132222719640174 33896.50630311818 12.053780425569446 0.24181817015459828
0.6434375060387664 13.119100330231282 29772.91756077738 12.543886539931497 0.24469858456590296
0.6615794298947376 13.108104000614873 25978.24622046272 13.052156879952701 0.24761720292201359
0.67998110152273 13.098908816113983 23055.702686608667 13.592797172004609 0.25072169782598513
0.6986420702368816 13.091523963055243 20325.46063468986 14.134670612581383 0.2536737597432559
0.7175590856890347 13.08558353834572 17940.13426155332 14.702586488296873 0.2567277782557426
0.7367211001912285 13.081056680461174 15851.67305882069 15.30647109916069 0.25997522186464056
0.7561234668753108 13.077816759645183 14023.78055243925 15.905658551198847 0.26298115325750343
0.7757728867000818 13.075634792414942 12418.692277348247 16.540305461422168 0.26615530051118197
0.7956683242208054 13.074497758200758 11007.830852541336 17.210455131927855 0.26948770605067507
0.815787231479682 13.074241813335693 9768.237200496596 17.87854756746385 0.2726209496951506
0.8361374577897301 13.074786453359575 8676.21925662486 18.588014333878103 0.27594823214679315
0.8567059083058445 13.076041925192165 7714.686723345155 19.32964806996191 0.2793785105322748
0.877485525664905 13.077948181374815 6866.142023865997 20.07737362450793 0.28268057322499324
0.8984812421369275 13.080360752911913 6116.1729604672055 20.871299893169244 0.2861866648605899
0.9196589181086546 13.083086889811353 5453.52105513208 21.69208383766718 0.28972864239347446
0.9410351382873521 13.086307709497467 4867.4107710434355 22.530010599213334 0.29322040733956367
0.9625939343087121 13.089732659314723 4347.840521341858 23.41966416709566 0.2969277255504806
0.9843129658689453 13.093412131272064 3887.643248299658 24.328000520886807 0.3005703905657494
1.0062123718248466 13.097161849395 3478.798419084323 25.268054109396136 0.30424399050672873
1.0282740108479071 13.100920455576484 3115.2436106084933 26.2661512088383 0.3081444164935245
1.0504792478177831 13.104981990754288 2792.730458435281 27.272513785208666 0.31190557359390375
1.0728010166719006 13.108607141380563 2492.522906670072 28.328568324666254 0.3158128670841908
1.0952788746468136 13.112503853966096 2249.4898686955903 29.444938137874995 0.3199285612580307
1.1178314226619808 13.115738610621905 2021.3169587043528 30.565145216535 0.3238658033886205
1.1405144303054353 13.119088173678369 1817.8504161918615 31.75382854824966 0.3280437220812565
1.16327368844911 13.122158483213886 1636.2731879474031 32.98929621510948 0.33231115716843573
1.186120271058709 13.124893245121582 1473.8865249542516 34.25265114325028 0.3365389865484574
1.20903816159086 13.127168172180312 1328.6053560638 35.59356144129222 0.3410263557174511
1.2319784194386774 13.129059294790583 1198.792556613699 36.961403015367345 0.3454333671429076
1.2549785284135497 13.130470973394283 1082.34247929923 38.389035047449596 0.34995799707658354
1.2780050738592021 13.131388542958744 978.0373775828009 39.89792003106657 0.354723210564805
1.3010282158235618 13.13172936210301 884.4407051818994 41.421459718068 0.35934164703721805
1.324068178323208 13.131536526138929 800.4154458630059 43.038353958998364 0.3642430771726185
1.3470627929203416 13.130594864204856 724.9276600156417 44.709879982831374 0.36920407275734507
1.3700363485666944 13.129111059705409 657.0528270991056 46.43932884283304 0.37423067698436574
1.3929553249204825 13.126895863825307 596.0183900635404 48.27541820446731 0.3795667412643942
1.4157949992623216 13.12383481039243 541.043283809931 50.13011791534663 0.3847441303333565
1.4385608184284102 13.120039007694958 491.5169670820857 52.098910938115495 0.39024001056417845
1.4612174262904456 13.115458564463339 446.8872872854366 54.13547533440515 0.39579260295908003
1.4837555288885222 13.109870163903189 406.5772149100619 56.251476097274654 0.4014473076322312
1.506138509106219 13.10349052042643 370.23882776841896 58.4839436106038 0.40738315471340103
1.5283850703239026 13.096157445825257 337.3613766193482 60.76377140973468 0.41326290618867983
1.5504558016198677 13.08795319380625 307.6601430648919 63.18517115982208 0.4195077764188979
1.572324443094051 13.07869853500855 280.7918343727625 65.6686301671923 0.42574240127869106
1.5939948761796237 13.068410970316378 256.45507436690986 68.28431358830525 0.4322653219420508
1.6154218343404931 13.057126056440872 234.42752769043648 70.9958412753235 0.43889693263208646
1.6365908168489107 13.04466548899911 214.4557413502114 73.8137092474096 0.44566675355214874
1.6575015128301684 13.031216803995648 196.3356777807302 76.8086236157583 0.45286192172379025
1.676526406156632 13.016331261781552 180.917152072562 80.07828541962711 0.6258737916428894
1.6900589163118034 12.997402609816525 169.68017477002854 83.6358369059013 0.8529707033740911
1.6987900695967555 12.972187500017627 161.2446858952055 87.81414527446555 1.059460598935992
1.7035764492085927 12.940659328991575 154.72658459393736 92.30705707654849 1.279913770132058
1.7050360310723431 12.902547308761509 149.56388303879868 97.46344721819338 1.4675656551975549
