M[M_sun], R[km], Lambda[1], P_c[MeV/fm^3], rho_c[fm^-3]
0.23848912294887037 16.21570186450063 2784644.0411725277 3.4469561053153734 0.1694538074003404
0.24847479373597428 15.872889923242973 2285404.02984838 3.632613242230045 0.17193307289889076
0.2587535250281664 15.569303864581277 1884227.0411031386 3.817110778118947 0.17421924483506943
0.2693192837906382 15.299716855471068 1560267.7375670427 4.01318695958185 0.17662317538729386
0.2801638012556415 15.059965478945053 1297478.4667310864 4.217285277891203 0.17905475246399674
0.2912989029546915 14.845900643223917 1082913.8639248305 4.424135198698523 0.18138634416355476
0.30271448488463 14.654160484632698 906953.6622959076 4.6459812642247185 0.18388697091236697
0.3144160958069631 14.482574435310067 762175.4950293944 4.868459722861911 0.1862533825453129
0.3264065402334328 14.328553274586406 642557.9304098812 5.101933141623599 0.18869095127606977
0.3386689823319279 14.190170621649143 543306.334494692 5.34913009042008 0.1912467099828187
0.35122172949543556 14.065970632527947 460738.10375828366 5.594937926465463 0.19362657110090126
0.3640620904949272 13.95388472896218 391677.50244844076 5.857779816253463 0.1961713524381175
0.37717457903657836 13.8531454850962 333899.58186341915 6.128287117681998 0.1986964410328067
0.3905795778229692 13.76235223045932 285305.3660914819 6.4045471129575935 0.20116014635231894
0.4042668381577088 13.6807765835461 244351.6606779895 6.699702047871511 0.20379235802126602
0.4182305052049619 13.607248306669764 209756.3708737238 6.996420093855356 0.20629261600524362
0.43249268619190256 13.541102468164029 180410.50956349363 7.306168980423861 0.20884638212844822
0.4470312984452263 13.481612476949513 155483.97403053552 7.6368449253798145 0.21157268418345312
0.46185511815840147 13.42839362537301 134273.33159381084 7.962973522818212 0.2140791343122927
0.4769643208002603 13.380557003650004 116159.00624789657 8.309750608952108 0.2167381922862706
0.4923507541558754 13.337941894726672 100678.48154334094 8.674496184023546 0.21950184837536826
0.5080184187188386 13.299742143526993 87406.47105318111 9.038653368453916 0.22210221075033404
0.5239658347516419 13.265728877796553 76002.49743267053 9.426550717136992 0.22487209615694015
0.540185184774427 13.23568263873497 66205.83973098104 9.82832653982508 0.22766328036738886
0.5566925666575144 13.209138418486498 57751.828527421516 10.235475078552659 0.23035150857992598
0.5734806661443675 13.185734019822426 50453.470301991154 10.668933266391658 0.23321344818836864
0.5905340471873685 13.165342210188713 44139.53132594461 11.112423524731538 0.23603637201191668
0.6078696037244988 13.147607303322273 38666.74704088055 11.5672423769304 0.23882986169957848
0.6254747128651165 13.132293475194844 33919.23872060227 12.051217588411557 0.2418024292521772
0.6433301584845983 13.119137827937683 29794.617539610055 12.541267659799407 0.24468354628602684
0.661480928497345 13.108073156303092 26201.063033408533 13.049276434715612 0.2476006626683714
0.6798768012256158 13.098975099349643 22895.829850263402 13.589629814401109 0.25070351004811564
0.6985312313073407 13.091566309596777 20341.724001445837 14.131441214996276 0.2536563933683563
0.7174438293088343 13.085618699376635 17953.73551810457 14.699046808107886 0.2567087433083363
0.7365985795558682 13.081111176243773 15865.319182118537 15.30259155464471 0.2599543592663607
0.7559953889488917 13.077744921519475 14034.21355384253 15.90171089472025 0.26296140929788087
0.7756417193076475 13.075582918610198 12427.584491522888 16.535990905573087 0.2661337215270593
0.7955312321158099 13.074498956219314 11016.710103080679 17.206059699721685 0.2694670921965253
0.815647877530939 13.074236646782479 9776.60959069037 17.873755821789196 0.27259847719601354
0.8359945219629962 13.074787241442262 8683.590777347898 18.582789820288838 0.27592373003731197
0.8565530038103404 13.076069239058205 7721.189519240506 19.324329592805164 0.27935502337860646
0.8773307607997575 13.077939864506867 6871.7362906202425 20.071587810730016 0.28265502224615224
0.8983191498662623 13.080355471697944 6121.818094106396 20.86500421207087 0.2861588622349423
0.9194886237831897 13.083122545711362 5458.877180432318 21.685676699055247 0.28970194289772305
0.9408599880282754 13.086248059249277 4871.713550390088 22.52305269088813 0.29319141270482585
0.9624159472629464 13.08973077045179 4351.804016931406 23.412105800543646 0.2968962287173596
0.9841281155731579 13.093320463476507 3891.113165348899 24.320311158546637 0.3005403415968563
1.0060310673765016 13.097140825748047 3481.9692977241657 25.25971603288654 0.30421140645221534
1.0280698527762664 13.100823298206436 3118.2543962873806 26.257106305302564 0.3081090702563512
1.050260196039705 13.104698251473769 2795.2963541992303 27.26331272311587 0.31187153060779305
1.0726165281063846 13.10874328399436 2507.7876593401193 28.318603231121294 0.31577599726006383
1.0950498438399328 13.112294129801423 2251.69273841604 29.434776508859418 0.31989284572414617
1.1176217728265976 13.115817987232605 2023.3775776556656 30.554155604842332 0.32382717770683406
1.1402937314847015 13.119065485892909 1819.6717905917756 31.741938203927084 0.32800193055404164
1.1630458408283866 13.122101442288164 1637.9490103083563 32.97716362586506 0.3322705553422025
1.1858913684153887 13.124794457017318 1475.4064069366536 34.239540817732376 0.3364951127184104
1.2088024370665564 13.127151339846245 1330.0093803917855 35.579387655267745 0.34097892300662247
1.2317356028070177 13.129010006864542 1200.0485837471138 36.946933681587254 0.34538750912118316
1.2547338826117609 13.130506038772436 1083.5946964537527 38.37340968121204 0.34990847521225554
1.2777704821998879 13.131465981731226 979.0755017007122 39.88193358824789 0.35467474949010647
1.3007808637575544 13.131737348963819 885.4096333290005 41.40421341634935 0.35928936684422325
1.323803844785828 13.131474381075572 801.2667861407921 43.01973846915108 0.36418664644226334
1.3468003165321991 13.130616230304874 725.7382168269204 44.690815149666626 0.3691486612484015
1.3697807192346603 13.12910323506809 657.7728236589587 46.41876833124082 0.3741709183197013
1.3926950793322064 13.126826590037322 596.6267727687848 48.25344892224693 0.3795033762068777
1.4155370823178761 13.123850864508084 541.6300586288049 50.10737144757858 0.38468063363203664
1.4382791407345712 13.119983308579464 492.06214716391116 52.074383966506836 0.3901715435913545
1.4609376240320873 13.115427003921322 447.37820259869903 54.11027385019362 0.3957252556532369
1.4834704125916172 13.109916662764462 407.04416796073144 56.22431910844023 0.4013747345243357
1.5058615430405897 13.103626882153632 370.680844003972 58.45381714593767 0.40729956079176227
1.528109137614846 13.096300017296624 337.7387808255761 60.71441184441029 0.41308411948380286
1.550173198084655 13.088041056195056 308.0224439966031 63.11465267159622 0.4192260138929466
1.5720485879973098 13.078829684080466 281.1271329077556 65.66739620843903 0.4349925832960284
1.5911933855174687 13.06766495800759 259.07993946050016 68.41919206177363 0.61021081497807
1.6056606014083246 13.051412944547048 242.26333356401253 71.46146593761198 0.775385343995862
1.616625463161728 13.029291906245922 228.6354185256519 74.84207680342092 0.9269891236823032
1.6245248018372973 13.001380124317157 217.39431395580323 78.49806599095604 1.0794445654248952
1.630023085839099 12.96758867926189 207.67228257463267 82.53907544961115 1.211085925999424
1.633585652734973 12.928515358300134 199.07345345806684 86.88350122670246 1.3489820998672548
1.6355382801841303 12.884128474036967 191.24506057233006 91.56184064363296 1.463687078921402
1.6362834396103418 12.835074192978722 183.91200496057138 96.59960818364337 1.5865040044228202
