M[M_sun], R[km], Lambda[1], P_c[MeV/fm^3], rho_c[fm^-3]
0.23848912294887037 16.21570186450063 2784644.0411725277 3.4469561053153734 0.1694538074003404
0.24846679929260218 15.872993176448057 2285759.439224998 3.632448565706024 0.17193087380850722
0.2587348660546218 15.569806650215 1884984.4425702519 3.816787389008649 0.17421528002426628
0.2692913903403409 15.300365839951032 1561101.4802054344 4.012665849137887 0.1766167864760657
0.280127529312294 15.060657138197547 1298230.0855203408 4.216602240240592 0.17904705333164786
0.29125198930607155 14.846681797695384 1083688.1567598095 4.423220014286453 0.18137602829603872
0.3026589178764192 14.655095280954763 907718.7421737792 4.644802852477884 0.183873687972558
0.3143419655616984 14.483620736737185 763023.8101615917 4.867109965767403 0.18623929046705773
0.32632291596865115 14.329604637640623 643228.5205844238 5.100281374017325 0.18867370607064604
0.3385749288380957 14.191147460354843 543955.2083332585 5.347301337508438 0.19122900437172421
0.3511148541533316 14.06693670275395 461366.78869661374 5.592766311209146 0.19360554596681648
0.36393967645717484 13.955018264594429 392301.8026260764 5.855224343896598 0.19614661087821333
0.37703889757498565 13.854203966659512 334459.06249236315 6.125545771629468 0.19867199352333106
0.39042573797906394 13.763351273869834 285807.94016649143 6.401375843121578 0.20113186475346922
0.4040999403096254 13.681746744661956 244811.89490915244 6.696051631146666 0.20375980335806024
0.41804887444797306 13.608110799214385 210165.33456741922 6.992576828073112 0.2062609296864778
0.4322940446739715 13.541948039563392 180777.16809438012 7.301794761175582 0.20881031829281843
0.446816184972189 13.482512964383668 155827.64256174414 7.631881163898599 0.21153175978803454
0.46162454099488487 13.428978472765406 134565.45971699903 7.957808879218977 0.21403953225294559
0.47671529168809457 13.381320108340729 116426.31488571047 8.30393772835846 0.2166936195993418
0.4920868525306584 13.338550853666755 100919.60332460755 8.668465770386574 0.21945878658392898
0.5077310589890435 13.3002843190902 87623.83527137223 9.031911920830144 0.2220540716293633
0.5236628215216639 13.266329422786221 76204.210982815 9.419024746634575 0.22481835493922891
0.5398730234762112 13.236370888838357 66387.16504040548 9.820571342845902 0.22761207610818077
0.5563527243280454 13.209592913271448 57912.4279528532 10.226863919429114 0.23029465276761998
0.5731193739271376 13.18620993439437 50594.883264488206 10.65937982355963 0.23315037087848028
0.5901486180013558 13.16573703701433 44269.8852458135 11.102628710116843 0.23597621242643244
0.6074727224254866 13.14802777945899 38783.83495994383 11.55642394573565 0.23876341507839488
0.6250493763342928 13.132632277494185 34025.84174365541 12.039274522544467 0.24172907514388225
0.6428961204696696 13.119474845936903 29888.216599414576 12.529063432273787 0.24461346648857704
0.6610126538725636 13.108428345529045 26287.499673462644 13.035853892180164 0.2475235869943748
0.6793847457257364 13.099089892074657 23148.57409816461 13.574870973876378 0.25061876100911296
0.6980192482715147 13.091735865706225 20410.48835436288 14.116393263497375 0.2535754716607271
0.716904236904224 13.085732307091682 18015.775272327875 14.682553797813457 0.25662005066754273
0.7360350677414406 13.081200661877606 15921.471682834132 15.28451581164218 0.2598571553386009
0.7554144272209079 13.077836320389066 14085.108034451212 15.88331773314617 0.2628694170383168
0.7750399442631134 13.075673664214893 12474.248835443675 16.515889209690403 0.2660331841388636
0.7949006591516508 13.074495837211972 11058.634346317558 17.18558111028367 0.26937105098008346
0.8149901792021409 13.07425929275916 9814.30558418565 17.851431831338623 0.27249378135232766
0.835310626396676 13.074762256440117 8718.01539200504 18.55845080409492 0.2758095840542921
0.8558542333457908 13.076049510924694 7752.024963296246 19.299552698022662 0.2792456050774593
0.8766121370476678 13.078028380663888 6900.358697285022 20.044635056828973 0.28253599504080723
0.8975558603110767 13.080155589675876 6146.778569181691 20.83567772831126 0.28602935229999027
0.9187097797754875 13.082953263149934 5481.398862156545 21.6558308287005 0.28957757073457846
0.940053579225853 13.086167635386355 4892.692873734478 22.490642811294965 0.2930563559353517
0.9615824963774449 13.089633989370162 4370.708473334892 23.376900771842962 0.2967495241474801
0.9832845157149377 13.093177839477189 3908.0429907543853 24.284495708356946 0.3004003797507325
1.0051456768646811 13.096972691383515 3497.304046560274 25.22088097171662 0.3040596443823019
1.0271577544830799 13.100739878201388 3132.5653955512544 26.214981342967665 0.30794445170583573
1.0493232039470668 13.104587836371 2808.213829840917 27.220460113856905 0.3117129803483667
1.0716379817763353 13.108379143784408 2519.322366034285 28.2721946671209 0.315604290332782
1.0940664429663485 13.112091135599943 2262.1974548270928 29.387452294015276 0.31972651318078793
1.1166127555783898 13.115637706594544 2033.027311336982 30.50297801702463 0.3236473015404213
1.1392605583943545 13.118942148587298 1828.4442597085192 31.686568945526655 0.3278073217347736
1.1620010373275718 13.121999286670826 1645.834560509803 32.920665879595035 0.33208148509261165
1.1848092000784671 13.124658876603196 1482.613831434542 34.17849332593838 0.33629081670180083
1.2077026098251278 13.127046282404937 1336.636251778544 35.513391846535306 0.3407580673999341
1.2306215132769003 13.128940456946468 1206.0401272125807 36.879561215230595 0.34517398387718995
1.25359643915963 13.130347315576955 1088.9908281495068 38.300658486325716 0.34967790302930074
1.2765890357330019 13.131354200722846 984.1219791117757 39.80750072882644 0.3544491147819128
1.299596176004333 13.131763666761932 889.9871362820014 41.323919117842266 0.3590459638532045
1.3226360210780888 13.131759034971552 805.4941814743643 42.933074524034105 0.3639239345953805
1.3455829781877993 13.130613226949109 729.5153879671896 44.602058753241096 0.36889069277777137
1.368543256448723 13.129184400265677 661.2395227589585 46.32305429401842 0.3738927276225292
1.3914411480951492 13.12704702312695 599.8620981157682 48.15017252740483 0.3792032056873144
1.41426871596167 13.124051964414297 544.5315525589674 50.001486937851844 0.38438505731851486
1.4370022481381595 13.120284673848591 494.73803573696387 51.960218015888486 0.38985284965868605
1.4596517005744054 13.115831490679028 449.848626359944 53.99296780743722 0.39541177229358826
1.4821563942175375 13.110321336285411 409.31382797017636 56.09791831219884 0.4010369467570823
1.5045467473662486 13.10398687819565 372.7086305170005 58.32582056681525 0.4069753501413427
1.5267776663165586 13.09680205849803 339.6585309168391 60.593477220754835 0.4128237118296728
1.548830394126057 13.08859955202896 309.7459429546321 63.001653625425966 0.4190344786136793
1.570701544431644 13.079461430694542 282.7077991141466 65.47942635587499 0.42527056992461115
1.592357713539222 13.069256507419205 258.23009602314886 68.08050154174353 0.43175706096550137
1.6137807091229364 13.058023862525745 236.06836171318918 70.79268667733591 0.4384226003820766
1.6349393798478977 13.045688261309316 215.95064200059906 73.60948691708546 0.44522147114897936
1.6558462692204652 13.03228959151125 197.7033936773442 76.57507471219365 0.4523226494700392
1.6764511822631658 13.017709028088696 181.15776625237214 79.63300850867654 0.4594555027312138
1.6967757768064866 13.002058357594052 166.1128714475752 82.8742976233304 0.4670000522745539
1.716749099913651 12.985153769174179 152.45167800452387 86.20228376928868 0.4745467711913412
1.7363745918292566 12.96709497445188 140.02118204304378 89.74089046737521 0.48257110450773794
1.7556468528368694 12.947798235812103 128.70545249785118 93.37485216983387 0.4905989911049144
1.7745258587222414 12.927194981441406 118.40827621656153 97.23709434146649 0.4991263145021744
1.792982388610783 12.9053273214192 109.02520030976375 101.21679095562439 0.5076970141051684
1.811018479209805 12.882216767922234 100.46993301030146 105.44332926695552 0.5167857243772728
1.828600918608054 12.857755054574508 92.65916271513797 109.80376573638958 0.5259212201637823
1.8457184228292474 12.831894496749156 85.53134966323425 114.43396581046245 0.5356032916864458
1.862350843051423 12.804731520892835 79.0170898456838 119.2230207561303 0.5454038382517687
1.87846802211309 12.77616925992839 73.07197653842381 124.29599637494618 0.5557443887380168
1.894069494677842 12.746278419199752 67.63244279486541 129.5747644684209 0.5663170604545558
1.9091100019936298 12.714855886302447 62.645605347190624 135.14136231105473 0.5773750710503882
1.923597147545502 12.682114105462986 58.08507026109643 140.97508072068356 0.5888085675331248
1.937483784711802 12.647857818469008 53.905610419045736 147.0945505063966 0.6006405197859134
1.9507577174412116 12.612173901190857 50.076889479769996 153.55835173036047 0.6130377456982452
1.9634202748034502 12.5749969245208 46.561753432612136 160.29996891669114 0.6257471232704394
1.9754406340031405 12.536384254323702 43.33697309929845 167.43498693831754 0.6391137459727372
1.9867947238856842 12.49625958295148 40.37564127166463 174.92570268230352 0.6529669079276935
1.9974885971659406 12.45468393743542 37.654451072871424 182.80759538301734 0.6673637740444804
2.007487727218746 12.411597403844075 35.15201452620518 191.4878643694793 0.6830826871922939
2.016578414176139 12.367452851664133 32.88330020826385 203.25151392366075 0.7040617838943392
2.0252194968461286 12.320690842245835 30.738691301527894 206.35787195980603 0.7219191689640732
2.0331000858704518 12.27289059020107 28.77745754882316 217.24906765439934 0.7876756525407917
2.0399200962455732 12.224074309283852 27.011486096758752 228.97162251642374 0.8584515349945937
2.0456490595616463 12.173820134620314 25.41161860708696 240.4246970898194 0.9193019271691967
2.0503084667526887 12.121680923418614 23.95995627912326 252.18099556662472 0.9769729461168248
2.0540979322401243 12.067797810158085 22.59965803381386 264.6804154418807 1.0360059678267257
2.056831918071262 12.012017029415974 21.363024105025275 277.92341215922386 1.095354996283095
2.0586879885481304 11.954714649185751 20.223063469515324 292.01664995593677 1.1564135871000571
2.059570636035865 11.895431485806988 19.170475938124152 307.0201726969063 1.2192286941202146
