M[M_sun], R[km], Lambda[1], P_c[MeV/fm^3], rho_c[fm^-3]
0.23848912294887037 16.21570186450063 2784644.0411725277 3.4469561053153734 0.1694538074003404
0.24848143256779465 15.872625760513252 2285257.841786927 3.6327512703118807 0.17193491612596415
0.25876870088840437 15.568827792564942 1883889.8740561 3.8173818498565164 0.1742225682251259
0.2693411696659551 15.299231535770934 1559769.784919168 4.013623791138906 0.17662853102365086
0.2801956115860524 15.059305917530153 1296747.5897534934 4.217857874873368 0.17906120672013373
0.2913409892602584 14.845013066903954 1082109.8040463398 4.424902451204274 0.18139499255736072
0.302766918260011 14.653435010331107 906219.6713260241 4.646969254808304 0.18389810744379487
0.31447444851468903 14.481806584112583 748294.4225649446 4.869591414612755 0.18626519792215254
0.3264762970586531 14.327769415006289 641894.0436554282 5.103318134088989 0.18870541122763032
0.33875443354393847 14.189431822708855 542721.2399809246 5.350663535050032 0.1912615564796199
0.3513154589640594 14.06498630771824 453160.53509202 5.5967589761291086 0.19364420213072656
0.36416638980433336 13.953053218919687 391173.0678725249 5.859922887808817 0.19619210121793637
0.3772895786162783 13.852288301137435 333437.8131710955 6.130586129131257 0.19871694377237822
0.39070522127591517 13.761579576843017 284896.6748542519 6.4072068391907715 0.20118386597072618
0.4044039331608045 13.679982491582845 243980.6190874362 6.702763823783805 0.2038196631458996
0.4183836747726416 13.606491011261012 209412.06326625738 6.99964368920917 0.20631919336828336
0.4326561931829696 13.54038134346768 180103.60507474898 7.309838149623469 0.20887663308465368
0.4472097656640395 13.481016944566422 155212.82990351456 7.641008879567705 0.21160701446067032
0.46204900987316067 13.427659574597444 134009.66681609993 7.967306059063445 0.21411235584137028
0.47716806202752604 13.37990626238296 115929.62166501085 8.314627251967448 0.21677558598099464
0.4925742828303458 13.337303794558185 100473.36182012719 8.6795553892756 0.21953797499196998
0.5082581437701312 13.299069787613092 87214.01068716827 9.044309453939146 0.22214259955086915
0.5242196083561047 13.265209549035099 75836.70513491897 9.432865430846837 0.22491718806955874
0.5404568529358432 13.235193083273437 66054.7615677198 9.83483364209044 0.2277062439893296
0.556979987052424 13.208738553610065 57615.86937485427 10.24270085716357 0.2303992173153671
0.5737834879907501 13.185353845038845 50330.83988163734 10.676950267510017 0.233266381028687
0.5908584801709539 13.164946620662823 44026.975910823225 11.120643112210075 0.2360868565790078
0.6081988566644653 13.147212298500708 38569.90127309973 11.576321564045843 0.23888562591308177
0.6258254113306205 13.131942777328073 33830.16051799678 12.061241290623325 0.2418639946614064
0.6437139974845756 13.118914759571073 29714.831337292697 12.551510557559803 0.24474236362607074
0.6618684758159433 13.107934777181073 26131.846167749685 13.060542619461037 0.2476653559841371
0.6802878936925101 13.098798286431922 23007.573555737345 13.60201848311837 0.2507746489540854
0.6989631663685022 13.091359019283018 20281.02327563817 14.144072533447748 0.253724319415219
0.7178949516181561 13.085481212662145 17901.209272854856 14.712892078953951 0.25678319749298295
0.7370639981976042 13.081054672049397 15818.108729954949 15.3177665547634 0.2600359641893276
0.7564858796479659 13.077692499094068 13991.712679035698 15.917152288151529 0.26303863847171494
0.7761594671450969 13.0755787927972 12388.801096982334 16.552867846623272 0.26621813050348697
0.7960617551268044 13.074523499129139 10982.344001860325 17.223252961441304 0.2695477257662911
0.816203056801081 13.074241230789388 9744.409624702472 17.89249976367045 0.27268638320070393
0.8365657371992729 13.07483808534633 8655.377843273436 18.603227132786856 0.2760195776716939
0.8571488477949117 13.076120125809156 7695.41053499123 19.345134413459824 0.27944690043389064
0.8779447854053258 13.0779711647102 6848.445315670634 20.09422131858618 0.2827549750449336
0.8989517933084654 13.080417179467714 6100.493494776387 20.889632893088564 0.2862676260029651
0.9201451525391368 13.083198406204776 5439.604248214711 21.710741316765002 0.28980639087279975
0.941537371316765 13.086374357337897 4854.245498393732 22.550272600574413 0.29330484210085433
0.9631111139329072 13.089823451226792 4336.096018835901 23.44167552122462 0.2970194501239047
0.9848446523136729 13.093354557734619 3876.6923811280462 24.350393240122518 0.300657898228151
1.0067610302798535 13.097256054117908 3469.1049949070652 25.29233684236508 0.30433888408246945
1.0288311952205842 13.101087215132187 3106.721526985186 26.292493357446418 0.3082473579819193
1.0510443677865067 13.104911782966179 2784.661074538424 27.299310567424676 0.3120047189399074
1.0733967892928669 13.108704501709408 2498.052785712852 28.357591281255036 0.3159202490470641
1.0958736433176244 13.112444919205387 2242.9624382365796 29.474533339812215 0.3200325808434719
1.1184633671150994 13.115930924374576 2015.44455454566 30.597153025581974 0.3239783026726264
1.1411533406097207 13.119197516641139 1812.4539510141585 31.788461065186723 0.3281654465439657
1.163930309290293 13.122204368055723 1631.2347942369522 33.024634120437504 0.33242941580743446
1.1867921934758496 13.124917161205795 1469.327883558068 34.29083826008815 0.3366667801010919
1.2097199462270876 13.127242978721192 1324.6093247376634 35.634847721962174 0.34116452065156433
1.2326747562171192 13.129038876319767 1194.9960286021726 37.0035499560996 0.34556694449713093
1.2556877205341037 13.130466134155272 1078.9526435418309 38.43455106990316 0.3501022521458361
1.2787312175582723 13.131365680472461 974.8771231310119 39.944487636515944 0.3548643749396324
1.3017705979334488 13.131744499916808 881.6054598854433 41.4716991509618 0.35949394213737834
1.3248180207217386 13.13154735068567 797.8044321918557 43.0925840480463 0.36440746949091385
1.3478233154022583 13.130591900441853 722.5800882563165 44.765418850053024 0.36936549522620027
1.37080939487071 13.129042425999591 654.8996841114638 46.49922723408014 0.37440477031178226
1.3937368178440814 13.126737342519052 594.0331858481654 48.33691015204373 0.37973839586451297
1.416596191580369 13.123734598210977 539.2297949204294 50.19638704740769 0.3849291204306375
1.4393659414531028 13.119886981885545 489.86636932317646 52.17037029034494 0.3904394891465806
1.4620206075659523 13.115201942026044 445.36585632708767 54.208899693419085 0.39598881889308385
1.4845574591599566 13.109664292502625 405.2136255285194 56.3306010892906 0.40165875767987147
1.5069671036576329 13.103224940193071 368.946330481925 58.56542074680127 0.4075932869488011
1.5292053763808615 13.095821496531569 336.1895428964349 60.85152812835742 0.4134892336753367
1.551293601518093 13.087662516644338 306.5885764908571 63.27975110726611 0.41975170123888994
1.573171101251972 13.078350324884978 279.8079013955135 65.76614060050906 0.4259855701634426
1.5948248427085023 13.068004901923695 255.56725937035756 68.3893627450272 0.4325272906916018
1.6162504573812873 13.056640359662804 233.6078834625239 71.11182614559401 0.43919290278786516
1.6374289644546998 13.044159651243387 213.69643712782224 73.95317299114713 0.4460510213488676
1.6583486022797325 13.030723736293679 195.64708540943806 76.93090985059074 0.4531526608425141
1.6789462622042859 13.015996107409729 179.2549647994885 80.01613205333949 0.46034916629846473
1.699234122894514 13.000044763712255 164.36948942215847 83.27174836416069 0.4679013327765649
1.7192083373532274 12.98299346342584 150.84309378740952 86.6301644439209 0.47551705623453355
1.73882677338626 12.964760624578725 138.53886673963945 90.18834958002111 0.4835636119437848
1.7580601134849891 12.945208555511606 127.34345223921403 93.85367229712648 0.4916561630514408
1.7769305472092074 12.924478232786289 117.14761566016348 97.74316655737115 0.500227363193642
1.7953580879528759 12.902366031839986 107.85722187332941 101.75367542101966 0.5088515256690385
1.8133701348781741 12.879013972452263 99.3909285755252 106.00780259719959 0.5179751643527456
1.8309201581958456 12.854350098062103 91.66695389860264 110.40692100133734 0.5271837997047991
1.8480043058925868 12.828334228982344 84.61478103367209 115.06436126619751 0.5368933625017929
1.8645866898933503 12.800888387270467 78.17194542206882 119.9019913120878 0.5467933154295498
1.8806653065473762 12.772114955905483 72.28373900436301 125.00689941266684 0.5571682331477384
1.8961971010831449 12.741890693028687 66.90477667998506 130.34070329816763 0.5678511342495142
1.911187384352628 12.71031528144855 61.978115199919344 135.9447035191975 0.5789495383511372
1.9256167214019682 12.677273166188415 57.46483322411056 141.8409799962476 0.5905056423019763
1.9394279717284546 12.6427629508809 53.33211273372076 148.00423735855148 0.6023852506377583
1.9526679033944756 12.606888114194806 49.53996365553299 154.52772662134913 0.614880223850383
1.9652403717132765 12.569403397828852 46.06799998708427 161.3323234882423 0.6276906475926831
1.9771800314018952 12.530486342135212 42.8786545442005 168.52415506852657 0.6411224563403631
1.9884606058478438 12.490110170204847 39.9492863183767 176.1026868612459 0.6551242694760979
1.9963348769629048 12.451995319449905 37.71878306405262 185.2094211011043 1.2907216550043232
