M[M_sun], R[km], Lambda[1], P_c[MeV/fm^3], rho_c[fm^-3]
0.23848912294887037 16.21570186450063 2784644.0411725277 3.4469561053153734 0.1694538074003404
0.2484841955215968 15.872484805200855 2284911.1831329744 3.632785236213432 0.17193536970663031
0.2587733085791946 15.568654109766618 1883670.209413749 3.817448557108608 0.1742233860684772
0.2693461383375823 15.299155546776788 1559664.5990355485 4.013731293310183 0.17662984902031947
0.28020374388187147 15.059102169331911 1296551.5986441516 4.21799879199202 0.1790627951238561
0.2913519177469929 14.844801815870216 1061222.1745727505 4.425091279635473 0.1813971210126248
0.3027775877788366 14.653201530563102 906061.7941583096 4.647212417348622 0.18390084834772386
0.3144889290477296 14.481587421299594 761363.8004338407 4.869869950755164 0.18626810596622337
0.3264928298649502 14.327628561949219 641721.1938762959 5.103659025103361 0.18870897028493816
0.3387733917382266 14.18924267272098 542574.102383743 5.351040972109063 0.19126521074791242
0.3513382308030542 14.064819833921973 460040.8201797017 5.597207218506026 0.1936485419216033
0.3641895800630716 13.952839818830984 391079.24976901046 5.860450412628129 0.19619720860518042
0.37731779606801813 13.852154142643442 333349.9858651442 6.131152047848593 0.19872199067376878
0.3907357990425814 13.761416242037624 284788.64483897446 6.407861573201517 0.20118970493290936
0.40443819664879793 13.679755268288824 243880.12641057273 6.7035175555733 0.20382638497696826
0.41842069547620464 13.606309085046858 209331.80078449158 7.000437266349652 0.2063257361211564
0.43269636401493744 13.540201848014075 180026.49787976494 7.31074144910666 0.20888408045805615
0.4472554728061734 13.480796594621491 155138.03047668986 7.642034025728684 0.2116154664153044
0.4620959410661853 13.427489792664403 133953.3300169338 7.968372718848924 0.21412053490025715
0.4772217910690876 13.379715781301366 115877.7569021087 8.3158279130474 0.21678479255070857
0.4926304859888357 13.337113328495008 100416.44519807026 8.680801007544902 0.21954686966443437
0.5083184612546485 13.299061933312489 87175.72378487617 9.045702079370729 0.2221525439675374
0.5242816631889315 13.265086083534783 75794.9800353601 9.434420279553137 0.22492829088517655
0.540528378401385 13.235141047078763 66020.19255812284 9.836435869568193 0.22771682281425196
0.557051450649993 13.208574593646146 57585.00486091752 10.244480108261884 0.23041096495178165
0.5738613175614959 13.185245959361788 50298.85035746337 10.678924421455466 0.23327941552550388
0.5909365403611831 13.164875388414783 44002.07232696842 11.122667156906981 0.23609928822725815
0.6082856334893084 13.147130126901082 38545.25230528769 11.578557366641785 0.23889935817476182
0.6259182049554258 13.131943410003775 33809.41306386801 12.063709781328411 0.24187915608951213
0.6438071113828625 13.118886697466683 29694.49796634412 12.554033029249911 0.24475684830400257
0.6619696313284055 13.107888836153712 26113.37919460503 13.063317198617804 0.2476812883276555
0.6803906484024009 13.098724606023863 22990.899947298025 13.605069623032405 0.25079216938024246
0.6990633147131013 13.091340671086225 20269.03002521859 14.147183429825697 0.2537410485392582
0.7180040472351528 13.08546593143185 17887.234306602317 14.716302087720802 0.2568015351206969
0.7371857764095252 13.080920006189922 15804.38060473359 15.321504219759717 0.26005606381777674
0.7566092541355851 13.077666366927197 13980.462653668057 15.920955554773716 0.2630576602744045
0.7762847115530286 13.075596797635106 12379.584405560883 16.55702486169136 0.2662389215571411
0.7961905831043715 13.074502736979964 10973.719313752785 17.22748787499357 0.2695675868143539
0.8163365088577694 13.074253312479252 9736.88382656062 17.89711681548615 0.27270803641437363
0.8367065915140091 13.074857756875495 8648.396227811236 18.60826150826946 0.276043188064726
0.8572976196493772 13.076085548118488 7688.422615640854 19.35025929359763 0.2794695326355117
0.8780941392768702 13.078019149470329 6842.866510493861 20.09979689252282 0.28277959757465015
0.8991070399992301 13.080521936361897 6095.713756722292 20.895700218705347 0.286294420178237
0.9203071361009129 13.08325402902539 5434.750114425605 21.716916001364034 0.28983212169824357
0.9417038535599943 13.086352216919675 4849.928693917177 22.556978527327683 0.2933327866910532
0.9632872680634789 13.089834280449379 4332.1073127605305 23.448960667100238 0.2970498084059921
0.9850215774534312 13.093453359249933 3873.250770405817 24.357804568338754 0.3006868606779842
1.006947034507125 13.097303377243405 3465.865517451514 25.30037398745176 0.30437029213843236
1.0290203982149353 13.101079318311088 3103.779027239466 26.30121244134076 0.3082814309608124
1.0512360349847338 13.10486079271382 2781.8412745608885 27.308180080179557 0.3120375352274705
1.073596743881081 13.108723766533508 2495.6260428236806 28.367197980712255 0.3159557928498223
1.0960731142480573 13.112389432695963 2240.660858191788 29.484329403108266 0.3200670115071036
1.118666101221554 13.115922409061506 2013.4397906286765 30.60774804357939 0.32401554145822997
1.1413761857906466 13.119263029409707 1810.6257937788157 31.79992531589816 0.32820574046082857
1.1641494690023153 13.122292565373808 1629.6695592171266 33.03633181104161 0.3324685622411981
1.187009151666279 13.124880298804225 1467.890157279854 34.3034795714408 0.336709084370738
1.209942429678234 13.1271556779269 1323.114541923132 35.64851548221217 0.34121025994228693
1.2329097183528648 13.129100295934787 1193.7882058761966 37.01750256127417 0.34561116483795196
1.255921421901873 13.130480140415004 1077.8336773383871 38.44961956796951 0.35015000911393046
1.2789669799591408 13.13143213101117 973.9309685476063 39.95990419950215 0.35491110848873664
1.3020108686419463 13.131737489067351 880.6585764815987 41.48833193322122 0.35954436251623684
1.3250645966044814 13.131467141334067 796.9242240505649 43.1105387179685 0.3644618970211754
1.3480754185132828 13.130583649479254 721.8125548776602 44.78380675728556 0.3694189392651417
1.3710697241386505 13.129019413542512 654.1707201579361 46.519059279601706 0.37446241170619105
1.393999337201011 13.126707564205503 593.3663510663849 48.35726975458307 0.37979522963820544
1.4168633967171527 13.123707475026968 538.6282193414065 50.21832921638233 0.3849903719341193
1.4396302674520942 13.119806831596454 489.3041003456289 52.194031939175936 0.3905055405732847
1.4622909033259375 13.115135871623753 444.8508507663782 54.23321193506485 0.3960537898273394
1.4848342431165917 13.109601665734731 404.7445587467164 56.35680199863485 0.4017287758042075
1.5072424417429087 13.103219446440505 368.5374944910416 58.592400494144925 0.40766286861163853
1.5294855841035386 13.095846336808993 335.82321473939675 60.88058845959759 0.41356418123301913
1.551564329094726 13.087536068915345 306.2487089393889 63.311072262081666 0.41983247953552466
1.5734411445486427 13.078234024795048 279.4924931017049 65.79843220707201 0.42606609809966084
1.5950989213078761 13.067871274933736 255.27078245470835 68.42415238251907 0.43261404814987625
1.6165325398009622 13.056483927417831 233.3295732091707 71.14777361917356 0.43927966869473184
1.637697702396861 13.043998326823377 213.45292839347425 73.99188954161114 0.4461444709373157
1.658607785891184 13.030426440760893 195.41220092204964 76.9709952685508 0.4532461629989541
1.6792198937045626 13.015667285109817 179.03322344645647 80.05929629066048 0.4604498500252659
1.699518223610478 12.999842548004134 164.17393342112143 83.31652722662808 0.46800287571383503
1.7194889831122337 12.982731550932469 150.6563543965099 86.67837708537033 0.47562638579219907
1.7390970953870342 12.964482781071482 138.37167216902782 90.23846675613729 0.4836742640856
1.7583364501472536 12.944898481352713 127.18450571645845 93.90763161819763 0.49177529814463866
1.777208850059249 12.92416317608151 117.00214026754249 97.79936464988879 0.5003482110703472
1.795635086673311 12.902093492320633 107.7305098818804 101.81418632526878 0.5089816477776087
1.813637154746614 12.878693301768855 99.26798471023744 106.06658560754134 0.5180930007222617
1.8311777455644478 12.853932493747982 91.55532049501292 110.43061091381422 0.5271813681099916
1.8482611374144307 12.827906476400228 84.51394350140274 115.07545660647236 0.5368545622717011
1.8646851306164625 12.800757816243557 78.13803575119681 120.10366767945929 0.6659388458231579
1.8724378747200563 12.774468116942412 74.52060594557167 126.3114860313686 1.3584188946620226
