M[M_sun], R[km], Lambda[1], P_c[MeV/fm^3], rho_c[fm^-3]
0.23848912294887037 16.21570186450063 2784644.0411725277 3.4469561053153734 0.1694538074003404
0.24845455542156059 15.873348502691288 2286175.7372310897 3.632162101044848 0.17192704835927963
0.25870372242101597 15.570576944844108 1886072.7542820198 3.8162248788815067 0.17420838354520143
0.2692443136169093 15.30150127763451 1562490.2521129255 4.011759497117269 0.1766056744312616
0.2800624522946704 15.062003820859102 1299656.6483828817 4.215414335285321 0.17903366338533916
0.2911687521112019 14.848137498494575 1085135.9126907713 4.421628509400514 0.18135808901152087
0.30255561890988103 14.65677475125384 909128.3119811992 4.642753778593065 0.18385059101587084
0.3142208166514382 14.485290432854168 764240.2336594147 4.864763084293683 0.1862147879565558
0.3261781741026318 14.331328468476043 644538.4539228029 5.097409629258233 0.18864372374861293
0.3384090261862895 14.193010428588021 545204.8024147211 5.344122047348433 0.19119822313563092
0.3509262989682915 14.06856954680862 462461.9435844061 5.588991288911336 0.19356899697419286
0.3637232177498239 13.95671127441636 393330.06819025055 5.850782449555539 0.19610360536706695
0.3768026154916377 13.855824767578754 335392.0780543102 6.120780986314313 0.19862950084567946
0.3901657676249661 13.764984462020617 286670.77279471455 6.3958642996299 0.20108271243590106
0.4038135384383567 13.683287108508953 245600.904392746 6.6897079413149205 0.20370322990315876
0.4177334881944986 13.609665528150146 210873.50976435622 6.985898214863223 0.2062058669666264
0.43195088377399127 13.543460302418197 181429.82642642246 7.294194192916981 0.20874765439125947
0.4464456931876291 13.48393287989321 156403.48497065116 7.623257040949734 0.21146065705293465
0.4612242238031938 13.430474580209328 135094.0612588193 7.9488359497954875 0.21397072857332686
0.47628827610609725 13.382660823305814 116911.27533019726 8.293839527339289 0.21661618743033023
0.49162460533717517 13.339686643597176 101340.08850307316 8.657989870873973 0.21938398060425537
0.5072359627410048 13.301464745071266 88014.15871888389 9.020201937639335 0.22197045334307713
0.5231377517396252 13.267402174690965 76553.99997413735 9.405953308038388 0.2247250148142349
0.5393104018206931 13.237238715622011 66696.33820266405 9.80710194180213 0.2275231433957977
0.5557617373425657 13.210459999618372 58191.85767687568 10.211909312270798 0.2301959138724835
0.5724892361702967 13.187005445531847 50849.8968414136 10.642790445059376 0.23304083828516134
0.5894816516175234 13.166455022291084 44500.153212409816 11.085620296752566 0.2358717470395935
0.6067722861340725 13.148605977624834 38988.722208215375 11.537639911858319 0.23864804386043562
0.6243119792155897 13.13305606801713 34206.48741289809 12.018539894442677 0.2416017234092305
0.6421243805236951 13.12015098503721 30057.824384137 12.507875410713385 0.24449179944687385
0.6601953397217002 13.108855578827956 26439.536899650047 13.012553087734293 0.2473897878126932
0.6785254416820488 13.09956657784268 23285.530353632974 13.54925309202358 0.2504716565760328
0.6971239027263426 13.092076829959531 20534.05124511057 14.090273454136744 0.2534350100452995
0.7159746358423228 13.085989469177953 18126.954190265147 14.653928662580313 0.2564661164377339
0.7350628743218668 13.081443951404886 16021.592581877732 15.253147034407252 0.2596884669280703
0.7543935706395913 13.078040746447753 14077.482335991755 15.851397837548525 0.2627097716554797
0.7739826312347334 13.075793181571063 12555.49960574992 16.481007985299097 0.26585872785329273
0.7937983210163703 13.074570121540178 11132.289872982275 17.150045544179026 0.269204395019429
0.8138462028959698 13.07421572656418 9880.153237757191 17.812698123254588 0.27231212663177407
0.8341271840059356 13.0747104814035 8777.47900906424 18.51622546685731 0.27561155416726096
0.8546179345751401 13.075911964873207 7806.232752579671 19.25656715180769 0.27905577477459004
0.8753250730299452 13.077709644271847 6948.921250843827 19.997879671079467 0.28232951658888267
0.8962440703437685 13.080075533790643 6191.520635840288 20.78481025012688 0.2858047142613889
0.9173492278029928 13.082763195563066 5521.536651824324 21.604061694117433 0.28936184108167545
0.9386478556476028 13.085910636598264 4929.197309209621 22.434432523476335 0.29282211933900226
0.9601283604192593 13.08935291393417 4403.8842986238915 23.315849657868966 0.29649511511141985
0.9817847028243286 13.09292929508573 3938.138275732162 24.222384950313895 0.3001576594634317
1.0036043696752115 13.096718404964049 3524.7942572386014 25.15354131617647 0.30379649028381034
1.025591383220064 13.100510907586896 3157.1255479947636 26.141945568169646 0.3076590379578676
1.0477025691898743 13.104320137356256 2830.5902035462404 27.146161316137672 0.31143808241666177
1.069962584747343 13.108060336912308 2539.823271785326 28.19173989585778 0.31530661593030235
1.0923556903141596 13.11182954988587 2280.831044414974 29.301681751383075 0.3194132869635225
1.114871536033194 13.115381615023722 2049.791774552228 30.41426445204348 0.32333549598924016
1.1374685542933969 13.118625971099345 1843.7171280319665 31.590600896211864 0.3274700185216885
1.160168005153564 13.12171933554354 1659.7621970698624 32.822740187092194 0.3317537758237431
1.1829494972719494 13.124426085911763 1495.2461826071255 34.07269448912358 0.3359367598800049
1.2057820418863918 13.126829863178706 1348.1790380893974 35.399031453421586 0.34037535924789597
1.2286777312156463 13.128805622780652 1211.1896191068652 36.76281321100954 0.3448039715051468
1.2516109876715666 13.130286313133473 1098.612390073756 38.17460551114591 0.34927840017988965
1.2745779558823171 13.131277741305288 992.8033940273416 39.6731381317611 0.35402773712348284
1.297533212987471 13.131683574674824 897.9475113653003 41.181761177307024 0.35859677552301067
1.320514847318157 13.131554730537195 812.7626478831828 42.77631841316668 0.3634098017913425
1.3434654951973057 13.130825530518637 736.1954448130992 44.45584661501513 0.3697883985669747
1.3663145773410328 13.12927389146517 667.5207569012946 46.16510798975616 0.3834525970579428
1.3889983112374549 13.126992843754817 605.9849369595481 47.979467027232936 0.3979569685884355
1.4115038457083506 13.123765912548986 550.6990712473456 49.83536215273973 0.41158847727605563
1.4338341286965253 13.119520336763657 500.9045639255811 51.791320868209446 0.4257065464269736
1.455975016232748 13.114350943842824 456.1044741099101 53.83351252337128 0.4399472685176134
1.4779174572579308 13.107996367087303 415.6513412684995 55.94213907800965 0.4537952916861895
1.4996718669152826 13.100623346338736 379.089206931872 58.18199006888039 0.4685051075838915
1.5212033669965248 13.092150958225686 346.03907455561693 60.461174384412054 0.48222379904657187
1.5425259793754267 13.082584827189736 316.1323383591805 62.8801030285074 0.49675724980447666
1.5636023497913987 13.071883538398977 289.02490136685884 65.38200832004168 0.5111242796403022
1.5844435069680742 13.06007022274827 264.46041479230934 67.9996664254816 0.5257563937934804
1.6050352603745406 13.047028459356802 242.1356665809848 70.74198643523809 0.5407699511443124
1.625354215630323 13.032893049292005 221.89198030085052 73.58125810201034 0.555719264205331
1.6453824551664766 13.017460379417123 203.47342698441608 76.58357736142807 0.5714195509478945
1.665102274034412 13.0007850333126 186.72369517607854 79.67080411316172 0.5868762495334187
1.6845002459862013 12.982987774312308 171.4932573210189 82.95380081086334 0.603313101923723
1.703559192533979 12.963877847089718 157.6194258445643 86.32046522265102 0.6194524493885758
1.722252416157401 12.94349943728197 144.9775673395373 89.8999267235854 0.6366025369204427
1.7405710749063126 12.921799455364944 133.45320584845834 93.59010956595748 0.6536850281674584
1.7584808471978226 12.898788354997116 122.94772630991562 97.50258938812489 0.6717237160624543
1.7759984946534422 12.874587878765388 113.36517761986563 101.54904145077055 0.689950465542053
1.793070586932405 12.848938344968431 104.60584040013288 105.83680003895822 0.7091910889425744
1.8096712464368585 12.821773432363191 96.59390405278346 110.2762062129967 0.7286933776998025
1.8258134384599314 12.793511483656886 89.28015832803837 114.98806702797447 0.749338277641343
1.8414399073495076 12.763578583949638 82.58186398379996 119.86368043991516 0.770319811213429
1.8565586911326515 12.732446672673797 76.46843277365824 125.03765237270936 0.7925408567393348
1.8711241572055097 12.69974687352469 70.86025544107575 130.41820365578218 0.8153827913423876
1.8851275974428823 12.665681569966344 65.72382337792942 136.10568481947155 0.8394452596629068
1.8985599042484544 12.630150542580989 61.01835050948334 142.06347916080853 0.8644705294050264
1.9113621857341763 12.593090102776134 56.70665108753063 148.32902497134046 0.8906897653701044
1.9235569005349002 12.554649006778108 52.74899810973964 154.9446810875314 0.918297142750835
1.9351048746272377 12.514598409254349 49.11720369960128 161.86312950965956 0.9470541498611139
1.94598770372605 12.473063232365748 45.778789505377084 169.19179093757816 0.9774848939598068
1.95616985551713 12.430058180156495 42.71123638185289 176.89105611237184 1.009403533762302
1.9656773607828073 12.385580474694574 39.900763989724446 185.0108047872519 1.0430553242710012
1.9744461630190773 12.33950396072749 37.31116555636239 193.61182781873077 1.0786994755351886
1.982466195037469 12.291886824451998 34.92964046138745 202.65263054672215 1.1162017560096713
1.9897306591176271 12.2427583360322 32.73991603051111 212.2227495541291 1.1559474906757976
1.9962177570522328 12.192095879383881 30.723566451818574 222.36942234146105 1.1981379673653054
2.001904684578166 12.13980817550504 28.86391797225599 233.07967179324473 1.2427788437701608
2.006777463058678 12.086010295881506 27.153720392295824 244.4265040632958 1.2902007573397845
2.0108326468420525 12.030717412886911 25.577732401391284 256.4764698911455 1.3406811097623672
2.0140504439373923 11.97399672947299 24.12796245975692 269.2772601139419 1.3944438573521205
2.0163907529956715 11.915555509501445 22.787483629103658 282.8304787263944 1.4516023556091027
2.0179172502921165 11.85587345043822 21.556129012624968 297.25437408137486 1.51261756166758
2.01852347596692 11.794552386449423 20.41916684521399 312.61452841105614 1.5778024707827354
