M[M_sun], R[km], Lambda[1], P_c[MeV/fm^3], rho_c[fm^-3]
0.23848912294887037 16.21570186450063 2784644.0411725277 3.4469561053153734 0.1694538074003404
0.24846157640733277 15.873197731545979 2285800.1737874276 3.6323445619086443 0.17192948494174537
0.2587241393386786 15.570070184503765 1885347.2625931436 3.81658315766038 0.17421277610984812
0.2692744653699639 15.30082432439307 1561535.7822253343 4.01233676703537 0.17661275186811623
0.28010144155928296 15.061319977426967 1298837.054072771 4.21617091863333 0.17904219151746198
0.2912212848297273 14.847221634402963 1084141.5660024919 4.422642127534026 0.18136951441413834
0.3026219854163904 14.655695976962043 908217.0913160094 4.6440587922787735 0.18386530100012188
0.31429854435289506 14.484194874848553 763482.7489261231 4.86625774575373 0.18623039290232393
0.32627210703821646 14.33012588410366 643677.0942762146 5.099238523558075 0.18866281823731662
0.33851392999306296 14.191755888743199 544390.2984196704 5.346146781081622 0.1912178261928955
0.35104778179312734 14.067467027783826 461750.2077136444 5.59139536604079 0.19359227275651658
0.3638591900189186 13.955571815004646 392674.8598661112 5.853611156574925 0.19613099232900513
0.37695296096045183 13.85478183126713 334803.38493513485 6.123815289917382 0.1986565609704016
0.39032870929831454 13.763992716205621 286125.7610146096 6.399374079193331 0.20111401288739103
0.40399812613965785 13.682277294915028 245086.5082226046 6.6937475490241765 0.20373925539788196
0.4179342171989687 13.608678098085978 210421.3943629477 6.990151068171131 0.20624093018452855
0.43216919061604003 13.542452285767608 181003.44055973823 7.299034031395238 0.20878755708690588
0.44668452897741034 13.482975212567583 156033.16586276074 7.628748530702395 0.21150593237466908
0.4614761583208477 13.429667030275024 134775.21685533164 7.954549514524288 0.21401453971443002
0.47656524780094267 13.381776476335178 116601.44711997699 8.30026947430108 0.2166654917310602
0.49191697022535436 13.33893863180615 101071.76218601127 8.664660284557792 0.2194316124882617
0.5075533763614156 13.300797407322712 87765.42927642872 9.027657977725967 0.22202369520383528
0.5234746531992702 13.266723410542829 76328.77638326421 9.414276034281208 0.22478444548072807
0.5396635689103866 13.236642218408823 66497.14735985601 9.815678030340134 0.2275797676519798
0.5561367946529215 13.20996406523925 58016.662704301976 10.221430832209888 0.2302587804091202
0.5728947327119168 13.18648550497098 50686.46527047601 10.653352573079706 0.23311057551329292
0.589912470357021 13.165983166140808 44349.9196353758 11.096449200868793 0.23593825798528345
0.6072156047538035 13.148277098849157 38860.075004885555 11.549599043583392 0.23872149664495823
0.6247819675354123 13.132828308757803 34092.8568431135 12.031740591138531 0.24168280186477722
0.6426123423793711 13.119709630872716 29950.038775812292 12.521364758043447 0.24456925873109614
0.6607159079654852 13.108618152742938 26343.25822076877 13.027387191084314 0.2474749690300981
0.6790746331300593 13.099358224186407 23199.326586762956 13.565561936433781 0.25056530613398376
0.6976948810616304 13.09188486267474 20455.69264134954 14.106901849937936 0.25352443073378755
0.716567726085037 13.085882510117964 17924.14645074799 14.672151563606818 0.2565641117209544
0.7356832157926588 13.081252544725814 15957.684856515389 15.273116061456724 0.2597958521604493
0.7550382739190481 13.077905661719257 14118.817087840003 15.871717740005579 0.2628114003903559
0.7746575491003376 13.07572268872097 12503.710870826788 16.503212498355605 0.26596978235147467
0.7944986413874375 13.074554743040295 11085.779616890872 17.17266664499391 0.2693104842618591
0.8145701044692802 13.074213214467665 9838.247509701054 17.837354483746605 0.27242776090735976
0.8348782271929694 13.074739469244602 8739.958969215855 18.54310378854515 0.275737609075419
0.8554115837454171 13.07595496875306 7771.493745756444 19.28392946012262 0.2791766106306392
0.8761341305676295 13.077817174524165 6917.9700976777 20.027640914120518 0.28246094648282877
0.897089583893867 13.080192514110264 6162.97144105804 20.817188136107976 0.28594769962375516
0.9182159455590825 13.08297477485874 5496.363284312192 21.637013610315844 0.28949915659798114
0.9395430957093522 13.086032894120452 4905.670509768656 22.470210390262842 0.29297121101004575
0.9610492922409648 13.08954065199424 4382.8909055686845 23.35470769017211 0.2966570422884678
0.9827323564563273 13.093091793418711 3918.9053754000624 24.261917586824108 0.30031214756169106
1.0045863103777883 13.096853386055798 3488.2960349191635 25.19640094588134 0.3039639798132146
1.0265846425097664 13.100706361330753 3141.6404801248373 26.188429349268034 0.3078406901717273
1.0487313096393773 13.104572719930633 2816.414566481129 27.193449162147672 0.3116130425972027
1.0710310243168388 13.10829358177281 2526.804033985259 28.242944359204056 0.3154960671933113
1.0934500736140853 13.112016805081245 2268.9748646944654 29.357150719751083 0.31961851645775735
1.1159777391602295 13.115503641314087 2039.115984153847 30.47072382104089 0.3235339362691829
1.1386111969416104 13.118880987050526 1834.0151727683283 31.651675491252146 0.32768468014388513
1.1613372990895017 13.121902127050896 1650.8998324494223 32.88506088778321 0.33196233264613406
1.1841427123297783 13.124730454948457 1487.3120714087902 34.140023845526436 0.3361620782167583
1.2070031273139472 13.12695267983186 1340.84053709923 35.47180722150633 0.3406189040535628
1.2299125528566572 13.128907853516338 1209.8985623961255 36.83710869385847 0.3450394380385958
1.252882103518057 13.130451913029374 1092.546541456177 38.25482013871134 0.349532626406848
1.2758686337050866 13.131414329859096 987.2452926408321 39.75978888460727 0.35430236152339317
1.2988560019589104 13.131699636922903 892.8367912240669 41.27333140301714 0.35889261297616615
1.3218489972511753 13.131548746118744 808.0823054214279 42.87847792720116 0.36375843125061424
1.3448262952749148 13.130799135192072 731.967753935476 44.5461434913309 0.3687281763262167
1.367757185609939 13.129248851049832 663.4630348251653 46.26276046783346 0.37371748497235663
1.3906432443314485 13.127115823153488 601.8912079105305 48.085120034333 0.3790141320788281
1.4134876642807912 13.12436342154729 546.4258593887538 49.93479115009577 0.3841988762130515
1.4361881186455863 13.120409533984907 496.4207537048966 51.88831155343832 0.38965212296935003
1.4588280342389517 13.115907402317 451.3585865439736 53.91908321881436 0.3952143264628065
1.4813398697959463 13.110534889624846 410.7227700473089 56.018311860506216 0.40082421007839186
1.503720920368477 13.104307417407808 374.002433008268 58.243847184725446 0.40676393807133465
1.5259346500328304 13.097043940400923 340.8443747490215 60.50520228521496 0.4125960478444067
1.5480101283330885 13.08901741100276 310.8371132569465 62.906533144634096 0.4187891597402633
1.5698544379179509 13.079772029315999 283.70734917758796 65.36578834640807 0.424946871806187
1.5915061155719668 13.069662510443855 259.1399044838577 67.93493212929 0.43129261735223445
1.6129358642497216 13.058478030323462 236.88413838809186 70.6643738945385 0.43803429644408826
1.6339028928816868 13.046197773505579 216.87720115163654 73.53471840759987 0.48394841763309143
1.6530716307990692 13.032135815242222 199.75147438539108 76.56006826140246 0.5711952498668046
1.6702728941041964 13.014882892454095 184.97565475595047 79.81034528759984 0.6527461993615175
1.6856968328446027 12.994437411610155 172.0709594246026 83.27420588834488 0.7392407209237419
1.6994996032333944 12.970537613763574 160.65926016733502 86.97728286033784 0.8151050570797512
1.7118989096403991 12.943093955034502 150.4047106516764 90.93117326595777 0.8961077672919927
1.7230429250721726 12.912343519343937 141.12042185325697 95.11313274113571 0.9678713532506051
1.7331279781219242 12.878239733660749 132.60320243267367 99.58190955541009 1.0436124650564633
1.7422122130041848 12.841012332839934 124.76078250954804 104.27997200534088 1.1135044331467019
1.7504628786690408 12.800763073963267 117.48419569935737 109.30027453144345 1.1871516241354667
1.7579214919938773 12.757585386413881 110.7032437132327 114.55359545427245 1.254697401420878
1.7647143870229316 12.711732271669135 104.34256572205925 120.16740253220306 1.3259394275549024
1.770884255031384 12.66326610014147 98.378226292134 126.0260538450216 1.392184560112687
1.7765182816295257 12.612386430960017 92.75310726752048 132.26911533753338 1.4614103660006053
1.7816897464599908 12.559192554419441 87.20186095516543 138.807027062044 1.5282870707957
1.7863735065760513 12.503818658826448 82.41127957305098 145.7309032745104 1.5963633125019738
1.7906795266868982 12.446416067342902 77.65663154281737 153.0275750215121 1.664050688817714
1.7946004944929816 12.387134739684955 73.15979463711494 160.69539887697917 1.7313776389923783
1.7981982395485507 12.326135214364648 68.9033468589185 168.84438649924329 1.8010297805000997
1.8014798772232552 12.263561838540376 64.87244315020769 177.33079941675138 1.8688396705228194
1.8044012143574146 12.199131687692566 61.05755789695228 186.34207128181507 1.9394789564644581
1.807064872428787 12.133579577320916 57.456869688765416 195.83929639620516 2.0114773593983077
1.8094195964415245 12.066578139788467 54.04972910052631 205.81279143958636 2.0844602968111
1.8115045598546144 11.99851172788517 50.84098892093072 216.38696850909307 2.1602423408629705
1.8132617211170283 11.929073708523719 47.809364034253136 227.5145141964117 2.2373450827656316
1.8147456423961414 11.858634447132333 44.955969571245824 239.2354346623519 2.3164538037828466
1.8159071879685063 11.787271782942385 42.27652229888941 251.65512791808663 2.398777755492865
1.8167804859737826 11.715025342036663 39.7549129185827 264.7727922274556 2.483845609733958
1.817319609197301 11.641878337410029 37.39026811844108 278.5777464657728 2.5710902711367276
1.8175302898586723 11.568055034969301 35.17295108692216 293.20950864183794 2.6622452304430593
