M[M_sun], R[km], Lambda[1], P_c[MeV/fm^3], rho_c[fm^-3]
0.23848912294887037 16.21570186450063 2784644.0411725277 3.4469561053153734 0.1694538074003404
0.24847833679895379 15.872646093463214 2285265.142349211 3.632674343431352 0.17193388884436336
0.2587609429867557 15.569035032952227 1884114.0383496436 3.817230772433382 0.17422071598774289
0.26932944193408936 15.299509210110408 1560145.0029079244 4.013380327305193 0.17662554611164444
0.28017891337009854 15.059609571815027 1297161.9499868988 4.217538740502342 0.17905760946929786
0.2913195716385204 14.845439612225219 1082491.1552582881 4.424474821420068 0.1813901723570365
0.30273752181338653 14.653795639591719 906631.4339996348 4.646418589531289 0.18389190039965336
0.31444224898065515 14.482245865824675 761896.5148982286 4.868960651299182 0.18625861246613865
0.32643875452159987 14.32824626671702 642243.134047444 5.102546180978676 0.18869735168589194
0.33870503560266324 14.189752886716603 543002.2676730292 5.349808833371065 0.19125328143303855
0.351265500566248 14.065486670582933 460430.80628377944 5.595743958784805 0.193634374940712
0.3641041039086058 13.953615057037599 391504.6350094113 5.858728367026006 0.1961805361123991
0.3772252780507567 13.85284651470303 333718.66078881663 6.129304682417534 0.19870551574392945
0.3906335251152159 13.762068779695396 285137.7450364156 6.405724315313089 0.20117064472253168
0.40432755781685636 13.680435670722428 244191.5344945836 6.701057176964517 0.2038044431541559
0.41829957741789797 13.606913660314156 209598.5833654964 6.997846835911963 0.20630437897095133
0.4325625342723618 13.5407953096131 180269.21160285873 7.307792904776918 0.20885977078997153
0.44710886084319007 13.481379609667476 155366.27924386947 7.638687804795599 0.2115878780492756
0.4619422263121716 13.428041449205855 134150.48378176277 7.964891005498056 0.21409383741066246
0.47705071370966357 13.380279193313596 116065.61700293084 8.311908865981545 0.2167547416224104
0.49245062282722696 13.337586126546718 100580.70456235981 8.676735230278958 0.21951783688771218
0.5081238122532111 13.299480287512667 87325.9762000224 9.04115653481201 0.22212008528334937
0.5240781133020622 13.265493695571523 75927.68689143499 9.429345320681323 0.22489205177561342
0.5403095202520299 13.235501037183244 66136.9371958131 9.831206279600048 0.22768229406133955
0.5568187147584303 13.208960771642044 57694.69435912088 10.238672818073184 0.2303726218906167
0.5736158278476842 13.185608612164293 50396.937858669546 10.672481098045301 0.23323687300815177
0.59067938142016 13.165175449963018 44089.70859421354 11.116061004884928 0.2360587133534166
0.6080209570240486 13.147407222028855 38621.99067686487 11.571260194692435 0.2388545390682295
0.6256321990518894 13.13217024744271 33880.329879739416 12.055653305966054 0.24182967335427624
0.6435022769357657 13.119074737383263 29758.471228031627 12.545800375827938 0.24470957430136087
0.6616538652461978 13.108070735119593 26170.802156516034 13.054261892366025 0.2476292904419525
0.6800573760321195 13.09887779578374 23043.043171755075 13.5951118909102 0.25073498953426543
0.6987174776399399 13.091419218880196 20314.961059757814 14.13703066937548 0.2536864511601504
0.7176417466710591 13.08557869603209 17930.36050665833 14.705173337216472 0.25674168926761476
0.7368093142269823 13.081089029234434 15842.993354041659 15.309306366676598 0.2599904687697751
0.7562137331482671 13.07772851425132 14015.25202056699 15.908543593354652 0.26299558261733813
0.7758755114336793 13.075619678360134 12410.68349161162 16.543458687791396 0.2661710711777666
0.7957666201545354 13.074495477889334 11001.421496691122 17.213667461350926 0.2695027713473518
0.8158899369877598 13.074256952259363 9762.35065325901 17.882049586325113 0.27263737358764845
0.8362448567975627 13.074838350404177 8671.372574916102 18.591832694807003 0.27596613963156086
0.8568153508904969 13.076076101983038 7709.764714690917 19.3335350979941 0.27939567620244965
0.8775961367420997 13.07789761909332 6861.577704747625 20.081602269344366 0.28269924752369846
0.8985990987021025 13.080357704507344 6112.217632477691 20.87590125122393 0.2862069851140249
0.9197789458380271 13.08315624796105 5450.397279339817 21.69676664786186 0.28974815635726864
0.941163893283189 13.086295612224628 4863.764792339698 22.535096029259833 0.2932415990799246
0.962722288114915 13.089753289927707 4344.952414256319 23.425188548399134 0.2969507464657557
0.9844504412935189 13.093370229768645 3884.7301939151334 24.333620633323253 0.30059235319103716
1.0063556751879312 13.097168392101276 3476.2868258055637 25.274148457697034 0.30426780638045353
1.0283984397118213 13.100937444393265 3113.2579838736774 26.272762285966298 0.3081702516723314
1.0506158862819652 13.104926714477783 2790.736517810866 27.2792389837187 0.3119304561386752
1.0729556984436213 13.10872778143744 2503.477236637068 28.335852081257336 0.31583981623657814
1.0954179598954912 13.112353812790577 2247.838528286458 29.452365530150043 0.31995466664724204
1.1179933993237086 13.115825069831576 2019.8305768848836 30.57317793025036 0.32389403632828456
1.1406739970064923 13.119083921813969 1816.3666172305384 31.762519782665443 0.32807426955320207
1.1634479827382354 13.122139029454845 1634.90544706345 32.99816449726151 0.33234083495968625
1.1862916726012054 13.12481294110257 1472.7430810029662 34.26223425606803 0.3365710565273845
1.2092090961866608 13.127198738846202 1327.5899634938737 35.6039220744421 0.3410610276756245
1.2321500435205481 13.128981658318992 1197.7936248432195 36.97197965997929 0.34546688796741537
1.2551542078658133 13.13045579568849 1081.4893489059828 38.40045690966698 0.34999419667040443
1.2781860895092672 13.131417262827048 977.2240411663086 39.90960580961317 0.35475863466718227
1.3012153065482288 13.13173593558963 883.7105754396849 41.43406664320675 0.3593798634902337
1.324248807471995 13.131471843579881 799.7428872189003 43.05196198810429 0.3642843283579185
1.3472587856107094 13.130621453702544 724.3151232896267 44.72381645832217 0.36924457881001416
1.370237232208431 13.129074602881992 656.4925822824366 46.45435892961622 0.37427436159366767
1.3931510925016886 13.126856873591713 595.5306711241832 48.29084818270049 0.37960981400558796
1.415995839471117 13.12374842341587 540.5682953927505 50.14674624592923 0.3847905482717907
1.4387673933025997 13.11996925658678 491.0855567826804 52.11684119458487 0.39029006282509365
1.4614158291546777 13.11538912304187 446.47057601934574 54.15389866750696 0.3958418366406618
1.4839493959000312 13.109843901447206 406.2578493270865 56.271329350074225 0.40150036256649824
1.5063439609466496 13.103462259177027 369.9158554075266 58.504387054864225 0.40743587903389394
1.5285996411669507 13.096151705405799 337.06734247562537 60.785789949686546 0.41331969273317887
1.5506668105405637 13.087868725844919 307.39290116568395 63.208901107829014 0.41956897674150795
1.5725379059869298 13.078614767217367 280.54044231694206 65.69309537332606 0.42580341194891785
1.5942037243829845 13.068301755806102 256.22702984998136 68.31066960641044 0.4323310478680993
1.6156152960825338 13.056978937644269 234.22825898453422 71.03051409700477 0.43899664105004327
1.6367974584671166 13.044552889910602 214.2605685026612 73.86560049573528 0.44583964885938876
1.6577027382141547 13.03107544905682 196.16510045349403 76.8402413278985 0.4529411699107892
1.67830918450759 13.016364036172902 179.73626696233578 79.91850313527186 0.4601214397376659
1.6986222270689273 13.000602499862268 164.80634457508404 83.17046783301487 0.46767166364130464
1.7185832879563752 12.98358982088379 151.24915806336867 86.52112143284162 0.4752697844856848
1.7382054573891608 12.965354011448742 138.90953030359262 90.07499961230708 0.4833133501039484
1.7574596167487222 12.945856571172815 127.68669739349318 93.73163713961179 0.49138672545335166
1.7763183076512943 12.925134146544337 117.4606072664385 97.6160689573058 0.49995405364852874
1.794767478336964 12.903190253991083 108.15179041106667 101.61682921729599 0.5085572528136032
1.8127725822318193 12.879853630600278 99.66339746873032 105.86502598965232 0.5176762913525396
1.8303391314352613 12.855231170051379 91.91686764485442 110.25316843687163 0.5268619508317895
1.8474252880034328 12.829217177933362 84.84207022429113 114.90636715709593 0.5365720968876058
1.8640246454652696 12.801851886387583 78.38606055325991 119.7509889962872 0.5465007874095693
1.8787801745960058 12.773830951672162 72.85773598769303 125.22058690329668 0.7771336796116317
1.8881260175834425 12.74387842073517 68.90247410065305 131.1739376563678 1.0979346848735279
1.891920075092059 12.709636556095733 66.20730386384406 137.9684652401845 1.4100493344307998
