M[M_sun], R[km], Lambda[1], P_c[MeV/fm^3], rho_c[fm^-3]
0.23848912294887037 16.21570186450063 2784644.0411725277 3.4469561053153734 0.1694538074003404
0.2484823203636827 15.8724254677554 2285295.9533995492 3.6326636723825962 0.171933746343173
0.2587581377190229 15.569186563681804 1884232.573379883 3.8172098157829004 0.17422045905529965
0.26932937055484757 15.299532397487626 1560266.0150640314 4.013346555878062 0.17662513206764954
0.2801748203692594 15.05973893412948 1297175.8114925374 4.217494473236679 0.1790571104930895
0.2913147760849578 14.845554225221218 1082592.5928944773 4.424415505708659 0.18138950375624693
0.3027334380653062 14.653850132416565 906653.1222555976 4.646342209126907 0.1838910394473447
0.31443950802238807 14.482165875988096 761882.6681358606 4.868873161820634 0.1862576990361717
0.32643287266607157 14.32826668329822 642266.7140013728 5.102439109742318 0.18869623381346307
0.3386989021871943 14.189797726486608 543035.949116185 5.349690285918226 0.19125213368088306
0.3512594620183977 14.06548041194476 460460.97049372556 5.59560317791139 0.1936330119291327
0.36409905155152833 13.95355660495813 391497.5090150329 5.858562692319661 0.19617893208382856
0.3772155633755646 13.852828868568862 333727.35307457583 6.129126952868435 0.1987039307397919
0.39062549862178425 13.762100309092995 285163.1563471473 6.405518701104074 0.20116881104111134
0.404315977940893 13.680540543350057 244223.86683950783 6.700820482988784 0.20380233230127429
0.4182911565590652 13.606795325820375 209600.64703676276 6.997597632764966 0.20630232438227583
0.4325484639549305 13.540837377148696 180298.91489816777 7.307509257664194 0.20885743222341382
0.44709656089109423 13.481410084122507 155384.98435915486 7.638365909869564 0.2115852241435055
0.46192539247346437 13.428136430948227 134184.7449492773 7.964556078778174 0.21409126922031538
0.4770437232883554 13.380402631669963 116080.77181807511 8.311531879195169 0.21675185091895716
0.4924331201381653 13.337618649839653 100597.85305699511 8.676344131042226 0.2195150441383623
0.5081048715682093 13.299535040488673 87335.09798086072 9.04071929649383 0.22211696306547177
0.5240583911906548 13.265536579552162 75944.90018711008 9.42885717052656 0.22488856600806564
0.5402858278776032 13.235613083001734 66156.91388193188 9.830703257485956 0.2276789728207848
0.5567992764575328 13.20895884869513 57701.87785343976 10.238114242908399 0.23036893385695337
0.5735917654363605 13.185655849287457 50408.77966868971 10.67186136254639 0.23323278115887805
0.5906517711618207 13.165212124857973 44098.82629281895 11.115425609148609 0.23605481076356483
0.607995267000446 13.14744689870548 38629.673813566 11.570558353733585 0.2388502283729462
0.6256047643770984 13.132194684964434 33886.55834732627 12.0548784565683 0.24182491424239763
0.6434789625748987 13.119103324513029 29763.454020410656 12.545008582272382 0.24470502762014906
0.661622289106837 13.108094228493727 26177.414967739198 13.053391002165336 0.2476242895675639
0.6800263459281342 13.098906406373706 23048.201110934264 13.594154237153743 0.2507294904413373
0.6986887913656324 13.09154047830164 20320.031944240476 14.13605425838939 0.2536812004225767
0.7176080959452228 13.085581146770307 17933.811497730152 14.704103093273629 0.2567359339349078
0.7367736079712237 13.081013143924322 15846.74340035122 15.308133341575306 0.25998416072217834
0.7561739551022149 13.07777597277551 14018.567541139902 15.90734997550469 0.2629896128115148
0.7758356798461298 13.075632454936978 12413.599744320842 16.542154110432527 0.26616454641482495
0.795724700382118 13.074494842853722 11003.980032286618 17.21233843184455 0.26949653841754645
0.8158469110006696 13.074250985915544 9764.715707724332 17.880600699141997 0.2726305785450517
0.8362003888470486 13.074829878377559 8673.316619943116 18.590252921942284 0.2759587307566435
0.8567702686069523 13.07607100199354 7711.722042891108 19.331926916123745 0.2793885742419443
0.8775501515066462 13.077914180357455 6863.354432806029 20.079852743832447 0.282691521369513
0.898551743240547 13.080390165302294 6113.905570118581 20.873997515236194 0.286198577944384
0.9197317477513621 13.083121549062819 5451.597549408722 21.69482921335824 0.2897400827806799
0.9411089411701623 13.086323554247663 4865.299273972098 22.532992009666536 0.2932328313185892
0.9626707661820828 13.089721335629996 4346.246676480422 23.422902910630086 0.296941221874577
0.9843912348810407 13.093397357813714 3885.89146123257 24.331295389448 0.3005832664582516
1.00628998110772 13.097090954257851 3477.208534346095 25.271626995631145 0.30425795285400603
1.0283432313965657 13.100978974646427 3097.821224238167 26.270027022928836 0.3081595626411359
1.0505530519196669 13.10483063149744 2791.529331929605 27.27645650597419 0.3119201612563829
1.072889297363668 13.10867540555696 2504.3039278228525 28.332838494334062 0.3158286662740262
1.0953540357827565 13.112352481055291 2248.526570361506 29.44929251707384 0.31994386579016665
1.1179232286218184 13.115864346597691 2010.7215024026966 30.56985445807257 0.32388235517135605
1.1406091750907605 13.119099958202272 1817.024272350855 31.758923838190057 0.32806163072565186
1.1633667957248555 13.122147206000388 1635.5335878598023 32.99449530252358 0.3323285559643157
1.1862189790418065 13.124899965520944 1473.2228402752642 34.25826928865056 0.33655778772590594
1.2091397593362787 13.127174678203158 1328.0438072326501 35.59963539384852 0.34104668225791757
1.2320767482614476 13.128987765113534 1198.2012248916192 36.96760360790986 0.3454530188360568
1.2550812640151483 13.13044667298097 1081.8542375783802 38.39573113182539 0.34997921914440233
1.2781152002739362 13.131371679498788 977.4483859809638 39.90477083927307 0.3547439780070688
1.3011395024047496 13.131775663980854 884.0293553234237 41.42885052813963 0.35936405143343214
1.3241781388946179 13.131491918975433 799.9939862776347 43.04633164200625 0.36426726060707926
1.3471818588838569 13.130688191197155 724.5871709232905 44.71805021962833 0.36922781936689747
1.3701508486365226 13.129096311737621 656.7371102011624 46.44814018050006 0.3742562869391826
1.3930721486627817 13.126817548742707 595.7359088294336 48.284463979271784 0.3795919925195264
1.4159146923145904 13.123800212523754 540.7744398770205 50.139866190157676 0.38477134261529733
1.4386844860419334 13.119988568718895 491.25589872155194 52.10942242704325 0.39026935335619695
1.4613346287778934 13.11537601062769 446.65908351991743 54.14627588821878 0.3958214658702823
1.4838884997465354 13.109989195024237 406.38070570359673 56.26311489446239 0.40147841062708933
1.506283038890941 13.103644007278039 370.05956632940615 58.49592840362946 0.4074140638919366
1.52850496440109 13.096156556959002 337.2032785828927 60.77667954713302 0.41329619670296336
1.5505742965383227 13.087902676510298 307.5078153996125 63.19908254589872 0.4195436543447827
1.5724499989359992 13.078661941095651 280.6483885253812 65.68297258951958 0.4257781680240877
1.5941157100015806 13.068340856361369 256.32313464553647 68.29976442348159 0.43230385281747113
1.6155332397516238 13.057024786679925 234.30435549497227 71.01924599814856 0.4389694433997339
1.6367143303241531 13.044601641471136 214.3371511254237 73.85346517504543 0.44581035800804586
1.6576161545517598 13.031131172717988 196.23569682566918 76.82767699816968 0.45291186269675343
1.678224974836935 13.01645478220583 179.81064556821943 79.90497466023172 0.4600898835844817
1.6985282359031806 13.000646043593989 164.86938694665534 83.1564333906638 0.4676398383911587
1.7184943085204059 12.983614646905883 151.30351485536957 86.50601178357563 0.4752355210389814
1.7381135563693626 12.96539330761671 138.962860292707 90.05929322547746 0.48327867246491213
1.7573706376792957 12.945965798761142 127.73356658295815 93.71472778768324 0.49134939182539017
1.776235021721736 12.925252958936555 117.50707434751763 97.5984582336074 0.49991618370542473
1.7946750876656543 12.903243557661785 108.19313617759457 101.59786829566715 0.5085164794169171
1.812688866983084 12.8799339161796 99.70240891428087 105.84524349175182 0.5176348808259789
1.830238647357719 12.85529964407793 91.95628079184092 110.23186581898167 0.5268173582516016
1.8473450078254687 12.829368320084075 84.87743909614295 114.88139687829216 0.5365189356004928
1.863935188198622 12.802011984418531 78.41806322293483 119.70491329765761 0.5463900057412424
1.880035002380691 12.773272828107615 72.50941351556231 124.80054841105448 0.5567549394853168
1.8955842415747703 12.743175018503749 67.11345010027968 130.1183595666882 0.5674058092722589
1.9105868216248265 12.711582551902474 62.16681864732488 135.71149674086254 0.5784924767152101
1.925018178382752 12.67862921833376 57.645439024286645 141.5895923065947 0.5900129479236009
1.9388699295077758 12.644264345804855 53.50015422671597 147.74013016740096 0.6018787071349002
1.9521102704333584 12.608379883262803 49.69655462654246 154.24972786583402 0.6143568597293859
1.964718486901054 12.571038161607428 46.21093563759513 161.0325682415572 0.6271263244146714
1.9766856474611285 12.53219912050378 43.009555590847334 168.20734491173334 0.6405421275131156
1.9879874165983684 12.49190082052093 40.071444425559044 175.7589535478511 0.6545079034191865
1.9986025924966468 12.45008462871217 37.37161247353126 183.68747895904633 0.668961420785799
2.008538050640404 12.406788878459217 34.88911938315792 192.07770090046756 0.684132846231816
2.017751344826322 12.361966494097613 32.60755261604268 200.90442824815682 0.6998750194490709
2.0262426825452717 12.315704251217756 30.50705390543134 210.20991666954467 0.716282694614349
2.033975467073947 12.267790710941657 28.572153542222434 220.06247396337073 0.7335110398638259
2.040967636781628 12.218483755690107 26.79226071211575 230.46361004081032 0.7514947525409641
2.0471755321459275 12.167592291781968 25.14961352453963 241.43837719765807 0.7702165308149651
2.0526091164580063 12.115291404580633 23.6362597547333 253.07203765813335 0.7898720143007306
2.0572585662457765 12.061479035672205 22.240124971280157 265.40666120095227 0.8105066436588898
2.061084358159533 12.006157492532774 20.953681521270752 278.45119874759575 0.8320623005822425
2.064080739342264 11.949430911851575 19.767395698029542 292.2801380999301 0.8546672459738103
2.0662477796083656 11.891159152590626 18.671589366551597 306.97061338264604 0.8784317061075954
2.0676023832377437 11.831506815687584 17.658383830892202 322.58473368939013 0.9034190000317842
2.068098746327443 11.770445577778329 16.7239750392424 339.19083496367125 0.9297109125974006
