M[M_sun], R[km], Lambda[1], P_c[MeV/fm^3], rho_c[fm^-3]
0.23848912294887037 16.21570186450063 2784644.0411725277 3.4469561053153734 0.1694538074003404
0.24848316896892003 15.87257485888309 2285030.935908403 3.632760735935086 0.17193504252990113
0.258769226221209 15.56885079263111 1883884.5961511792 3.8174004397648638 0.1742227961408692
0.2693440559243287 15.29915315562274 1559685.3459236848 4.013653749591641 0.17662889831986853
0.28019837366714134 15.059210992946507 1296723.9055358334 4.217897145177473 0.17906164937108926
0.2913449259771081 14.844917736938434 1081941.8162611926 4.4249550730222325 0.1813955857052502
0.3027697184205888 14.653395561305354 906192.8906713126 4.647037017871014 0.18389887126228674
0.3144792868372147 14.481741126745039 761482.5012366056 4.869669035133566 0.18626600831571
0.3264810818109488 14.32771083062281 641825.35696253 5.103413130773929 0.18870640303624803
0.3387576558732372 14.189456897870059 542682.551940213 5.350768715797752 0.19126257481807443
0.35132181987762173 14.064937025809268 460101.91658749344 5.596883887661177 0.19364541149859354
0.3641704253878754 13.952987921223176 391152.0344526965 5.860069892220513 0.1961935244845385
0.3772966282470347 13.852274655644097 333434.34184153675 6.130743832356284 0.19871835018040343
0.3907150381233919 13.761506412843355 284863.1675972123 6.407389291462457 0.20118549309242312
0.4044137176117411 13.679948756781807 243946.52980813012 6.702973862329592 0.20382153628385447
0.4183937500158444 13.60646885283841 209390.21637541987 6.999864830876081 0.20632101660033317
0.4326682004755293 13.540297803443677 180078.6737577554 7.310089865725637 0.20887870839172418
0.44722131043022006 13.48096029284093 155197.3682155199 7.64129454834196 0.2116093696950869
0.4620592242060364 13.427685105175343 133999.74141042755 7.967603295709395 0.21411463502735223
0.4771840752304397 13.3798341348853 115914.61524644347 8.314961827839749 0.21677815148107152
0.4925887788813018 13.3372426714754 100456.17741726188 8.679902492540656 0.21954045357624422
0.5082757756054521 13.299179940311117 87208.84339327687 9.044697520137586 0.22214537064199288
0.5242375825042752 13.265176059542085 75828.00369143324 9.4332986995657 0.22492028194144414
0.5404779218957616 13.235149743406874 66041.31663991533 9.835280112908915 0.22770919184579017
0.5570000574053229 13.208672756275394 57609.1527769352 10.243196654122707 0.23040249085130418
0.5738046812205082 13.185334604316733 50320.44789346178 10.67750037211939 0.23327001313488435
0.5908808406179659 13.16491107445064 44021.07686146215 11.121207118858388 0.23609032069829003
0.6082221329378454 13.147204637048066 38562.931354211985 11.576944574367465 0.23888945243192625
0.6258561603363842 13.13188005707114 33822.09051826675 12.061929136092173 0.24186821939662712
0.6437419965090991 13.11890286641503 29707.664803686515 12.552213444813358 0.2447463997845458
0.6619004598756317 13.107982034339406 26126.086969865562 13.061315752252959 0.24766979551046894
0.6803175516639861 13.098752675624649 23001.631749141474 13.60286867438993 0.25077953096992617
0.6989952734150255 13.091449762364313 20278.700238298272 14.14493937586127 0.2537289809379753
0.717925980791842 13.085469799894701 17897.21800473043 14.713842262826272 0.25678830719190215
0.7370983744241054 13.081000128028162 15814.331415472097 15.318808032570498 0.2600415648295619
0.7565230855728778 13.077633660200249 13987.965357681765 15.918212045937986 0.263043938784713
0.7761927998450732 13.075606249823814 12386.806464911775 16.5540261676423 0.2662239237743943
0.7960982083645501 13.074484288604522 10979.626610654685 17.224432988903175 0.2695532599010134
0.8162366188985595 13.074262188135792 9742.724681363976 17.893786263737198 0.27269241667443206
0.836605781101079 13.074827204648031 8653.399450846731 18.60462990806373 0.2760261564570342
0.8571918675854451 13.076141093050925 7693.643558588742 19.346562407873286 0.27945320666088724
0.8779838068065007 13.077988277076454 6846.963961291912 20.09577488496288 0.2827618358156294
0.898991670215422 13.080384030927288 6099.3905674370335 20.89132346990535 0.2862750918313054
0.9201973288021502 13.083342043975767 5438.365126584681 21.712461809071147 0.2898135604191137
0.9415850768991882 13.08637677646514 4853.187705640051 22.552141105015053 0.2933126284356593
0.9631595787928363 13.089842615396494 4334.868600486237 23.443705403664936 0.29702790894474085
0.984892491828034 13.093465979865062 3875.901029593081 24.3524582830769 0.30066596813157787
1.0068122505311508 13.097151875455483 3468.0084619958943 25.294576244848752 0.3043476353589205
1.0288826559956352 13.100988058232343 3105.6707322748657 26.294922754156286 0.3082568517296365
1.051097303619306 13.10494625332029 2784.049731942187 27.301781880696232 0.31201386254556185
1.0734509310258968 13.108719243037122 2497.360205383959 28.36026797987368 0.3159301525574391
1.095932735722502 13.112411403007162 2242.2841344798003 29.47726280312648 0.3200421742107694
1.118515347656973 13.115914699154544 2014.8571997669978 30.60010508165299 0.3239886783966832
1.141208460844516 13.119240990143844 1811.9965522884586 31.791655291865244 0.3281766734359332
1.1639913510716364 13.122201866225156 1630.762639544541 33.02789339238691 0.3324403229922629
1.1868514262397238 13.124880926558967 1468.8938795631534 34.29436042543201 0.33667856706118554
1.2097798841058365 13.127208747433087 1324.1573815161444 35.63865585431757 0.3411772646030039
1.232740873726211 13.129051953639813 1194.632663949311 37.00743745614582 0.34557926524833366
1.2557506542889223 13.130413950461408 1078.5995162777535 38.438749453581025 0.3501155581883142
1.278793669812233 13.13144256713621 974.6727664663784 39.9487830015748 0.3548773958479943
1.3018237866557456 13.131704363239491 881.3752279783216 41.47633334760067 0.3595079901749581
1.3248806847730021 13.131474149282436 797.5597941089366 43.097586511724046 0.3644226338879416
1.347896237311694 13.130575846189238 722.3403366774074 44.77054202455893 0.36938038561771325
1.3708808008065845 13.12901245659 654.7166334263164 46.50475273040968 0.37442083004262994
1.393809635064375 13.126719614471861 593.8372778359135 48.34258263648752 0.3797542305890136
1.4166618180832287 13.123668916854275 539.0718834738202 50.20250041462482 0.38494618587817
1.4394397201904081 13.119866024946402 489.708288196708 52.176962678434805 0.390457891779543
1.4620976520678972 13.115156906052428 443.568723788769 54.215673346662506 0.39600692049745095
1.4846356741224085 13.10962548738309 405.0797018977488 56.3379008919618 0.401678265342157
1.5070380208937655 13.103227061829333 368.8380955340677 58.57293754230051 0.407612673013592
1.529296308166774 13.095859000308321 336.09586292149646 60.85962453247721 0.4135101145699753
1.5513671019097612 13.087603116435242 306.50764386146056 63.28847732534411 0.4197742064446065
1.5732475347324768 13.078278697590402 279.709070025254 65.77513719140285 0.4260080056188066
1.5949023016212347 13.067928297842146 255.47393923519314 68.39905522375787 0.4325514615332568
1.616335945822014 13.056605069684405 233.52980659119257 71.12184119809658 0.4392170759779721
1.6374986719124764 13.04412775461916 213.63329551941834 73.96395943023522 0.4460770564238296
1.6584153388967096 13.030573575724038 195.57681284316735 76.94207765107019 0.4531787105503795
1.679020333807551 13.015864547117303 179.18985276273511 80.02815751690575 0.4603772165679357
1.6993135240247441 13.00003230578779 164.31851476388806 83.28422364934153 0.46792962239873803
1.7192867741515603 12.982890035732535 150.78422656446193 86.64359626237912 0.47554751494259295
1.738897345361869 12.964630718607962 138.48511436808244 90.20231197807324 0.4835944390846788
1.758144152074162 12.945156734693857 127.29947828798076 93.86870497293035 0.49168935322502627
1.7770023598728244 12.924368310715838 117.10710679661946 97.75882291703797 0.5002610304897709
1.7954360086961494 12.902280984336835 107.82015945628743 101.77053315411443 0.5088877763878672
1.8134483459074606 12.878942827627823 99.35502399462975 106.0253909861567 0.5180119819706083
1.830986874238878 12.854230346778033 91.63591370850298 110.425862077154 0.5272234488900103
1.8480704288873326 12.828194782776496 84.58939087296658 115.08415828050724 0.5369338760400166
1.8646562260746051 12.800778682697297 78.14732534561986 119.92331619097051 0.5468369556614663
1.8807440121382595 12.772071936510992 72.26165211607241 125.029227886413 0.55721295411647
1.8962753798703287 12.741828748029763 66.8829448132575 130.36476315267726 0.5678993229440682
1.9112585628284404 12.710160781481015 61.956672285924036 135.96993913736964 0.5789989976035986
1.9256914522115218 12.677228454779781 57.44760404055426 141.86818400149633 0.5905589593934929
1.9394891787423523 12.64261325279289 53.31623597542721 148.0328181568811 0.6024400670842067
1.9527214694688149 12.606737321634178 49.52954630131024 154.5578111250864 0.6149368613336152
1.9652915906628983 12.569200476287278 46.0530047734683 161.36476367665648 0.6277517199189347
1.977251043515834 12.530384411244023 42.86269120888638 168.5575857455736 0.6411898550681657
1.9885215282702833 12.489934860921496 39.93593793255675 176.13685516486518 0.6552067862072216
1.9991164260717322 12.448033814450755 37.24489844090322 184.08655107232946 0.6696860351310461
2.009008295619874 12.404613008503114 34.773203421083004 192.49982480152224 0.6848856901010997
2.018197148259407 12.359722518388544 32.496885957710745 201.36020705091335 0.7006878857107239
2.0266550381789976 12.313314955588337 30.406609771863575 210.69278451006738 0.7171303945443547
2.0343547564983595 12.265367913910389 28.477879949360105 220.5748369248759 0.734396922734458
2.0413030684282387 12.215917042674445 26.70488134687541 231.017350366972 0.7524521774654429
2.047481964505784 12.164957055387523 25.06843102259858 242.02686731064372 0.771217829747811
2.0528782830862538 12.112530598902358 23.560904962299876 253.69835405457596 0.7909214070024464
2.0574541572535687 12.05855992687434 22.171925870840305 266.06218981616684 0.8115714510164544
2.0612595810556322 12.00322197913715 20.88887970210413 279.0833507102406 0.8329711699046514
2.0642063422526666 11.946236941939288 19.705354056002186 293.04730092298445 0.85592032256104
