M[M_sun], R[km], Lambda[1], P_c[MeV/fm^3], rho_c[fm^-3]
0.23848912294887037 16.21570186450063 2784644.0411725277 3.4469561053153734 0.1694538074003404
0.24847690015270976 15.87270507345656 2285407.6986010913 3.632636029363474 0.1719333771982819
0.2587557422160806 15.56919537821409 1884267.1453099868 3.817155528598436 0.17421979348429376
0.2693212233957161 15.29977786458256 1560334.801403563 4.013259073284666 0.17662405951473933
0.28016666145510777 15.059976086237201 1297426.9563409898 4.2173798025594245 0.17905581793663974
0.29130739507565595 14.845656457978123 1082719.0709810192 4.424261854414357 0.18138777181416532
0.3027233585334763 14.654011390609435 906765.4268050957 4.646144354989386 0.1838888092552181
0.31442507942073655 14.482406747689884 762084.5927475952 4.868646532088093 0.18625533291863922
0.32641815254778206 14.328470529179036 642383.0566450201 5.1021617581950505 0.18869333813710457
0.3386831006188828 14.190027592233292 543179.7413040117 5.3493832083066 0.19124916061834812
0.35124025765729455 14.06579841411184 460618.5478876392 5.595238511039327 0.19362948129917462
0.3640789431196434 13.95370961543399 391611.37722114165 5.858133545891974 0.19617477717602072
0.37719269614683076 13.853037512898132 333831.81317888875 6.128666582418908 0.19869982512499118
0.39059922607441755 13.762274713307592 285246.871198114 6.404986105505438 0.20116406131754677
0.4042889628245814 13.680658778674582 244297.4824620243 6.7002073873750305 0.2037968646731312
0.4182559804973446 13.607068958259669 209696.8416747505 6.9969521370416565 0.20629700250645208
0.4325189731576162 13.540928639470158 180351.02905804274 7.306774549637028 0.20885137482481908
0.44706027938374054 13.4815268218012 155442.23465318515 7.637532138412387 0.21157835000321265
0.4618873843375053 13.428290927799699 134227.37631035584 7.963688554122125 0.21408461711310725
0.47700078785402983 13.380486824073847 116123.48358986572 8.310555418761547 0.21674436350122941
0.4923883693874849 13.337790054836535 100646.78353617562 8.675331118605467 0.2195078104504425
0.5080586083888331 13.299652836643832 87371.7803964734 9.039586785231196 0.22210887606402707
0.5240072921990105 13.265685469239525 75977.3322886705 9.427592800602712 0.22487953743436565
0.5402303854603527 13.235599112440248 66181.85361565652 9.8294003687129 0.22767037040170582
0.5567406343026705 13.209046321482809 57730.4494587627 10.23666747685084 0.23035938147750723
0.5735330543658714 13.185655495859418 50428.14326279418 10.670256198618334 0.2332221829458263
0.5905856445006047 13.165287587943693 44118.99660777817 11.113779884815632 0.23604470275258269
0.607926899302159 13.14757429248685 38651.96610284598 11.568740546413096 0.23883906343116906
0.6255334671338026 13.132251092032389 33904.1316399758 12.052871570654647 0.2418125879831034
0.6434010738261935 13.119080341173667 29779.693319004255 12.542957810550316 0.24469325156413924
0.6615397749186359 13.108117487253399 25985.033792169255 13.051135386915547 0.24761133724759954
0.6799446387350417 13.098919247588887 23062.018898172675 13.591673925257316 0.25071524785572924
0.6986030172621761 13.091533579990584 20331.520059997165 14.13352536468164 0.2536676010700496
0.7175166402269729 13.085622110346948 17813.34412752554 14.701331197663022 0.25672102781787276
0.7366763208756496 13.081042420050235 15856.443839748492 15.305095273712935 0.25996782324000783
0.7560789460640824 13.077745097242 14026.87407897471 15.904258571401982 0.262974151345171
0.7757295154927043 13.075533548929817 12420.613003855151 16.538775357816935 0.2661476477926732
0.7956182892683986 13.074522626384116 11011.38003608318 17.2088963472843 0.26948039560706316
0.8157378020375164 13.074221670655106 9771.363138817465 17.876848226150262 0.27261298006387297
0.8360851347740733 13.07478576094624 8623.871654877126 18.5861615058854 0.27593954268823373
0.856648699713644 13.076074485668206 7717.111621983864 19.32776191981127 0.2793701810241987
0.8774313654765504 13.077970547483249 6868.259108680077 20.0753217263743 0.28267151175018457
0.8984227323685691 13.080336004890759 6118.162836286437 20.869067161624255 0.2861768047996454
0.9195969079969364 13.08316707965222 5455.428449125133 21.689811579979626 0.28971917355907745
0.9409715072334788 13.086317427800855 4868.863293765284 22.527543000101048 0.29321012448851186
0.9625298910857373 13.089747273724877 4349.332101143392 23.416983602010575 0.2969165552386713
0.9842482886445889 13.093355858019168 3888.842992762022 24.325273500698597 0.30055973374647343
1.0061448348045203 13.0971297711319 3479.8693199346512 25.265097006699044 0.3042324345566996
1.0281945779480026 13.100974636030084 3116.6204993636557 26.26294341063518 0.3081318808599886
1.0503958588826308 13.104937846536622 2793.6844622471103 27.26925060816156 0.3118935001734909
1.0727228192502292 13.108554467498246 2506.052728110985 28.325034161242787 0.3157997910419769
1.0952053627952996 13.112459652201599 2250.3147750824696 29.4413342754492 0.3199158946009045
1.1177570809267892 13.115728761999014 2021.9865765471613 30.561247683595163 0.32385210455454916
1.140436634098263 13.11909418318872 1818.4929002177755 31.74961153930584 0.3280289003705255
1.1631933406009045 13.122132839138096 1636.8195702261894 32.984993295787696 0.3322967574076692
1.1860383815646012 13.124830876869874 1474.4143917646122 34.24800143356149 0.3365234262504026
1.2089548503507028 13.127155818531016 1329.086745162827 35.588534533068234 0.3410095331208817
1.2318919230457828 13.128977182764855 1199.220597122432 36.95627129209879 0.3454171030439028
1.2548866137741708 13.130451002085714 1082.7813532328146 38.38349328846631 0.3499404334411246
1.2779192196541356 13.131419827237792 978.375274411788 39.89225021549725 0.3547060231667735
1.3009376593031226 13.131802533534175 884.8244013894009 41.4153430371554 0.35932310501795994
1.3239768838560688 13.131487456011929 800.6633078564354 43.03175163039605 0.36422306296788204
1.3469742534016733 13.13067266914335 725.2383086494863 44.70311829102021 0.3691844200521244
1.369945404564367 13.12908617776803 657.2861288001809 46.43203663356986 0.37420948234209883
1.3928616681005732 13.12691097048181 596.2722341772959 48.26776634176037 0.37954498946478354
1.4156970520229402 13.123817650336903 541.2593620987944 50.12205036240248 0.3847216097818186
1.4384650300949477 13.120029817211885 491.7111668003208 52.090211830005686 0.3902157270281574
1.461116139624291 13.115393472275535 447.0554154552625 54.1265369971586 0.39576871655115187
1.4836572060457833 13.109940915626838 406.7607182777004 56.24184412542768 0.4014215675865892
1.506042302167718 13.103519388316668 370.39173286782625 58.474025298816656 0.4073575750584881
1.5282922049923284 13.096255067351988 337.50553851287435 60.7530890512918 0.4132353560321119
1.5503577527637928 13.088051645070502 307.796066247982 63.17365864431905 0.41947808525975033
1.572219757332261 13.078710555172789 280.9083964421244 65.65676094231857 0.4257128021263005
1.5938857387432914 13.068477590161871 256.56023094582076 68.27152719622515 0.43223343558285465
1.6153099527515735 13.057138651293757 234.53199825994463 70.99006906817131 0.43889901945788284
1.6364894358508115 13.044779729138174 214.54314162726405 73.82204309982782 0.4457345149909878
1.6573857216988204 13.03124100686158 196.4219928054814 76.79514411112059 0.4528359773686439
1.6780010946263697 13.016653931616407 179.97243253002688 79.86994574426409 0.46000817608715705
1.6982854829254859 13.000729249020226 165.02685911753883 83.12009443021618 0.4675574342259372
1.718272877614843 12.983805694036953 151.44964807387214 86.46688931991359 0.47514680485338423
1.7378906793248734 12.965597502062572 139.09701989822676 90.01862573469474 0.48318888398706716
1.7571453915683233 12.946170796358045 127.85770467584592 93.67094610832252 0.49125272762822353
1.7760102120656622 12.925489454370837 117.62335167781112 97.55286066141441 0.49981813109303924
1.7944561160788877 12.903507317640274 108.29849217461788 101.54877545008621 0.5084109105998259
1.8124769894225286 12.880234071601672 99.80031327290675 105.7940235893617 0.5175276626607586
1.8300469127911487 12.85569930851217 92.04884062243597 110.17671084135797 0.5267019028284627
1.8471380393716168 12.829685354630987 84.96265219419487 114.82375047707612 0.5364009653024171
1.8637332173208276 12.80235397109037 78.49350991269324 119.64282272240051 0.5462629406770536
1.8798326803224505 12.773648003775131 72.5805035599949 124.73553704913317 0.5566247303578712
1.8953875285582058 12.743556556203318 67.18028159989653 130.04831265569186 0.5672655146085025
1.9103953930711912 12.712053646630592 62.23132457402171 135.638028486511 0.5783484863871313
1.9248449248483894 12.679119007528989 57.70059207894113 141.51039991104568 0.589857738859263
1.9386932528969265 12.64467937926517 53.54878131244975 147.6569320644265 0.6017191376119039
1.9519416229990991 12.608891042439044 49.74523273118112 154.16215509767216 0.6141919940818855
1.9645510421361863 12.571531654925368 46.25450317775624 160.9381462108071 0.626948564255153
1.9765194151213075 12.532706346094011 43.05102535395693 168.10779564837162 0.6403580233346926
1.987839687602735 12.492460905373816 40.10920736565615 175.6515476623931 0.6543092693797945
1.998467587161793 12.450684837879887 37.40853188319791 183.57405849296802 0.6687554778145179
2.0084025745472887 12.407427037770844 34.92386677308015 191.9577316445831 0.6839188850735649
2.017617393847651 12.362618688518197 32.63953966363084 200.7749009351431 0.6996440118153797
2.026113410577836 12.31634323026253 30.536921047291425 210.07269441047492 0.7160417937101126
2.0338737054767684 12.26853649966192 28.601028144169884 219.91687365483384 0.7332592948529988
2.040868546015813 12.219199621585073 26.816997419277538 230.30625996393692 0.7512226920130421
2.047088412746344 12.16836960537445 25.173696141853032 241.27115755797652 0.7699320114270105
2.0525383927886183 12.116128996437537 23.65934173194277 252.89407517980553 0.7895738382877806
2.0571914820866084 12.06233230523604 22.262133723451406 265.21700352813804 0.810193240771785
2.0610215431220316 12.00702780699034 20.973601366348795 278.2459438891511 0.8317231238736268
2.064016592373654 11.950210810471932 19.78459411486013 292.0610432716714 0.8543100427130985
2.0662063249234364 11.891994870464847 18.687412247116853 306.7364353200444 0.8780554152262245
2.067588061225452 11.8324484670571 17.673935642323404 322.33411257433823 0.9030217347702874
2.068083372179894 11.771361513240304 16.738590398775173 338.9222782183544 0.9292905178786816
