M[M_sun], R[km], Lambda[1], P_c[MeV/fm^3], rho_c[fm^-3]
0.23848912294887037 16.21570186450063 2784644.0411725277 3.4469561053153734 0.1694538074003404
0.24851779911247227 15.871594795973442 2283673.7772681043 3.6333797819331126 0.17194330927046617
0.2588362731013852 15.567038954453908 1881491.5370528877 3.818616342653219 0.17423770333704186
0.2694455104507704 15.296810712657484 1556935.5106434184 4.015613468214406 0.17665292483566397
0.28033872508581253 15.056362932431366 1293696.3988084844 4.2204662422790635 0.17909060797766763
0.29152426644090346 14.841769054042242 1079047.4501655626 4.428398054014987 0.18143439464398758
0.30299586411328505 14.64982329923509 903052.9810015808 4.651471224144542 0.18394885319363646
0.31474526818189513 14.478068826028158 758509.2068192937 4.874748691029708 0.18631904223469362
0.32678621564420934 14.324002921232005 639118.9854281156 5.109630691952305 0.18877131720416643
0.33911397503556856 14.185611819103075 540099.4741990303 5.357653307837616 0.19132923002798607
0.3517283418867225 14.061187660927901 457731.85115105985 5.605060966303592 0.1937245802990422
0.3646250160574351 13.949260316814318 388970.4208536976 5.8696944600096 0.19628670757840605
0.37780483868204484 13.848683197070885 331383.3908522882 6.141069447685292 0.19881043471616092
0.39127849662927505 13.757980113181247 283010.44711237843 6.419336863251743 0.20129204234557557
0.40503574310650625 13.676409480043628 242274.3456899386 6.7167296652169375 0.2039442114642182
0.41907451650297545 13.603023079372825 207854.1434481399 7.014348431330813 0.20644042858141595
0.43340478841447866 13.537171713507508 178701.26876680664 7.32657806654773 0.20901464756864432
0.44802421582782825 13.477836487069622 153943.99679361918 7.658979724883562 0.21174813504861634
0.4629279243396075 13.424812841413434 132874.69533400575 7.9870764667722325 0.21426395369015822
0.4781160262331254 13.377158574979353 114906.08252918127 8.33688415092205 0.2169462500387069
0.4935831841645386 13.334719441987428 99549.91340414589 8.702646258497607 0.21970286155770968
0.509342244612351 13.296793860500053 86387.1887116947 9.070128722686423 0.22232696898766763
0.5253758848884965 13.262935571802792 75086.32787146154 9.461696021489768 0.2251230606607399
0.5416846467279864 13.233131458483406 65379.054054035194 9.864543239131184 0.22790240379183713
0.5582913142853533 13.20671970943039 57006.55798649736 10.275697168644342 0.23061707789202418
0.5751670277243169 13.18360878574638 49781.87662206183 10.713565874435492 0.2335081382700708
0.5923174466754445 13.163297573810109 43533.63428078405 11.158184369103092 0.23631743434306812
0.6097496979488928 13.145885212516932 38124.81881697294 11.617795858453917 0.239140360326952
0.6274541090071687 13.130581490875489 33426.278714918895 12.107038119847694 0.2421452780109144
0.6454238367752114 13.117852222433473 29354.2034913529 12.598308919313851 0.2450110917947173
0.6636640572022675 13.106967769963381 25805.72705501143 13.112025118626208 0.24796098166844452
0.6821645972169563 13.097969366031242 22713.999850573273 13.658640368197284 0.25109978630745133
0.70091615431471 13.090675905288204 20020.19927372732 14.201803070870888 0.2540347705534337
0.719940769333412 13.084924101855705 17662.903378417333 14.776182075124334 0.25712354511879293
0.7392058195330716 13.080512698147533 15602.526805935631 15.383245754660095 0.26036833797910475
0.7587180888991215 13.077351469628283 13797.157466053513 15.987750328225362 0.2633917302009988
0.778478305231197 13.07536044779996 12214.48885017638 16.630043159564032 0.26660411805605616
0.7984827145559794 13.074425892082566 10824.32810008289 17.301873470730964 0.2699164430244945
0.8187098234718984 13.074271176954303 9602.09815149836 17.978226611821658 0.27308842801942007
0.8391678253556599 13.074919810843998 8526.360940108212 18.696716043084503 0.276458025285285
0.8598400673108901 13.076288795826084 7578.845250124046 19.440302426838354 0.27986717595424276
0.8807402678440639 13.078262405409278 6742.935834868664 20.19777348300975 0.28321227617208433
0.9018351491172563 13.080698544653618 5969.373797843782 21.002334686548586 0.2867653331969004
0.9231371611628543 13.083639076721058 5353.094758244732 21.825435080928674 0.290284336778839
0.9446219545655341 13.086847599020347 4776.156463552903 22.674852432467656 0.29382398471564786
0.966287784267319 13.090347467869893 4265.444803188893 23.57703626802273 0.29758351840819475
0.9881224859957378 13.094069074324734 3812.6752128209064 24.48809535391964 0.30119601912179067
1.0101374116671338 13.09782009734771 3410.682992850754 25.441689156747525 0.30492253235529876
1.0322935399763549 13.101672457138362 3053.9304645998727 26.45411641846357 0.3088775872692641
1.054598379100917 13.105529596452321 2736.7212036770225 27.46415189170397 0.3126146149341215
1.0770538327136618 13.109346457555395 2454.4502508918686 28.536161034982353 0.3165809388222904
1.0996173374052283 13.112983719053318 2203.1773905788123 29.656618837725176 0.320672564920889
1.1223015467117141 13.116466873757505 1979.3683028523549 30.794119821902445 0.32467059071791166
1.145095341458946 13.119850142494604 1779.7592524571205 32.00162133572458 0.3289146505203711
1.1679465342138984 13.122695586823857 1593.9746819962209 33.242129847929284 0.33315726734482637
1.1908940210482306 13.125322556728213 1442.161006046501 34.525916414163284 0.33745347139762466
1.2139031977489407 13.127582594618787 1299.8312773336033 35.889055483255255 0.34201522936206585
1.2369587607831696 13.129395764951202 1172.472740693095 37.263049469769726 0.34638938280121806
1.2600542281083313 13.130710747956535 1058.3698073486732 38.71485093311557 0.3509906135183716
1.2831497059902441 13.131473869466676 956.1971315241999 40.23125632401773 0.3557336814478934
1.3062815488315878 13.131723894824498 864.5039950823265 41.781142537352444 0.3604319844043746
1.3294018784631494 13.131411322887722 782.1989024290027 43.426677286225136 0.3654202349669669
1.352479828021622 13.130339790367694 708.294686142797 45.107567341791906 0.3703599421246427
1.3755164044819477 13.128606259010173 641.8734425343814 46.86831051969823 0.3754775025830382
1.398516462256535 13.126194004734202 582.1077947369469 48.71580655481048 0.3807960841158492
1.4214234232770302 13.122928701412972 528.3373054996349 50.604806096186486 0.3860692210659586
1.4442233434583516 13.118866042527946 479.911981473774 52.61087299568291 0.39166915121968454
1.4669572334851184 13.11405633711236 436.22586701692836 54.66150937518509 0.39719835252251645
1.4895379377130034 13.108306330243407 396.84360900272657 56.818458801765686 0.40296248655132266
1.5119872758664419 13.10169937080985 361.30140194740176 59.06777750808992 0.4088888816903992
1.534253529356428 13.094037664114078 329.1843097752558 61.39272323847759 0.41488499380614824
1.5563679170456897 13.08558873107642 300.1636582026245 63.85495716680371 0.42121951253943424
1.5782818610747706 13.076106899128911 273.9063086296252 66.36762354404951 0.42748553208139095
1.5999435275468024 13.065418306582105 250.15025091007084 69.03749793059892 0.43414359271060426
1.6213819478492393 13.053746722532933 228.63709641863215 71.78153559870104 0.4408093709913231
1.6425607175455021 13.040969571119941 209.1200538998188 74.6746093175431 0.44779234197235324
1.6634583824409004 13.027060745501128 191.42914689322473 77.67786217978276 0.4548949815439457
1.6840725169622612 13.01202116102469 175.37631378320836 80.82061202963236 0.4622256744259625
1.7043578480717179 12.995894431183327 160.81334125437877 84.10633664672746 0.4697938896874237
1.7242894784183684 12.978376096236465 147.55890498931254 87.52892995765292 0.4775551448583323
1.7438756637207864 12.959720756889913 135.51571782655583 91.12264326278157 0.4856264096728945
1.763093145676 12.939864971497604 124.55394670734073 94.85979570866857 0.49387755138663864
1.78189840230345 12.9187266299582 114.57931014048063 98.79106937131547 0.5024807640545141
1.8002742753867906 12.896301065491299 105.50088350989952 102.88223087987839 0.5112783612578866
1.8182078071373253 12.872380183321932 97.19362848696181 107.18532296917023 0.5204400572537625
1.8356994320624662 12.847213910767737 89.64371995556262 111.6752813149109 0.5298388470460413
1.852693519296231 12.82075882632602 82.75416068798839 116.39010601565239 0.5396064287117595
1.8691957017170782 12.792857693086498 76.45085907839271 121.33037447563449 0.5497164257020944
1.8851744041885834 12.763587911621576 70.69425550957654 126.50259520010903 0.5601639132512051
1.9006111484844377 12.732851325683956 65.4224785425401 131.95275009940605 0.5710798499876157
1.9154855340238266 12.700747248075386 60.609872826444736 137.6356450762704 0.5822636123238191
1.9297884397166263 12.667329105374316 56.20440608844888 143.65354433483017 0.594040853521969
1.9434590796508164 12.632120021342947 52.15900189264652 149.91993097756367 0.6060594487993073
1.9565337482484833 12.595633920833363 48.45953102328882 156.54438463310285 0.6186768108017074
1.968981683384329 12.557666312704335 45.05855540808328 163.50742317137713 0.6317855189227201
1.9807534204336787 12.51814910843976 41.94324490080186 170.81689052025192 0.645368162725128
1.991841330090404 12.477130578558867 39.08247113355373 178.55148911146404 0.659635758087937
2.0022981983722237 12.434723995659057 36.45104617479211 186.661921653029 0.6743622588134014
2.011973518370348 12.390645414913973 34.03606092231964 195.22432097992095 0.6897447379770182
2.0209590874847363 12.345160807196361 31.815200505480867 204.2930096429566 0.7059041378970127
2.0272088975837215 12.30214119014671 30.06967724243343 216.14278418770243 1.5680136578067474
