M[M_sun], R[km], Lambda[1], P_c[MeV/fm^3], rho_c[fm^-3]
0.23848912294887037 16.21570186450063 2784644.0411725277 3.4469561053153734 0.1694538074003404
0.2484823291699476 15.872358925563958 2285096.6052074647 3.63267066865116 0.17193383977134685
0.25876041989685744 15.569081485038513 1884102.7616461087 3.8172235556002097 0.17422062750802228
0.2693301826989356 15.299471649488469 1559969.130882531 4.013368697436905 0.17662540352729028
0.28017731145763164 15.059647447565489 1270969.2303880707 4.217523496165158 0.17905743763664786
0.29131803974726206 14.845455245075783 1082512.2205310378 4.424454394815698 0.1813899421103871
0.30273606719683793 14.65383733118131 906640.1879844947 4.646392286306957 0.1838916039123292
0.31443886994449094 14.482324190400764 761923.8626041437 4.868930522400854 0.18625829790673035
0.32643696943784845 14.328236457290632 631578.1217421185 5.102509308626724 0.1886969667217593
0.3387025462643458 14.189829051010845 534414.9920847845 5.349768008898013 0.19125288617885283
0.3512623918655645 14.065520429157534 460465.3810555727 5.595695477668288 0.19363390555647259
0.36410000619280264 13.953534463801816 391511.54942233715 5.8586713130675445 0.19617998372766005
0.37722223043604897 13.852864638452596 333724.5957262003 6.129243477053728 0.19870496991035608
0.39062919068668184 13.762114505791558 285142.90892319905 6.405653507108957 0.20117001325017894
0.4043226114155961 13.680477649509864 244187.10530421414 6.700975665576216 0.20380371623008298
0.4182948885548352 13.60693335055276 209605.9871052912 6.997761016641303 0.20630367142249634
0.43255837903398786 13.540788400082683 180281.03957032695 7.307695223733451 0.20885896544554416
0.447105286450499 13.481357807497984 155369.62939980798 7.638576951987802 0.21158696410847552
0.46193381840377107 13.42812691493683 134165.94250445158 7.9647756648146055 0.21409295298785508
0.47705081102926533 13.380319537750507 116060.6635646772 8.311779040634232 0.21675374613240025
0.49244302613717456 13.337602767370651 99539.93392507988 8.676600544896584 0.2195168751304937
0.5081160899576406 13.299511349626702 87324.63250070342 9.041005959993477 0.22211901006333595
0.5240719485638972 13.265500400277398 75935.17076210471 9.429177212743744 0.22489085135564507
0.5403017017419108 13.235559177567072 66143.86710716355 9.83103305006045 0.2276811503005464
0.5568120903757967 13.208959760711558 57697.265540584805 10.238480457019143 0.2303713518125904
0.5736089301733933 13.18559938958614 50401.51211035322 10.672267674382157 0.23323546386269767
0.5906709842740143 13.165172198078377 44092.4063478471 11.115842188150099 0.23605736938473704
0.6080142719171816 13.147392754928275 38624.45399883589 11.571018495269055 0.23885305455446437
0.6256226550262161 13.132166493024545 33881.55185010718 12.05538646353423 0.24182803441257905
0.6434920005516358 13.119086780257794 29762.39631231931 12.545527698168371 0.24470800851646285
0.6616404471547408 13.108103780061604 26172.205835707646 13.053961974952742 0.24762756823941814
0.6800472797075525 13.098879483360113 23045.82921811755 13.594782093306756 0.250733095752033
0.6987057283984038 13.09144219030067 20316.913215705306 14.136694412161216 0.2536846429068487
0.7176281857619728 13.08560439919068 17932.030609867474 14.704804765138752 0.2567397072382392
0.7367990395998455 13.081049848289279 15845.188510380305 15.30890239801544 0.2599882963921002
0.756201422152966 13.077717201825298 14016.331505338569 15.908132532976166 0.26299352672428883
0.7758586744539336 13.075521079144128 12411.275384595245 16.543009414227004 0.2661688241638324
0.7957526530251456 13.074516606851251 11002.722440449643 17.21320976696394 0.2695006248359518
0.815874332126399 13.074253247921975 9763.313836336736 17.881550614242443 0.27263503349064444
0.8362316203732134 13.07480151448188 8616.695234686666 18.59128864700638 0.27596358813685307
0.8567999314424184 13.076075972067873 7710.693493365845 19.332981266707115 0.2793932304044965
0.8775803804612436 13.0779088572033 6820.235785650185 20.08099976062632 0.2826965867592672
0.8985832445460965 13.080347029687292 6112.832251716462 20.875245633742257 0.28620408981371886
0.9197633178875524 13.083110870423353 5450.607788647617 21.69609942528151 0.2897453759419337
0.9411454954767932 13.086327016360393 4864.407697807604 22.534371436091444 0.29323857959285043
0.962703763065085 13.089732120583198 4345.27689171199 23.424401407228757 0.2969474663318914
0.9844286895888059 13.093393973779712 3885.1747105428517 24.332819852587864 0.30058922385022274
1.006327940796702 13.097069700679592 3476.4732082731603 25.27328010068491 0.3042644129608576
1.028389791732804 13.100917602595809 3113.2762785952605 26.271820297115674 0.3081665705096526
1.0505851276672329 13.104761510053631 2790.790199870014 27.278280735027415 0.31192691071679246
1.0729334834779691 13.10866881901803 2503.7269475143307 28.33481423972078 0.31583597632933075
1.0953969264703112 13.112343411204218 2247.974696087241 29.45130722327585 0.3199509469685402
1.11796878508146 13.115834093315442 2020.0848917504566 30.572033366339095 0.3238900134781005
1.1406525269634602 13.119102224649318 1816.6781513874887 31.76128138025109 0.32806991688461673
1.1634133295243432 13.122090425119943 1635.1426165952184 32.99690086863057 0.3323366062143572
1.1862632046883943 13.124851187541674 1472.953167345696 34.260868764151674 0.3365664868955941
1.2091857521428293 13.12718485467799 1327.7025022175644 35.6024457851446 0.34105608725933584
1.232123090478554 13.129017100416593 1192.660272068171 36.970472592468646 0.34546211158063117
1.2551302513954121 13.13046354138479 1081.6294199279616 38.39882939703462 0.3499890385538812
1.2781585514286666 13.13140948130718 977.3667830198772 39.90794069252432 0.3547535870549936
1.3011868064751366 13.131742471656676 883.8408368882389 41.43227026005866 0.3593744179599857
1.3242273748425073 13.131446508167524 799.7890651610288 43.050022943643306 0.3642784503662018
1.347230571372656 13.130656865374164 724.4472519345193 44.72183061400565 0.36923880699815753
1.3702126297318873 13.129109668941304 656.5780166070566 46.45221724019327 0.37426813682151316
1.3931201112929303 13.12684605651289 595.5917306929716 48.28864951242177 0.3796036764236384
1.415966739645022 13.123809096853904 540.6505192778764 50.14437680313015 0.384783933978827
1.4387365825569474 13.119984020556313 491.145129530356 52.1142862179273 0.3902829306148815
1.4613868640935193 13.115354566989637 446.5609584310391 54.15127343083061 0.3958348210769803
1.4839345218370428 13.109895586666326 406.2891656609848 56.268500337889286 0.40149280244237007
1.5063134854849884 13.103457622409065 369.96367613044265 58.50147394327744 0.40742836602253557
1.5285565983756595 13.096110224771644 337.12404556564144 60.782652371959315 0.4133116008162027
1.5506385702084524 13.087875997441754 307.433941760483 63.2055196361276 0.41956025581388673
1.5725055251665971 13.078644820127224 280.5828731348006 65.68960912893635 0.4257947180468257
1.5941736816140677 13.068317630888874 256.26988145326294 68.30691389873236 0.43232168198573706
1.6155802292189392 13.05698761310307 234.25588602017828 71.0266334020795 0.43898727427177114
1.6367695637722128 13.044564730881921 214.29195997724477 73.86142112317778 0.4458295611671541
1.6576701465533226 13.031053715179583 196.19245974171898 76.83591420516186 0.4529310765819019
1.678278732224884 13.016406882107498 179.75807283056227 79.91384395274432 0.46011057185513543
1.6985700469837133 13.000564561204584 164.836769038478 83.16563439520763 0.46766070307989205
1.7185555712442744 12.983555351234731 151.26524588864618 86.5159176835304 0.47525798418615145
1.7381827130739698 12.965427568254587 138.93131930890726 90.06959034547845 0.48330140715331504
1.757424878033742 12.945895875776598 127.70633008576435 93.725813558785 0.49137386775183184
1.7762865512360362 12.925193332309407 117.48140285311688 97.6100038216513 0.49994101123493534
1.7947333010920263 12.903176395553581 108.16218283447844 101.61029905748988 0.5085432104162235
1.8127469632387436 12.879843201351177 99.67223486937839 105.85613437313458 0.5176552560232265
1.8303041090288168 12.855285241247925 91.93289207408817 110.21020553870476 0.5267313245691648
1.8474042763292426 12.829302356453052 84.86035076129822 114.84434077456005 0.5363911871328176
1.8637558283923352 12.802091486157737 78.47527413115924 119.83488149245501 0.6470193359031313
1.8747241767529872 12.77442883478213 73.92755168542217 125.50146365357297 1.0162037622727977
1.8794194643565725 12.742240312263304 70.92853325312785 132.18987676480893 1.3720476981587644
