M[M_sun], R[km], Lambda[1], P_c[MeV/fm^3], rho_c[fm^-3]
0.23848912294887037 16.21570186450063 2784644.0411725277 3.4469561053153734 0.1694538074003404
0.24848011832899985 15.872481097516664 2285052.5339631857 3.6326718383101624 0.17193385539097375
0.2587605793810387 15.569073017781708 1884124.9256505829 3.817225852670984 0.17422065567053838
0.26932836197592847 15.299536940750126 1560107.2401555555 4.0133723991460855 0.1766254489109352
0.2801761816743698 15.059675499684067 1297148.6761713638 4.217528348333724 0.17905749232980853
0.2913177974636908 14.845470540388265 1082552.0388090587 4.424460896461435 0.18139001539629007
0.3027362257626545 14.653821030622847 906678.2479829636 4.646400658435692 0.1838916982821302
0.3144419521017109 14.482192906836259 761856.8551480747 4.868940112211285 0.18625839802871497
0.32643786934787744 14.328232570029563 642248.9875461889 5.102521044823867 0.18869708925299788
0.33870434338909505 14.189725825193854 534399.3467482282 5.349781003022482 0.19125301198530426
0.3512637203467264 14.065507961532115 460431.21521278034 5.595710908837502 0.19363405495789204
0.36410274186864805 13.953438907975471 391492.3139662599 5.858689472897687 0.19618015954741566
0.37722251004175433 13.852821133371185 333718.6899262153 6.12926295823946 0.19870514364488784
0.390630237451693 13.762110192786617 285138.48894117 6.405676044791836 0.2011702142427589
0.4043252214165708 13.680448389134591 244195.89156581028 6.701001609983229 0.20380394760405918
0.41829390909279635 13.607024436278127 209611.517094911 6.997788332207225 0.20630389662933296
0.4325601702698117 13.5407859381567 180275.88822363006 7.3077263147877405 0.20885922177989957
0.4471070863106466 13.481357327400433 155367.45975411707 7.638612235485141 0.2115872550079884
0.46193455962646535 13.42813578345696 134168.88953366975 7.964812376759487 0.2140932344920077
0.47704997399891674 13.380227441338544 116064.09087080015 8.311820362900882 0.21675406298811833
0.4924446803389825 13.337635438004998 100595.73762905713 8.676643414065063 0.2195171812493279
0.5081172476600253 13.299550764943383 87330.34837380335 9.041053886604026 0.22211935229619625
0.5240741030021043 13.26549706914508 75930.63958106229 9.429230719959472 0.22489123343831846
0.5403018468252477 13.235588936887124 66141.76934138658 9.831088187431334 0.2276815143490984
0.55681334843716 13.208970928674365 57698.16959566159 10.238541683742355 0.23037175606653965
0.5736098122300385 13.18562736797921 50400.71672901701 10.672335605099162 0.23323591238025965
0.5906728853240094 13.165175994008468 44092.568477749606 11.115911835428049 0.2360577971571387
0.6080153176935885 13.147416361235798 38624.11945191286 11.571095425846005 0.23885352706076515
0.6256257308986981 13.132174944768318 33881.89051474877 12.05547139683837 0.24182855607149473
0.6434953439508135 13.119082823755267 29521.658298909766 12.545614488767361 0.24470850689029153
0.6616470735915536 13.108077965014878 25965.59385352307 13.054057435641903 0.2476281163991232
0.6800489166480116 13.098893183789047 23044.960514357008 13.594887064498517 0.25073369852347765
0.6987081610353546 13.091441307663358 20316.327798193284 14.136801439383033 0.25368521845532477
0.7176393271971521 13.085544011481131 17930.339539249115 14.70492207778253 0.25674033809749347
0.7367989159065078 13.081064713359206 15844.446414636346 15.309030976946094 0.25998898783682167
0.7562052020525678 13.077723169263558 14016.022897828818 15.908263369131141 0.26299418109322265
0.7758645528405856 13.07556672022924 12410.495022870437 16.543152413149073 0.2661695393640933
0.7957546636364857 13.074512051366613 11002.622619723983 17.213355446150672 0.2695013080473783
0.8158804570159089 13.074251906131538 9763.221625910042 17.881709431581022 0.2726357783178424
0.8362328459436418 13.074844667208298 8672.066464749816 18.591461811346868 0.2759644002491304
0.8568055074819008 13.076061110741602 7710.080830546948 19.333157545034364 0.2793940088747312
0.8775842498171443 13.077896366070622 6861.782016254737 20.081191532321867 0.28269743365042604
0.8985901731118227 13.080350083714277 6112.626667057492 20.875454309226217 0.2862050113544182
0.9197694702704385 13.083129388529688 5450.248506188716 21.696311794552063 0.2897462609161446
0.9411499895731996 13.086337823676594 4864.395575389981 22.534602065617477 0.29323954066025093
0.9627109454461632 13.089758744651935 4345.209207182759 23.424651944893043 0.2969485103594532
0.9844360435316678 13.093369899714261 3884.9180515727758 24.333074731587857 0.3005902198822477
1.0063409111658241 13.097170601296112 3476.2953174518993 25.273556488236082 0.30426549304533795
1.0283873622783248 13.100916676212082 3113.3659565191824 26.272120120596895 0.3081677421785196
1.0505991517986681 13.104878580498903 2790.878880316871 27.278585733849003 0.31192803918115264
1.0729401815291517 13.108644246975203 2503.703947738998 28.335144571754956 0.31583719852397935
1.0954049219429867 13.112365777798985 2248.0243326475306 29.451644069204463 0.31995213089605407
1.1179765665339338 13.115837994272388 2020.0480950048106 30.57239766657301 0.32389129390049426
1.1406587583619445 13.119108121688578 1816.6083013388256 31.76167554783117 0.32807130228311343
1.1634250521304281 13.122124635961821 1635.0728984888276 32.99730306543027 0.33233795216980366
1.1862728268240181 13.124840295413643 1472.8351673211857 34.2613033824376 0.33656794134985507
1.2091923948301164 13.127186449319137 1327.7178085114415 35.60291566846951 0.3410576597283878
1.2321296587945259 13.129045166088702 1197.9494125393421 36.97095227213849 0.34546363184141543
1.2551392123650806 13.130437513389825 1081.5799279817454 38.399347412436065 0.3499906803130592
1.278169605461519 13.131416631376451 977.3242162505903 39.90847067696377 0.35475519364226266
1.3011949834095915 13.131741151548225 883.8074483843038 41.432842024326085 0.35937615119802924
1.3242300890393472 13.131452317744907 799.806663855088 43.05064011462085 0.3642803212494986
1.3472409818181623 13.130636918270884 724.3682688241523 44.72246268077713 0.3692406440860176
1.3702171293506575 13.129091086522912 656.5396744041562 46.45289890981526 0.37427011807894295
1.3931316710074455 13.126804208650277 595.5399622284092 48.289349318287265 0.37960562992975977
1.415974521453716 13.123807011007012 540.6306229126548 50.145130962941984 0.38478603921383786
1.43874665620817 13.119975253617147 491.1305163100497 52.11509942991135 0.3902852006938664
1.4613961297744966 13.115371868714368 446.545417181694 54.152109005597275 0.3958370540291705
1.4839297898987631 13.109797890957118 406.27160252758244 56.26940077076744 0.401495208718442
1.5063276920894049 13.103419481871944 369.92079667752364 58.50240114377776 0.40743075730336464
1.5285623375641326 13.096093927002604 337.11188224121605 60.78365101596393 0.41331417635219786
1.5506480462624805 13.08786838022045 307.4060392398344 63.20659590709121 0.41956303155238267
1.5725205438532555 13.078595152611864 280.5603566476438 65.69071874745785 0.42579748518352273
1.59418449246822 13.06830994724015 256.2516151811759 68.30810928237037 0.432324663001165
1.615591501389094 13.05699377425198 234.25008654292557 71.02786856719642 0.43899025557228627
1.6367821030520613 13.04460776904839 214.2814703303068 73.86275135169184 0.44583277192084186
1.657675421638725 13.031056507183028 196.18416197109332 76.83729146016508 0.4529342891294896
1.678285973251657 13.016388884870784 179.75139239319589 79.91532689593625 0.4601140309281196
1.6985956967802973 13.000558207580278 164.82295556934886 83.16717280094547 0.4676641916508098
1.7185661659845888 12.983580745637527 151.26024903959032 86.51757395210298 0.47526174002912064
1.7381868295343206 12.965375880689907 138.92614091354835 90.07131202673841 0.4833052083993888
1.7574336102512298 12.945905570342553 127.69933242873604 93.72766710784914 0.4913779601446959
1.7762889544367777 12.925174513144308 117.48204246562617 97.6119342533333 0.4999451624179994
1.7947362720098388 12.903127141785323 108.16333390024685 101.61237749681489 0.5085476798736025
1.8127559200767496 12.879863934750157 99.67314085455963 105.86038137362199 0.5176665688191944
1.83031610927354 12.855203192800575 91.92144349939943 110.2481669063911 0.5268514811726064
1.8474028161295264 12.829289291201974 84.85341674846035 114.89843435750285 0.536553801896715
1.8639891672919735 12.801856917880164 78.39527494828748 119.72326449694341 0.5464275604958172
1.8800838848190191 12.77316433801981 72.49359004830092 124.81976293059925 0.5567934236171712
1.895631373529743 12.743002764109495 67.09450122798651 130.1390626497431 0.5674472747992121
1.9106480614845491 12.711498694357687 62.149970234845256 135.73321112314846 0.5785350347024247
1.9250806762018704 12.6785334247443 57.626933570771456 141.61299884350854 0.590058822362284
1.9389268699089184 12.64409998128971 53.48212800227049 147.76472076341736 0.601925870586184
1.9521670448843622 12.608337399851031 49.686120110329576 154.27561159659138 0.6144055887820424
1.9647686176682144 12.570866921603269 46.195508238874474 161.06047678969023 0.6271788654152053
1.9767301105454964 12.532067707688803 42.99885135295168 168.23676909176615 0.6405965439327632
1.9880349238572166 12.491722792415276 40.059007058458754 175.7907004017879 0.6545666153399399
1.998651775012978 12.44991753005727 37.361953973328404 183.7210037983471 0.66902229344182
2.0085775992118236 12.40661030772227 34.87929518395979 192.11316166691807 0.6841960893236089
2.0177826501653695 12.361759283327808 32.59910498378783 200.9427147817376 0.6999433022020978
2.026266216222633 12.315460383007917 30.49931882455304 210.2504780191951 0.7163539022003054
2.0340189816468115 12.267626064189775 28.564471724778084 220.10551210284402 0.7335854534210262
2.041013091084294 12.218291191770273 26.783696260672926 230.5101220359946 0.7515751724442523
2.04721943284484 12.167484900487123 25.143610932316673 241.48780700697336 0.7703006342080826
2.0526394333403464 12.11508280645104 23.6302304180781 253.1246434975554 0.7899601553493615
2.0572578477830388 12.061189858150728 22.236086527913326 265.4627246745767 0.8105992866521012
2.0610734661520227 12.005884061572955 20.949890487410013 278.5118738120558 0.8321625640732728
2.064094687676759 11.949122714155953 19.76066398168684 292.3449050296157 0.8547728393310512
2.066255736856573 11.890875382998656 18.66587266231406 307.039839822354 0.8785429431625205
2.0676054686132717 11.831229611112782 17.65369246186194 322.65882175765154 0.903536438723275
2.0681122123999263 11.770166171315113 16.719496971386903 339.27022604688375 0.9298351902135019
