M[M_sun], R[km], Lambda[1], P_c[MeV/fm^3], rho_c[fm^-3]
0.23848912294887037 16.21570186450063 2784644.0411725277 3.4469561053153734 0.1694538074003404
0.24848871445617604 15.872372592675612 2284716.5912698596 3.6328544062619077 0.171936293403492
0.2587800280334237 15.568489997890202 1883395.9225973608 3.8175844059222883 0.17422505160026824
0.2693580557588199 15.298733907352682 1559229.7428252816 4.013950225026912 0.17663253316399655
0.28022066411192725 15.058726937882254 1296198.607822871 4.218285778895447 0.17906603001163993
0.2913717091859065 14.844461058160494 1081540.0498109006 4.42547584868245 0.181401455836609
0.3028064931575073 14.652789477453545 905694.6504247291 4.647707653666987 0.1839064306021657
0.31452016111422043 14.481107587369298 760987.6798485864 4.870437238095991 0.18627402870419796
0.3265277281326566 14.327189332351828 641442.2230196698 5.104353323124198 0.1887162190722065
0.3388102303062387 14.188807462360522 542277.2475779349 5.351809712835038 0.19127265353815484
0.351384941958304 14.064331862244144 452765.3975974775 5.598120189684617 0.19365738112154426
0.3642374602486031 13.95237576297863 390815.71758916887 5.861524887122148 0.19620761144713952
0.3773738042046001 13.85178183205235 333114.6007204658 6.132304734566847 0.19873227041187078
0.3907966334206528 13.761072771725633 284592.34409889183 6.409195190294191 0.20120159822032557
0.40450723408267397 13.67935538527835 243689.58484138793 6.705052852429292 0.203840076858152
0.4184975256615317 13.60591123339792 209145.06054998896 7.002053736892811 0.20633906332874705
0.43277732598070295 13.539888846703212 179873.87917154728 7.312581456809677 0.20889925064765863
0.44734572548884416 13.480416278768116 154991.0320692014 7.644122278953792 0.21163268329831578
0.4621905785933648 13.427256280275724 133832.6794275371 7.970545548178428 0.2141371959755869
0.4773266714761912 13.379541629077321 115764.35940363878 8.318273761666415 0.21680354711533695
0.49273918512168524 13.336860070937075 100320.61726958395 8.68333844900309 0.21956498894802579
0.5084340240558695 13.29883232610634 87086.84998675859 9.04853904969986 0.22217280211763898
0.5244086775534142 13.264839408849632 75716.85378101752 9.437587791595265 0.22495090935733295
0.5406616690953263 13.234885596828306 65939.82222772237 9.839699910205788 0.22773837388295104
0.5571930903902015 13.208369768439029 57516.99351350025 10.24810485987009 0.23043489764122974
0.574010165885104 13.185082376793734 50239.684535652006 10.682946327412836 0.23330597045579188
0.5910997556955374 13.164659115803836 43946.61729164369 11.126790710063906 0.23612461502091392
0.6084508801210436 13.146981757120011 38496.45987539171 11.58311243397229 0.23892733532116384
0.6260967522698268 13.131792848893094 33765.08226426893 12.06873902815344 0.2419100456383391
0.6439929278616199 13.118721794345056 29654.89150369488 12.559172256584096 0.24478635906245674
0.6621637390495181 13.107764358389078 26076.92998706456 13.068970195157334 0.24771374928035758
0.6805975554101286 13.098614920071752 22958.17197643749 13.611286239325972 0.2508278667817996
0.699279335553852 13.091248341851145 20239.08438650969 14.153521792879797 0.25377513365456106
0.7182307687261434 13.085402712012554 17861.886100226762 14.723250048665257 0.25683889840328106
0.7374208333073607 13.080917849213703 15781.627064941113 15.329119972310732 0.2600970182095658
0.756847882671571 13.077648074322745 13959.802851387962 15.928704960369526 0.2630964184470094
0.7765444881928429 13.075500707003409 12359.308255559034 16.56549525873219 0.266281285723848
0.7964643626587505 13.074479541724665 10955.775612456368 17.23611698022758 0.2696080558987109
0.8166207536651839 13.074417067691064 9721.419478739472 17.906524797780545 0.27275215830404537
0.8369917555418228 13.074867481794703 8634.113520228011 18.618520109455577 0.2760912992171024
0.8575973923244504 13.076144617252142 7675.690617459208 19.360702287072318 0.2795156503841207
0.8784015345705656 13.077993413611273 6830.810353702843 20.111158549138306 0.2828297722707126
0.8994260336561722 13.080479402932756 6084.655375155174 20.908064260009887 0.2863490215480507
0.9206371352964711 13.083207310960242 5425.042506172501 21.729498776939515 0.2898845559880828
0.9420436749787388 13.086450687958795 4841.331576079452 22.570644216483288 0.293389733642204
0.9636339890807011 13.089905845334812 4324.423284881714 23.463807107170734 0.297111675721122
0.9853814513423804 13.093530944187101 3866.298296392485 24.37290809629047 0.3007458831848606
1.00731020613176 13.097337453454806 3459.4710500943643 25.31675329414346 0.304434300212899
1.0293942360163864 13.101135344361223 3097.8988809006964 26.318981982066564 0.30835087187839355
1.0516284620054546 13.105028113894704 2776.614710510941 27.326256115802646 0.3121044147054533
1.0740010811552432 13.108815985342568 2490.819569686892 28.386776925648235 0.31602823293812904
1.0964877345434698 13.11250857087766 2236.2867143822605 29.50429420223938 0.32013718268327734
1.1190814388060124 13.115950530081696 2009.3905901908308 30.62934172783922 0.32409143775012283
1.141799105830733 13.119280287957094 1806.967981377926 31.823291226198915 0.3282878656751825
1.164591759137224 13.122251683061934 1626.3068988669256 33.06017341285854 0.3325483483902708
1.1874691699701616 13.124985626156352 1464.86695540589 34.329245123800334 0.33679530903874827
1.2104041664734861 13.127291555774404 1320.457698491808 35.67637393642105 0.34130348852640274
1.2333860724372736 13.129094562707065 1191.282364677096 37.045941487810026 0.3457012970396636
1.2564138702125882 13.130551763749923 1075.5555877571383 38.48033384215491 0.35024735263190104
1.2794541752469033 13.131400740642201 971.8109178269128 39.99132782829636 0.3550063656287751
1.3025080287550033 13.131756909362974 878.778978579197 41.52223555937737 0.3596471374848987
1.3255716355186704 13.131501502338827 795.2034002623884 43.147137906964396 0.36457284328057477
1.3485908727797173 13.130546922433465 720.1664065376 44.82128894799374 0.3695278804096931
1.3715870737629916 13.128997701259882 652.7499081303071 46.55948642351073 0.37457991229100696
1.3945212806101113 13.126640803556418 592.0526067394445 48.398772216581726 0.37991108364509746
1.4173949530282668 13.123719933812897 537.4634356775938 50.263059034169046 0.3851152350956905
1.440165600531456 13.119760674702354 488.1967131978726 52.242268453059495 0.39064019266722777
1.4628358867930291 13.115038914289201 443.84286296258904 54.28277465026483 0.39618623898434036
1.4853734636913667 13.1094114704816 403.8324517183494 56.410216592268334 0.4018715185468066
1.5077935226117365 13.103035980069702 367.68763769109034 58.647402815440394 0.4078047214217078
1.5300425000876698 13.09563416996959 335.0423342672862 60.93983422873139 0.41371697803574314
1.5521127846599394 13.087229912021282 305.5220408450356 63.37492926487657 0.4199971688627332
1.5740016533043273 13.077936683213387 278.8344741428791 65.86426773438883 0.4262302769594004
1.5956546831868383 13.067569563020427 254.683959700685 68.49508316386608 0.4327909334164885
1.6171003652902634 13.05617773108849 232.78079968934043 71.22106512061107 0.43945657135170907
1.6382710031443912 13.043643256121104 212.93292953865443 74.0708293908392 0.44633500693120215
1.659192696579236 13.030148220636976 194.95206395165624 77.05272629145982 0.4534368065615997
1.6797812238669358 13.01531460529392 178.61248980878835 80.14730774989857 0.4606551431629948
1.7000852333869998 12.999451080692868 163.78374318099483 83.40783118287706 0.4682099214356565
1.7200491627082608 12.982223794854349 150.29428263332386 86.77668587818826 0.47584931605509895
1.7396529211027538 12.963949245711918 138.04057643715163 90.34065948268251 0.48389989220247454
1.758899175934573 12.944347610729796 126.87911742685249 94.01766261874285 0.49201823214092316
1.777755076579167 12.92356358037118 116.72226406463555 97.91396150205581 0.5005946391187217
1.7961788031383483 12.901398462285552 107.46746280881759 101.93758209436943 0.5092469969384462
1.8141655363581133 12.8779432694431 99.03135727811437 106.1996814803795 0.5183768227089519
1.8317033186616065 12.853197580771113 91.33268127578832 110.61356375172488 0.5276163631326611
1.8487687963336812 12.827100825959288 84.31069658362091 115.28034377072686 0.5373353592249355
1.8653365106946425 12.799591660158104 77.8894007943449 120.13465049778642 0.5472694400948874
1.88140364623269 12.770711729043573 72.02419973183162 125.25051024491422 0.5576561533045509
1.8969329619610478 12.740448123357668 66.6586693651326 130.60321319511954 0.5683769067240136
1.9118988162593544 12.708738366544905 61.75023142387485 136.2200446862019 0.5794891791159882
1.9262910296907674 12.675689932110066 57.25986324656771 142.13780848444623 0.5910873960373286
1.9401137570501281 12.64110418529756 53.13905811251497 148.3141685808433 0.6029682049063644
1.9532582214058267 12.605011080754794 49.3685035357009 154.97311548115823 0.6815580791510556
1.9596815531997502 12.57297042570864 47.08181617093896 163.43391733521875 1.6198524447826115
