M[M_sun], R[km], Lambda[1], P_c[MeV/fm^3], rho_c[fm^-3]
0.23848912294887037 16.21570186450063 2784644.0411725277 3.4469561053153734 0.1694538074003404
0.2484750127329872 15.872826348374062 2285652.7684560074 3.6325923893726744 0.1719327944298231
0.2587512830105262 15.569376641197325 1884330.815897087 3.817069826578563 0.174218742761547
0.2693146209824354 15.299962301973055 1560400.8943525245 4.0131209682814895 0.17662236632164433
0.28015692737064135 15.06015814552785 1297655.7752651006 4.217198778880156 0.17905377745576184
0.29129252498291974 14.846008758725585 1083000.6657086909 4.424019297713137 0.18138503773919432
0.30270619843552304 14.65433075014443 907026.1344522595 4.645832023293899 0.18388528868346316
0.3144081734035656 14.482633409938792 762241.3665613697 4.868288778618214 0.18625159780962286
0.32639771417298213 14.328694407529582 642568.1958511084 5.101723942371268 0.18868876714068217
0.33865673535280977 14.19027641698842 543353.0443062355 5.3488984719700206 0.19124446750042923
0.3512097825415632 14.066048362380885 460788.09977609775 5.594662875433228 0.19362390811314775
0.36404278527729084 13.954064296948115 391776.1887643977 5.857456137488088 0.1961682186466125
0.3771579586238938 13.853363091890634 333995.66764993843 6.1279398914856 0.19869334444610662
0.39055814187810084 13.762522992166657 285386.3547108811 6.4041454198396695 0.2011565640259294
0.40424619097272607 13.680856095203785 244416.025550065 6.699239649209507 0.2037882343187293
0.4182073508372578 13.607367273064074 209806.70977517279 6.995933262113804 0.20628860225583825
0.4324672721613991 13.54121877584073 180456.13996456866 7.305614875661243 0.20884181373762314
0.4470048830360044 13.481753877799846 155530.63802072336 7.636216121130941 0.2115674999227228
0.4618261938772691 13.42852076409838 134317.4205513671 7.962319266154962 0.214074117526389
0.4769305613950963 13.380756454134692 116204.65021152391 8.309014211352661 0.21673254565047162
0.4923180450612189 13.337957723328765 99652.75881619108 8.673732223812442 0.21949639311188904
0.5079841708404841 13.299798421668298 87432.30547024518 9.037799305441986 0.22209611208355765
0.5239277491629813 13.265794290692233 76031.02294717544 9.425597234633091 0.22486528755852622
0.5401495787114199 13.235802890647152 66225.37624640814 9.827344012175978 0.2276567931562247
0.5566513619070044 13.209136084774954 57771.43879088699 10.234384072967442 0.23034430513519943
0.573433023410625 13.185791294750018 50469.25376634726 10.667722838168357 0.23320545624687894
0.5904876124816111 13.165362160586135 44155.39304174219 11.111182512130213 0.2360287497335364
0.6078193152524205 13.14764368147439 38682.17420545236 11.56587162781707 0.2388214425817386
0.6254225235514115 13.132334462118969 33932.65864304063 12.049704293418207 0.24179313461995633
0.6432814183436913 13.119237720692173 29806.991875283624 12.539721272890805 0.24467466653668535
0.6614182724000245 13.108183160934654 26216.952298205317 13.047575621249356 0.24759089616221897
0.6798066792204336 13.098985771158498 23083.728777608005 13.587759612318443 0.2506927708691821
0.698463108478898 13.091571700872217 20350.532714216963 14.129534379811215 0.25364613919127754
0.7173781032565065 13.085651724675701 17960.744212488586 14.696956789956504 0.25669750404844116
0.7365304501063111 13.081098060363878 15871.361665492957 15.300300892616525 0.25994204102603835
0.7559218746402508 13.077800319051372 13942.62051835016 15.899380013815597 0.26294975154125594
0.7755660398929597 13.075655506931936 12433.95743729606 16.533443423797838 0.26612098045458193
0.7954495794958168 13.074504595673293 11022.418691754561 17.203464462291567 0.2694549209598052
0.8155630687782107 13.07422086219269 9781.174471456849 17.870926622485644 0.2725852087165857
0.8359053029046676 13.074805506380477 8687.982096295547 18.579705142753756 0.2759092634069956
0.8564676401454909 13.076092279704612 7725.175976137113 19.3211894320188 0.2793411559807106
0.8772366401728955 13.077892337007025 6875.485392139674 20.068171768968842 0.2826399365185243
0.8982188976741027 13.080294425459249 6124.8177458441505 20.861287187583116 0.2861424473246663
0.9193925847316883 13.083109602090184 5461.556674922628 21.68189386210303 0.2896861792557526
0.9407587762919322 13.086232296904981 4874.276246041122 22.51894473105252 0.29317429422763647
0.9623104539710832 13.089693980129674 4354.271258592443 23.40764339265107 0.2968776332026088
0.9840196578089544 13.093352975073095 3893.319495623418 24.315771401844128 0.3005226008529686
1.0059113241381026 13.097053492244969 3483.8600139468062 25.254793348927862 0.30419216928135495
1.0279542257567782 13.100838166081411 3120.186294875431 26.251766398383857 0.3080882026356313
1.050154414992165 13.104874653806306 2797.0049776626624 27.257880610627097 0.31185143234868534
1.0724733663906276 13.108501023360555 2509.1830476528216 28.31272013649197 0.31575423041328743
1.0949270628966519 13.112272170268163 2252.983869468939 29.428777372611272 0.31987176029053904
1.1174923615978571 13.11582494722414 2024.6460317830815 30.547667746157963 0.3238043745385306
1.1401600978761937 13.119036993325278 1820.8226786809453 31.73491869147112 0.32797725875834927
1.1629152813114547 13.122102981511784 1638.8692760119598 32.97000108761011 0.33224658583925815
1.1857496391193345 13.12476660770211 1476.3108308666815 34.23180118428058 0.33646921196085666
1.2086662875290477 13.12711778423533 1330.871929060098 35.571020340962626 0.3409509217090749
1.2316084326142667 13.129052951074861 1200.8025974582768 36.93839187548295 0.3453604373612908
1.2545913573729306 13.130440789902263 1084.2586800793733 38.364185567707764 0.3498792409984419
1.2776076297689647 13.131422030995237 979.7602239650897 39.872496302669596 0.3546461414372364
1.3006365187438316 13.131733519602768 885.9537691083691 41.3940325565884 0.3592585047311837
1.3236588521139405 13.13154384283709 801.807541786186 43.00874952438325 0.36415333471186206
1.3466758274664867 13.130890426436187 726.2337294372294 44.67956093279683 0.369115951120107
1.3696225705813134 13.129144461347282 658.226538421566 46.406631391946746 0.3741356425785275
1.3925286995008979 13.126899066511365 597.0513568691816 48.24035249033042 0.37946531172196984
1.4153754933749956 13.123923730774514 542.0071216875245 50.093944333067846 0.38464315187933684
1.4381216151907117 13.120070184034743 492.4103492286966 52.05990607209218 0.3901311285894842
1.4607758898068226 13.115509609828958 447.7009064728123 54.09539778599667 0.39568550153253496
1.4833129231180322 13.110036890114117 407.34028194670947 56.20828900918634 0.4013318964125766
1.5056920991640663 13.103664661790303 370.93043560455135 58.43947263525775 0.40726846259367266
1.5279364881851474 13.096404265269932 338.0084424380275 60.7158752952656 0.4131393805216022
1.5500045265959999 13.088144168342795 308.2508924459076 63.13355360126533 0.4193746530241441
1.5718740834446527 13.078866083235301 281.3165501815394 65.61541325989943 0.42560969039272567
1.593526588570727 13.068602916603187 256.95123600452513 68.22698525641626 0.4321223580964813
1.6149505120174252 13.057344027632327 234.87235531312976 70.9440448528179 0.43878793146239053
1.6361324857618915 13.045006667206037 214.8703000236825 73.77247848512606 0.44561488158382845
1.6570272654849951 13.031495007223784 196.7164553245364 76.74382739351702 0.45271627738791426
1.6776388548324606 13.016853171629837 180.24620091479065 79.81469312551077 0.4598792953303806
1.6979428655969868 13.001088269604587 165.28276633960442 83.06277554810352 0.4674274548711691
1.7179167093839927 12.984140742060855 151.6810884879413 86.40518136830737 0.4750068726104966
1.7375395225640373 12.965944552148736 139.30722680022765 89.95448100739051 0.48304726085479194
1.7567935612977466 12.946519671191885 128.05127774752017 93.60189104590268 0.491100263121001
1.7756674318282801 12.925896324355472 117.80497441197775 97.48094175354203 0.49966347731526894
1.7941203111717252 12.903955493752385 108.46935927903118 101.47134551972327 0.5082444059684657
1.8121328264981302 12.880681910450413 99.95086222219754 105.7132392308686 0.5173585574830455
1.8297080872800728 12.856136815004124 92.18717738333925 110.0897222486554 0.5265198103825689
1.8468069262739042 12.830163019381695 85.09059382387922 114.73283302539791 0.5362149075668343
1.8634178851272922 12.802899490127462 78.61277056891534 119.54489863447013 0.5460625442325533
1.8795153360746222 12.774232862520943 72.69820585377046 124.63300724299582 0.5564193767673639
1.8950854590243813 12.744233328842576 67.28312418408935 129.93784417648703 0.5670442609097273
1.910083832884986 12.712694491056096 62.32908216483927 135.5221652432911 0.5781214061801666
1.9245337206677557 12.6797920213051 57.79278113237885 141.38551279080093 0.589612972768445
1.9384148120375426 12.645462966129854 53.63047742919548 147.5257290790463 0.60146749728545
1.9516546951054032 12.60961331518164 49.82206109986873 154.02331416935147 0.6139295188510999
1.9642866674552528 12.572332285201183 46.324764879713605 160.78924879524703 0.6266682480182371
1.9762719292691069 12.533587711078095 43.11842315776091 167.95081465389518 0.640067706198833
1.9875967421399434 12.493375074822291 40.17117929481669 175.48218230752423 0.6539960488851521
1.9982400351546716 12.45162290474953 37.46375121172014 183.39521109549986 0.6684307360310108
2.008190236558825 12.40841549212165 34.977979410566924 191.76856026137455 0.6835815042341084
2.017426364870619 12.363638556657111 32.68789139671999 200.57066421875868 0.6992797624577185
2.0259327326511207 12.317391965169442 30.582840315807086 209.85632753343322 0.7156619502599353
2.033711059814945 12.2695999131075 28.640527131993156 219.68730012092846 0.7328623589374131
2.0407252454209406 12.220365084833515 26.85525979657376 230.05816787360664 0.7507937372491824
2.0469812499397704 12.1697130017341 25.211110558281927 241.00750863877727 0.7694834204046384
2.052418820920572 12.117365827347053 23.693274656058144 252.61349339077944 0.7891037236886567
2.0570651056966165 12.06357220949667 22.29519622152048 264.91798827552503 0.8096991281842649
2.060939302408555 12.008360764353226 21.00253606076159 277.92234873289874 0.8311883938270236
2.0639565340886032 11.951606211257147 19.81245844239919 291.7156356064702 0.8537469041613339
2.066167804186857 11.893479110706474 18.713200257827967 306.3672564033722 0.8774621971493698
2.0675627801378846 11.833946473680253 17.69791577616986 321.9390201178111 0.902395464681172
2.068100939678095 11.772956780609615 16.76105170410792 338.49892087462865 0.9286278006148748
