M[M_sun], R[km], Lambda[1], P_c[MeV/fm^3], rho_c[fm^-3]
0.23848912294887037 16.21570186450063 2784644.0411725277 3.4469561053153734 0.1694538074003404
0.24846780536471236 15.872927617785782 2285559.243650626 3.632457805671158 0.1719309971990062
0.258736122737754 15.569775677898368 1884953.5926309517 3.816805533808305 0.174215502482894
0.2692931319510569 15.300406861611426 1561073.7457116062 4.012695086859794 0.176617144935989
0.28012932581229816 15.060609596404507 1298136.492014019 4.216640562228797 0.17904748529328102
0.29125535234097044 14.84657447374184 1083587.4238455913 4.423271359388013 0.18137660705290817
0.30266162754444287 14.655064536211338 907669.0632129952 4.644868963533821 0.18387443316979407
0.3143482623613572 14.483470311415452 762932.5330021629 4.867185688107833 0.18624008104274825
0.32632916170610005 14.329498029647397 643206.8374351691 5.100374036522432 0.18867467350936415
0.3385796124742943 14.191057691065224 543923.0893243229 5.347403926940372 0.1912299976215901
0.35112272559341245 14.066787330421201 461278.0323859635 5.5928881308209055 0.1936067253993444
0.3639480840581361 13.954896080303431 392240.61224827805 5.855367691972072 0.1961479987449171
0.37704489138929353 13.85413035693453 334419.509606592 6.125699544063445 0.1986733648762959
0.39043407476529196 13.763302282425814 285781.0367795308 6.401553726034417 0.201133451125315
0.40411018613505373 13.681672911343645 244783.5332147612 6.696256383784735 0.2037616293559326
0.41805895943625865 13.608069033162877 207525.02941666212 6.992792395324415 0.20626270695951257
0.43230440618860544 13.541889414315408 180757.18835534187 7.302040101537641 0.2088123410342469
0.44683116272235884 13.482426770770639 155797.27760444337 7.632159561225214 0.21153405507202855
0.4616374807821965 13.429084238424213 134549.48673663294 7.958098540880311 0.2140417533545729
0.4767304668187183 13.381263446981114 116416.46782234134 8.304263736037912 0.21669611939922562
0.49210092363746166 13.3384990737039 100910.91552994703 8.668803975865258 0.21946120163116511
0.5077472513161746 13.300306493277015 87610.43223917253 9.032289991100228 0.22205677134187057
0.5236782438080445 13.266317484434948 76193.0306634041 9.419446799949375 0.2248213687245034
0.5398900929968914 13.236288981527462 66373.07951487292 9.821006249213221 0.22761494760950088
0.5563716113177851 13.209560015745792 57905.15752946832 10.227346811470845 0.23029784109788942
0.5731407904353892 13.18617209680377 50584.379299847475 10.659915538123014 0.2331539079733392
0.5901707173445075 13.16569506133804 44261.86362449259 11.103177958589889 0.23597958590125215
0.607492067576032 13.147998706401799 38778.31745100618 11.557030573239608 0.2387671409742507
0.6250747835091075 13.132582616378798 34019.63666016435 12.039944188796628 0.24173318822266196
0.6429178396531414 13.11943808421719 29884.346598479082 12.529747742094525 0.244617395970679
0.6610392016369374 13.108425843442252 26283.21462456571 13.036606488515783 0.24752790859511936
0.6794071724689233 13.099217955572295 23146.880366491383 13.575698466216492 0.2506235126818808
0.6980492612388715 13.091746697478168 20407.311863788935 14.117236966685114 0.25358000875022324
0.7169342576705744 13.085733816036631 18013.15702367933 14.683478488999937 0.2566250232772594
0.7360701411044586 13.081152469167547 15916.719078003558 15.285529202586169 0.2598626049392119
0.7554459666122803 13.077845271816082 14083.035526290514 15.884348922693976 0.26287457446903684
0.775073308719638 13.075641527733294 12471.529309501679 16.51701614485867 0.26603882043538035
0.7949328922824677 13.074516305340218 11056.520494156 17.186729178548184 0.26937643523142635
0.8150270482328817 13.074226847174915 9812.12999865181 17.85268331058707 0.2724996505841777
0.8353493046642212 13.074764604764841 8716.101474405326 18.559815194277224 0.2758159828198519
0.8558936765260962 13.076052457541943 7750.544321088312 19.300941640712683 0.2792517388464755
0.8766476087527982 13.077854138715471 6898.045725029031 20.04614591730081 0.2825426672161363
0.8976016032718765 13.080273434969268 6145.734647022065 20.837321587268594 0.2860366118156001
0.9187477363050115 13.082955650488396 5480.3135459275445 21.657503809772514 0.2895845422945415
0.9401029422474951 13.086107971094398 4891.147336735173 22.492459445754548 0.29306392612026155
0.9616329873825245 13.089591940340727 4369.618079351846 23.378874002059604 0.2967577468901078
0.983317451283157 13.093222300778393 3907.371638325303 24.286503164487527 0.300408224612784
1.005198017667126 13.09693344827999 3496.3063749406897 25.22305759143898 0.3040681503123694
1.0272089908669428 13.100756265525083 3131.8171210822275 26.217342259172426 0.30795367784117156
1.0493721137424405 13.104582285793832 2807.4740675342996 27.222861827441395 0.3117218664423169
1.0716913523611493 13.108486189917373 2518.9308991653934 28.274795572386044 0.31561391341552214
1.0941243054420031 13.112137683962535 2261.6890231207285 29.39010453152018 0.31973583511906484
1.11667431481849 13.115629103174253 2032.405842843535 30.505846096762205 0.3236573821090874
1.1393166531174743 13.118978780353713 1828.0158367950928 31.689671804841577 0.32781822749376477
1.162062177739872 13.121993315794397 1645.4217431922336 32.92383199769884 0.3320920805372026
1.1848724273382876 13.124633220849141 1482.2313987585273 34.181914267940975 0.3363022649170124
1.2077652768464924 13.127041715914038 1336.2775004465843 35.5170899212645 0.34077044304247234
1.2306915043015483 13.12894253799863 1205.684033745862 36.88333645414377 0.3451859488363737
1.2536656398743369 13.130415063825886 1088.6263819612354 38.30473494904017 0.3496908226646177
1.276657452258368 13.131294525288247 983.7800946594474 39.81167144209648 0.35446175782262035
1.299675418674631 13.131743341299718 889.635975188523 41.328418072030324 0.35905960191874825
1.3226710260965318 13.131544338191542 805.2344242648363 42.9379301595361 0.3639386538995709
1.3456606356502996 13.130761286509587 729.3349158303062 44.60703164903225 0.36890514638757876
1.3686102814328263 13.129240777584693 661.089044997752 46.328416777207686 0.37390831355934984
1.391517287247317 13.127020249997665 599.6587735444124 48.15595843511511 0.3792200222979852
1.4143340679643392 13.12402449332347 544.4128856154995 50.00741898585662 0.3844016166139719
1.43708384408528 13.120295609723529 494.5927207490547 51.966613725907536 0.38987070326536244
1.4597133686733816 13.115705295303833 449.6904380740881 53.99953944790015 0.3954293340481434
1.4822466851488068 13.110424002559263 409.20037252889284 56.104999122300605 0.4010558691935363
1.504626240390409 13.104024050919367 372.5872029157754 58.33311190201775 0.40699415473655376
1.5268511162873297 13.096762199659073 339.5469513707112 60.60132933378913 0.41284396268950313
1.5489121676368538 13.088566566014247 309.64724700636657 63.01011495216474 0.41905630065585026
1.5707851410229472 13.079525284631032 282.64074398038815 65.48814986000018 0.425292324363568
1.5924288732048497 13.069220502449753 258.14040492027203 68.0898980126471 0.43178049363083265
1.6138497193771786 13.057938437732199 235.9673812265343 70.80239581796597 0.4384460351970379
1.6350069533558105 13.045620402761825 215.88173527105636 73.61994185140294 0.4452467060755808
1.6559312287331995 13.032235282033417 197.63686097393608 76.58589915902604 0.4523478982805195
1.6765444867634027 13.017695040847588 181.0927452389613 79.64466194849852 0.4594826852282103
1.6968439416726988 13.00197245480604 166.06238487132308 82.88638674280203 0.4670274662067647
1.7168258579681959 12.985093633299934 152.39847986182897 86.21529719663899 0.4745762811334051
1.736452034553078 12.967034265064118 139.98148201346083 89.75490865428 0.48260289289616676
1.7557214529270613 12.947705834274025 128.66236185214913 93.38941321992861 0.49063113999088365
1.7745998302556112 12.927156607622747 118.36718081208156 97.25277951245506 0.4991609452994204
1.7930618122690822 12.905293763353951 108.98580082559118 101.23311583118435 0.507732118971909
1.8110894618054867 12.882058216186719 100.42608723207597 105.4609159254668 0.516823542570813
1.828677440301914 12.857635448701332 92.62907406664411 109.82210341356505 0.525959606259995
1.8457859893613557 12.831755782783427 85.50657028400056 114.45313120756883 0.5356425126536126
1.8624229386178817 12.80460647886397 78.9946117395059 119.2436607487645 0.545446076900357
1.8785363716711792 12.77604025145725 73.04466005699459 124.3176064708916 0.5557876708913807
1.8941220383767363 12.746082896218734 67.60599127372112 129.59804501090784 0.5663636882905847
1.9091779455108628 12.714777365160197 62.62573495531948 135.16577889702864 0.5774229250827996
1.9236450919364525 12.681895779005968 58.06456185654639 141.0013957403595 0.5888601423030712
1.9375468847680342 12.647740649013015 53.888826593269904 147.1418459393352 0.6007557563972731
1.9506421075260287 12.612177218759964 50.097603191829826 153.65583997807548 0.6749300354907671
1.96196769182451 12.575557233290448 46.81375139448134 160.6209420272682 0.8016927253630285
1.9712196827270747 12.536867306505398 43.97775321859878 168.1090615187791 0.9335966167207602
1.9784369943799645 12.495523846186465 41.51263648664655 176.24638639866433 1.0650935292990225
1.983703745535429 12.451107937473072 39.3404786976665 185.02420999087576 1.1992529727905856
1.987148656562461 12.403669407465477 37.4223469901447 194.47922205399425 1.3384682247622244
1.9888496154477389 12.353143795111862 35.7129851016532 204.67885725798874 1.478561406462994
1.988920235690802 12.299381787656358 34.175069220480296 215.65796948585682 1.6234185097876233
