M[M_sun], R[km], Lambda[1], P_c[MeV/fm^3], rho_c[fm^-3]
0.23848912294887037 16.21570186450063 2784644.0411725277 3.4469561053153734 0.1694538074003404
0.2484814828221914 15.872536868808298 2285074.4915717463 3.6327273400189215 0.17193459656082008
0.25876538515179454 15.568929908977758 1883773.3886531468 3.8173348524920496 0.17422199202867272
0.2693379675622469 15.299354093854108 1559900.511771415 4.01354805331285 0.1766276024637786
0.280189372353862 15.059429453202 1296947.4741155964 4.217758596307908 0.17906008766203468
0.29133355678725686 14.845141443371267 1082302.9593403954 4.4247694197660525 0.18139349304024258
0.3027573133169018 14.653441071884497 906302.054708384 4.646797946434684 0.18389617647287432
0.3144645398980636 14.481950036724411 761692.367860868 4.869395186934569 0.1862631492159016
0.32646479505453435 14.327882750953917 641997.0807466818 5.103077980378307 0.18870290391361214
0.3387408538541579 14.189589215459925 542812.3873788485 5.350397636790944 0.19125898210714118
0.3512979895664481 14.065209445814126 460229.5964521239 5.596443200270904 0.19364114485354997
0.3641434932001765 13.9532665548973 391290.4445719327 5.859551263748002 0.1961885032299019
0.3772699922707185 13.852457109880953 333511.6616274078 6.1301874598895 0.19871338841312086
0.3906801271949934 13.761818060340074 284982.56847093836 6.406745608168823 0.2011797526812824
0.4043793338775564 13.680154845202438 244046.4716546994 6.702232859590895 0.20381492797132164
0.4183583518416894 13.606610261007068 206867.46650109466 6.999084658325798 0.20631458436339686
0.4326277549048784 13.540501486901109 180149.90063318494 7.309201833056454 0.20887138688761167
0.44717880543146854 13.481127023298594 155255.56681684282 7.640286738687822 0.21160106067360215
0.46201566620640394 13.427778917672748 134052.37183383323 7.966554677110245 0.21410659430678783
0.47714024838542524 13.379975174170717 115962.88331378042 8.313781486462878 0.2167691007211578
0.49253464089412907 13.337412131314881 100508.3724405594 8.678677957362506 0.21953170945326594
0.5082183833927952 13.299184417022985 87247.15697285534 9.043328479938923 0.22213559464202742
0.5241735582403392 13.265326196977947 75867.99475869373 9.431770199446945 0.22490936727500646
0.5404108708506391 13.235294707714898 66079.9307261762 9.833705039020339 0.22769879230444012
0.5569302999993834 13.208769397353533 57638.282585092835 10.241447574907339 0.2303909424269689
0.5737307093139865 13.185471202890357 50352.74373470862 10.675559715889527 0.23325719980920165
0.5908018327832295 13.165044271293908 44046.578013185885 11.119217419727466 0.2360780999999243
0.6081416863200921 13.147248106939154 38585.70685374955 11.574746734004787 0.23887595333364
0.6257655345865605 13.131977919171135 33845.89187254534 12.059502585007214 0.24185331556095793
0.6436503971963898 13.118992277666123 29727.77161618384 12.549733830077594 0.24473216120221267
0.6618016472704189 13.107949897746266 26143.520216233297 13.058588343068534 0.2476541340290023
0.6802165190571761 13.098803389643097 23017.143730010295 13.599869439714729 0.25076230859693277
0.6988828200519085 13.091420735283185 20293.47711737358 14.141881400050464 0.2537125363990281
0.717816763708547 13.085526064984844 17910.204945369744 14.710490300281084 0.2567702817129467
0.7369872795384034 13.080966693849202 15824.936510879228 15.315134033274171 0.2600218075691196
0.7564026115115001 13.077730169329287 13998.718644125787 15.914473559083316 0.2630252409740225
0.7760686991367605 13.075519322920305 12395.514707352211 16.549940004217763 0.26620348708085156
0.7959708922340212 13.074549676610761 10988.423871434263 17.22027025039512 0.2695337373420377
0.816104565764194 13.074261220668925 9750.173731290079 17.88924795133884 0.27267113273567983
0.8364627646533503 13.074798831416466 8660.393579756199 18.599681446825937 0.27600294898768035
0.8570401724005504 13.076122278691184 7700.046439287639 19.34152497968861 0.27943096065956397
0.8778360111625905 13.07798071535596 6852.724826100748 20.0902945176027 0.2827376337317332
0.8988329309049103 13.080349401966428 6104.322597758463 20.885359819171075 0.2862487554991013
0.920028508644437 13.083194797297187 5442.853308733955 21.70639262417878 0.2897882692265763
0.9414197420848229 13.086323970674208 4857.303696786129 22.5455498334942 0.29328516163079893
0.9629899029234935 13.089779647063072 4338.73494863157 23.436544904084847 0.29699807008223206
0.9847215666735499 13.09345967110505 3879.4539499896982 24.345173746542883 0.30063750116617444
1.0066388375148387 13.097180678503216 3471.0317262336903 25.286676694719844 0.3043167650051002
1.0286944354537848 13.101088186958831 3108.9457764153294 26.286353047753074 0.30822336249740356
1.0509055332492814 13.104908293742879 2786.5269708258093 27.293064304513376 0.3119816084077331
1.0732733605348976 13.108845010438781 2499.7709342427315 28.35082596409565 0.31589521806740456
1.0957334630581106 13.11239333701065 2244.5244111937263 29.46763465180744 0.32000833371490467
1.1183184731394862 13.115918732829204 2016.8339631553297 30.589691801852304 0.32395207837448203
1.1410023080668281 13.119147236011289 1813.6744172627582 31.780387835375883 0.3281370712005612
1.163778495779302 13.122166725464808 1632.45259378212 33.01639648170699 0.33240184847044063
1.1866342910784538 13.124890338846566 1470.4409380307336 34.281936251908505 0.33663698944536663
1.209561287875002 13.12722063538045 1325.5442561829311 35.625223042118435 0.3411323115681862
1.2325111820590469 13.129109048684287 1195.964053917001 36.993724669273156 0.3455358049696597
1.2555336617453854 13.130490213131868 1079.7102670486813 38.42394015226879 0.35006862269898054
1.2785589364466592 13.131428291665745 975.6811061143022 39.93363159765423 0.35483146609829885
1.30159991994928 13.131756270601102 882.2622570060297 41.459986863309034 0.3594584376756748
1.3246340729440211 13.131471392195415 798.4191381215734 43.07994113713992 0.3643691439511556
1.347655835206372 13.13062473303354 723.0944259102314 44.7524708489506 0.36932786215211627
1.37063088435647 13.129057657197025 655.3907207267252 46.4852625632709 0.37436418231005403
1.3935564614281166 13.126785712738693 594.4671332216926 48.322573985413754 0.37969837649535826
1.4164098577521873 13.123725139491045 539.6477097590185 50.18093677999977 0.38488599105226906
1.4391798968011331 13.11991722201729 490.25806004913494 52.15370956260676 0.39039298077157697
1.4618314394814298 13.115231198964603 445.69984454890994 54.19178084966663 0.39594307126980105
1.4843693908128046 13.109730338985866 405.53480453092766 56.312152709682636 0.40160945706514023
1.5067781004378111 13.103328606971079 369.25160076816945 58.5464239674446 0.4075442936250551
1.5290240813702933 13.095967652349916 336.47221413981254 60.83106674434265 0.41343646308762255
1.5510974776218482 13.08772283896116 306.84753881071754 63.25769827539593 0.41969482625439675
1.5729698737322944 13.078425055865875 280.04710234418326 65.74340448283755 0.4259288714473185
1.5946348895865141 13.068116451510015 255.77749586919586 68.36486824348671 0.432466206965281
1.6160389156805859 13.056700525505363 233.80826517800034 71.08651645424582 0.43913181314501504
1.637237727321952 13.04430121622522 213.87192361866994 73.92591417082126 0.4459852271210631
1.6581391418039462 13.030778344915287 195.80906913893998 76.9026872959126 0.4530868296785412
1.6787454881364867 13.016052543948913 179.40022886001273 79.9857423983988 0.46027828021531964
1.6990423809252506 13.000247390836641 164.50852856077728 83.24022199366833 0.46782984189705473
1.719016308783531 12.983162312840639 150.96300361362725 86.596221189029 0.47544008469902965
1.7386304892947022 12.964953673909383 138.65703842491314 90.15306556045427 0.4834857094632486
1.7578755015421998 12.9453705375067 127.44400307253629 93.81568403595908 0.4915722899606612
1.7767381180221058 12.924665481664324 117.24328620953926 97.70360229296791 0.5001422845524935
1.7951774736957642 12.902675575557259 107.95206665812285 101.71107572894911 0.5087599196713187
1.8131801801055845 12.879262897685432 99.4728664128087 105.96335663131747 0.5178821260084506
1.8307400308562929 12.854615773938278 91.74626191195657 110.35905735318752 0.5270836071566705
1.8478250140893784 12.828598012325276 84.6855690348651 115.01433481902922 0.5367909860349256
1.864421378629883 12.801305806544054 78.2400837023017 119.84810465009491 0.5466830392380877
1.8804966087083301 12.772457598289783 72.35007961075527 124.92829800814953 0.5569763721004563
1.8960372096345286 12.742266720661236 66.95861665471901 130.1816687603704 0.5673832296028772
1.9110411643532672 12.71069348270837 62.02721702611869 135.77797556584545 0.5784694388600073
1.9254647274585999 12.677618020566207 57.51126833502616 141.74502704894633 0.5902900883864068
1.9364512037448856 12.645271350934518 53.98765809697182 148.70231128322922 1.057539956479105
1.9394207032103363 12.612146081235748 52.056344758825986 156.42156852857997 1.6204252030441635
