M[M_sun], R[km], Lambda[1], P_c[MeV/fm^3], rho_c[fm^-3]
0.23848912294887037 16.21570186450063 2784644.0411725277 3.4469561053153734 0.1694538074003404
0.24847666971278734 15.872727962070645 2285349.909089651 3.6326303643566735 0.17193330154777825
0.2587535251391898 15.569315019295786 1884367.727654451 3.817144403349449 0.17421965708666637
0.2693226187248366 15.299711603810081 1560384.9596937222 4.013241145308028 0.17662383971440224
0.2801679942402823 15.059867787525164 1297391.3761245117 4.217356302996478 0.1790555530519074
0.2913063276430642 14.845675202673139 1082654.2240755458 4.4242303667209555 0.18138741688802232
0.3027197232172548 14.654076450095536 906901.4954539965 4.646103809093955 0.18388835222592426
0.31442343281802526 14.482373862765373 762033.1379986558 4.8686000894588615 0.18625484803645695
0.32641739922901747 14.32846669592867 642405.2476706777 5.1021049216525265 0.18869274473773792
0.3386781109817043 14.190070543251244 543204.5459462794 5.349320280353522 0.1912485513627964
0.3512344534487244 14.065868936812373 460641.58331834496 5.595163782082492 0.1936287577887218
0.36407447665503023 13.953841429321644 391621.98553692683 5.858045604125515 0.19617392574185158
0.37718850382952773 13.85309799328367 333860.39937492454 6.128572242429055 0.1986989837945821
0.39059434157617273 13.762302716927271 285257.6649390972 6.404876965732347 0.20116308800166996
0.4042822437012156 13.680716224020227 244324.49278887644 6.700081752362477 0.20379574425159339
0.41825113100537875 13.60713017969175 207108.4115704954 6.996819862933768 0.20629591195487837
0.43251058999067094 13.54101509631412 180363.08907062534 7.306623995298343 0.20885013355943763
0.44705148456297816 13.481568922080267 155445.63831621964 7.6373612854749275 0.21157694138331873
0.4618791549207057 13.428313599464785 134240.57357013773 7.963510784927981 0.21408325399365064
0.4769910175710269 13.380513938380341 116134.57002512047 8.310355328350166 0.2167428292245278
0.4923818036043288 13.3377352676997 100641.70182827457 8.675123538473375 0.2195063281686467
0.5080482370758596 13.299659514549962 87382.84676269814 9.039354719775096 0.2221072189381859
0.5239963740209692 13.265677151709175 75986.08619245897 9.427333717550246 0.2248776873821068
0.540219389448101 13.235617671802387 66187.06760901496 9.8291333929789 0.2276686076747599
0.5567313120893065 13.209024409483856 57733.98286673641 10.236371021255948 0.23035742410760865
0.5735159516499919 13.18577415771467 50439.54289367726 10.669927288268314 0.23322001129101677
0.5905745388793752 13.165306386491778 44124.86246687348 11.113442663479821 0.2360426315448491
0.607911066375977 13.14759897207628 38654.6557892726 11.568368066700305 0.23883677566708122
0.6255187668421569 13.132244871815146 33908.12675035911 12.052460350684425 0.2418100622770105
0.6433783589430553 13.119101862574595 29544.055859578773 12.542537598203007 0.24469083859731086
0.6615251812782164 13.10810069288119 26194.000720769007 13.050673204667937 0.24760868327886376
0.6799283491233459 13.098941304458709 23064.12668322754 13.591165705906098 0.25071232953016387
0.6985824778688796 13.091560214047362 20334.12783980396 14.133007190705728 0.25366481454306067
0.7174985602235106 13.085613706498846 17946.89821606991 14.700763236596368 0.25671797355634196
0.7366603376930722 13.081051970634853 15857.921851107665 15.304472778878385 0.2599644757182534
0.7560579064095851 13.077741300722423 14028.869498742226 15.903625147672438 0.2629709833155798
0.7757065863555078 13.075680033873418 12423.835164936982 16.53808306226624 0.2661441853193111
0.7955937648185541 13.074513576821044 10939.002104964538 17.20819107472136 0.269477087994736
0.8157151877169151 13.0742511131138 9772.361865969846 17.876079361964663 0.2726093742172942
0.8360638737968333 13.074787197953517 8680.279515182312 18.58532320057664 0.27593561117420795
0.8566264379408173 13.076026787696184 7717.765950987191 19.326908537580234 0.27936641236655335
0.8774055487229634 13.077951415697928 6869.303585477173 20.074393356092983 0.2826674119346141
0.8983916632643222 13.080280926389674 6118.887346867406 20.868056978771634 0.28617234368809163
0.9195688866513233 13.083137045277097 5456.38621246377 21.68878351320179 0.2897148894525161
0.9409452806003485 13.086258087921024 4869.479807717233 22.526426557498173 0.29320547210679554
0.9625023767899042 13.089729436968664 4349.954866528975 23.41577081048572 0.2969115013567239
0.9842187778133538 13.093354789744195 3889.2856259548244 24.32403969022303 0.3005549121850799
1.006120005013975 13.097114515207208 3480.2676687147873 25.263759104066075 0.3042272062174926
1.0281648751790426 13.10092714604298 3117.031682068443 26.261492090934574 0.3081262093025033
1.0503744693516919 13.104965981868279 2794.1050558953975 27.267774231990703 0.3118880377330713
1.0726926377545043 13.10860223107702 2506.5523811950243 28.323435188853708 0.315793875008123
1.0951708941696938 13.11245211377428 2250.6857226381044 29.43970376778929 0.31991016378240217
1.1177249172961714 13.115833581233522 2022.47518871126 30.559484317948588 0.3238459067741141
1.1404024058150788 13.11907833114988 1810.10154463946 31.74770364200668 0.3280221945981998
1.1631581377533526 13.122064065552966 1637.0491924786938 32.983046528771425 0.3322902425331837
1.1860030537601198 13.124803633102676 1474.6567471274363 34.2458977786648 0.33651638634912107
1.20891568843877 13.127154953809828 1329.3919823945628 35.586260234688346 0.3410019221595475
1.2318503927045046 13.129028970134954 1199.3968203905 36.953949571117406 0.3454097447554826
1.2548494636515288 13.13042086206479 1082.930693852357 38.38098606959264 0.34993248724959125
1.2778868752717947 13.131432804836304 978.5615747626676 39.88968505930775 0.35469824718889514
1.3008958927184329 13.131698909885875 884.9506014154922 41.41257572270764 0.3593147162204214
1.3239324224621174 13.131472701504437 800.8068135916935 43.028764614258705 0.36421400816977595
1.3469294966411847 13.130621931884148 725.3657154012544 44.70005917429825 0.3691755287981526
1.3699079476404612 13.129105271071817 657.4148581645031 46.42873751800039 0.37419989353687283
1.3928136071764405 13.126832864533469 596.3373944644718 48.264206349030914 0.3795346424259575
1.4156504517562847 13.1238560220762 541.3704513673032 50.118400486371996 0.38471142116306134
1.4384248576820593 13.12003664370123 491.7819940772908 52.08627625068635 0.3902047408694663
1.461071969239777 13.115414177798694 447.12892185512595 54.12249318639885 0.3957579100542915
1.4836031662837466 13.109929847308264 406.8343307662969 56.2374865298819 0.40140992254546787
1.5059933781408332 13.103507167443507 370.4452141808521 58.46953815958668 0.4073460025776554
1.5282466436216773 13.096274358394815 337.57135012968877 60.74825627676425 0.41322289214638824
1.5503105196772944 13.088076828517577 307.86286803123573 63.168450330387365 0.4194646528454534
1.572178172136409 13.078742500836166 280.9610917774433 65.65139125123905 0.4256994113357271
1.5938393964402828 13.068518037200398 256.6262557365415 68.26574260778597 0.4322190101324525
1.615260995956051 13.057150335210567 234.5697901203032 70.98409197701218 0.4388845926377699
1.6364458620926559 13.044868041616153 214.5940316897988 73.81560614428888 0.44571897820274703
1.6573421902087182 13.031262344021663 196.46182502779507 76.78847960505767 0.45282043192293814
1.6779582671373054 13.016660448439774 180.00691711295704 79.86276999357797 0.4599914381261385
1.6982507932024282 13.000854423787036 165.06782896859116 83.11265032169433 0.4675405535683453
1.7182211132777183 12.983846269198734 151.47729535367534 86.45887509385639 0.4751286313668561
1.7378508219092863 12.96567536819088 139.12964894256373 90.01029502234002 0.4831704908684533
1.7570995649638106 12.946246545745296 127.88662204432627 93.66197755736545 0.4912329262457578
1.775967204117304 12.925564293583736 117.64683230323274 97.54352014755165 0.49979804533537237
1.7944144897418295 12.903544504094167 108.31910051899001 101.53871905669871 0.5083892854212166
1.812433265992045 12.88028071310517 99.8163062384887 105.78353150438437 0.5175056996727772
1.8300015407818782 12.85567470233202 92.05799171783283 110.16541281323923 0.5266782527668857
1.8470910936108493 12.829732573430311 84.980827854427 114.81194213427659 0.5363768001561035
1.8636988328560042 12.802416037347069 78.5114834521661 119.63010418417556 0.5462369128641488
1.879794551462013 12.77372920482028 72.59356874207211 124.72222026415399 0.5565980586054071
1.895344505934354 12.743668965653526 67.19553709235781 130.03396457722374 0.5672367773120879
1.9103610167252325 12.712105140143112 62.24537089478325 135.6229796517348 0.5783189921970795
1.9247999207446365 12.679217661813096 57.714085086186465 141.49417878036346 0.5898259470881183
1.9386662399122387 12.644845660765885 53.56032153972885 147.63989050811588 0.6016864528160445
1.951896686491588 12.608957694750716 49.75548665203724 154.1442175571772 0.6141582246317432
1.9645128121116846 12.571688103671066 46.264297317879475 160.9188059882201 0.6269121540972177
1.9765076091629186 12.53295188501325 43.061255397780144 168.0874053331625 0.6403203139423517
1.9877972503715988 12.492591055983588 40.121321700058516 175.62954840037597 0.6542685844372564
1.9984365555340466 12.450809704152556 37.41188244472718 183.5508274352983 0.6687132960707116
2.00837012437993 12.407521511199901 34.9311539439764 191.9331593991059 0.6838750612950112
2.017596584712814 12.362756381435371 32.64504148902361 200.7483713685767 0.6995966972200811
2.0260997061748367 12.316505852461614 30.542657120197692 210.04458896709588 0.7159924531237537
2.0338486806547618 12.26866323520958 28.606470747503177 219.8870524596493 0.7332077335810478
2.0408495215637914 12.219374334344218 26.822892465180324 230.2740327050101 0.751166970622552
2.0470782743631273 12.168540811643258 25.17719199348617 241.23690915659475 0.7698737387610837
2.052524564053777 12.116263006525992 23.66319517492325 252.85762682938687 0.7895127691011264
2.057177363982129 12.062472958294087 22.265626878891283 265.17816023353026 0.8101290535417399
2.0609920491419076 12.007134661307662 20.977671400127583 278.2039068251996 0.8316536590478051
2.064008400969367 11.950383665230152 19.787476162427705 292.01617214454495 0.8542368866598554
2.0662033709950793 11.892243729929842 18.689677395001212 306.6884755846693 0.8779783507442055
2.0675857441634324 11.832642948332316 17.675897582879923 322.28278582755024 0.9029403755700448
2.0680845673300907 11.771551643276103 16.74113767056486 338.86727888204376 0.9292044227389346
