M[M_sun], R[km], Lambda[1], P_c[MeV/fm^3], rho_c[fm^-3]
0.23848912294887037 16.21570186450063 2784644.0411725277 3.4469561053153734 0.1694538074003404
0.2484791644148693 15.872679567281775 2285556.426079601 3.6327011198894 0.17193424641719743
0.2587611816818476 15.569166534018443 1884173.1625826154 3.8172833585076855 0.17422136070282096
0.26933502574232354 15.299435693690189 1560028.3948168538 4.013465069836739 0.17662658507088536
0.28018390057200804 15.059540005760972 1297051.0928282293 4.217649820845778 0.17905886155586248
0.291326454662161 14.845308433309896 1061606.9237895573 4.4246236640685215 0.18139185009654116
0.30274772848710796 14.653722809100813 906525.0146157574 4.6466102545344645 0.18389406082847418
0.3144536780222746 14.482017522631773 761753.7743973471 4.869180193883694 0.1862609045906208
0.32645296593297474 14.328025193210998 642092.3039115495 5.102814863225067 0.18870015685080446
0.33871933168181156 14.189637541543023 542919.10387222 5.350106315024533 0.19125616158947223
0.3512818232122423 14.065282144871075 460342.72345587413 5.596097235335758 0.19363779529191427
0.3641294997180235 13.953453567360562 391389.9784986721 5.859144115490853 0.19618456130387513
0.37724629924022735 13.852705985147386 333633.70781172987 6.1297506831195525 0.19870949320835013
0.39065893355810916 13.761892955231046 285041.77373429784 6.406240294639758 0.2011752462610592
0.4043534761904999 13.680297656004198 244120.0436515264 6.701651154130653 0.20380974028269028
0.4183289905314705 13.606767926918847 209533.87254609715 6.9984722061364675 0.20630953491940848
0.432594749300123 13.540677015178085 180213.4752420607 7.308504716926035 0.20886563942043745
0.4471442675187555 13.48126733234388 155318.038587602 7.639495606203042 0.21159453807602002
0.46197620204981343 13.42796283810538 134112.5309695794 7.965731512069575 0.21410028234543627
0.47710091118541076 13.380129480941536 116007.93089783758 8.312854930761189 0.21676199596878104
0.492491614728662 13.337438802228267 100549.26078434313 8.677716712443788 0.21952484542524003
0.5081700550122078 13.299370890730257 87288.09015234133 9.04225381382924 0.22212792069946427
0.5241250820325807 13.265427547807114 75900.84835382435 9.430570376279293 0.22490079961478948
0.5403606983506062 13.235354977474456 66104.30936164453 9.832468658994872 0.22769062901426532
0.5568757792083774 13.208853616437848 57665.606931611175 10.240074624141025 0.2303818774184195
0.5736756702631747 13.185510646056517 50374.135292197374 10.6740364055774 0.2332471420406774
0.59074032485237 13.165110377111553 44068.427501128455 11.117655614640208 0.23606850741952817
0.6080895719295912 13.147354517273332 38602.56873023233 11.5730215720273 0.2388653574179906
0.6256994606322349 13.132087246811933 33864.217972964674 12.05759792558414 0.2418416171750376
0.643579522429995 13.119098677173994 29744.399778263265 12.547787519885269 0.24472098499103778
0.6617279520292015 13.108065963216669 26157.96237106296 13.056447561648781 0.24764184111427537
0.680139940252564 13.09883748835898 22852.63857023698 13.597515331070028 0.25074879070269085
0.6988002926115919 13.091381202071561 20303.873440584353 14.13948118411263 0.2536996290227395
0.7177278105399195 13.085591628916127 17790.05893772565 14.707859369204785 0.25675613364532673
0.7368985153494549 13.08105310255585 15834.17849839769 15.312250378476005 0.2600063004570387
0.75630919543796 13.07772644845104 14006.533463116322 15.911539285933197 0.26301056538841583
0.775972927053468 13.075518357514293 12402.709315150505 16.546732890804766 0.2661874469015517
0.7958700185485459 13.074543513967077 10922.02918022109 17.217003031231155 0.2695184146215037
0.8159993188517218 13.07426451901757 9756.300849805464 17.885686004429324 0.2726544277904917
0.8363531032724901 13.074793812758346 8665.839965477533 18.59579764566861 0.27598473459900397
0.8569310968276309 13.076079205424868 7704.913745577047 19.337571346227612 0.27941350085031597
0.8777175214214799 13.077944932969041 6857.188248323694 20.085993304354364 0.282718638960571
0.8987121000349482 13.080356224591382 6108.277385238116 20.88067937454424 0.28622808598808397
0.9199091076301558 13.083183563156567 5446.349428167205 21.70162934397334 0.28976841993232644
0.9412957269585125 13.08633339598082 4860.5864146231315 22.540376880004818 0.2932636051672858
0.9628593096402229 13.089797866198007 4317.649212687982 23.430925294557714 0.29697465233684184
0.9845872519719074 13.09345597391916 3882.1747820691685 24.339456778867884 0.3006151600439553
1.0064927529328802 13.097130768300175 3473.5573923062834 25.280477152632223 0.3042925380485463
1.028552980464558 13.10100796147703 3111.0049657171944 26.27962767327657 0.308197080660302
1.0507675868414883 13.104946292681138 2788.796941969809 27.28622286660696 0.3119562957891162
1.0730999980857425 13.108605305339347 2501.481046470597 28.34341611051495 0.31586780236908774
1.0955776415331266 13.112369483869953 2246.0696914220102 29.460078706512107 0.3199817764946193
1.1181535756128593 13.115855223216103 2008.5041406365187 30.581519833344615 0.3239233559897451
1.1408384276172039 13.119109107545203 1815.0542436223939 31.77154568057984 0.32810599328197687
1.163617644956895 13.122214654509703 1633.7307348875784 33.007374241587655 0.3323716554573764
1.1864606839264686 13.124849412453276 1471.5178199162344 34.27218649510721 0.3366043617907508
1.209389335008729 13.127195984047443 1326.5351427524624 35.61468193826784 0.3410970356630825
1.2323324915816947 13.129033895640884 1196.87301904279 36.982963836130345 0.34550170039183076
1.255343853857772 13.130463903592647 1080.6333122015592 38.41231904314209 0.3500317916269427
1.2783728983307774 13.131420595642595 976.4388468813548 39.92174201083591 0.3547954241744342
1.3014099249270312 13.131757018203364 882.9503214142866 41.44715968767219 0.3594195535584413
1.3244461836336612 13.131496434211632 799.0572450243694 43.06609495071959 0.3643271708191702
1.347457392106015 13.130608509693811 723.7209873049675 44.73829051387647 0.3692866473270511
1.3704236387230448 13.129010604444074 655.9822676546426 46.469969016865036 0.3743197319612823
1.3933666767741306 13.126917034971925 595.0184674221629 48.30687357439453 0.37965454884179667
1.41620204998673 13.123717446636633 540.1007696236153 50.16401649550546 0.3848387581253048
1.4389734434861716 13.11996102605883 490.6641688987195 52.13546392065087 0.39034204811295603
1.4616245565330916 13.115263575920105 446.08544695739516 54.17303349442856 0.39589297168612686
1.4841641934902932 13.109737909325693 405.88544417797914 56.29194964481463 0.40155546730893327
1.5065581961657901 13.10337586533168 369.5811561638684 58.52562033285544 0.4074906403617633
1.5288120894106405 13.096059056372935 336.77620301977055 60.80865954301757 0.413378674172557
1.5508813920767914 13.08773356727834 307.10439624996394 63.23354866201431 0.4196325436008726
1.5727526168195443 13.078512154819864 280.28876906891793 65.71850661412188 0.42586678181483156
1.5944156182614724 13.068193312038574 255.99970954710136 68.3380452290571 0.4323993164564127
1.6158367778135332 13.056834132986108 234.00742394938868 71.05880076840566 0.43906491618740184
1.637001458487174 13.044353801171809 214.07095233811214 73.89606454814037 0.44591317951037907
1.6579238510834013 13.030916969088313 195.98339611077222 76.87178237161936 0.453014741692109
1.6785270598179856 13.01618027474853 179.55424596207354 79.95246494983833 0.4602006581432653
1.6988256026052102 13.000393289874937 164.65755086453686 83.2056998661484 0.46775155767909943
1.7188015870157747 12.983359867647874 151.10906319512574 86.55905313491932 0.4753558004367919
1.7384181589359238 12.965147575778776 138.78381034335408 90.11442944605145 0.4834004059976228
1.7576645373117998 12.945603904405512 127.56656396654887 93.77408747526397 0.491480450218486
1.7765206186591405 12.92489935695603 117.35745679271496 97.66028015546212 0.5000491250145561
1.794970657604074 12.902859470162307 108.04887562266985 101.66443066378443 0.5086596145393935
1.8129867761254101 12.879597663421581 99.5703997905355 105.91469013364949 0.5177802528625802
1.8305335848125495 12.854913439493162 91.83295578158096 110.30664956448345 0.5269739023996152
1.8476276331772663 12.828910922269992 84.76461482712723 114.95955912224744 0.536678890480991
1.8642199726076187 12.80165488759287 78.32317623368509 119.78910334177245 0.5465622961945875
1.8802979125466852 12.772793487066476 72.4175628909784 124.88869936983092 0.5569314941534019
1.8958464382122786 12.742648049699826 67.0254129749606 130.2133406802192 0.5675960438335907
1.910846548855509 12.711055207613361 62.08528571953679 135.81111779226399 0.5786877238733391
1.9252774244235409 12.678085869106416 57.56694134856108 141.69697780850956 0.5902234126173396
1.9391125536037348 12.6436185049214 53.426447818344755 147.85294836005352 0.6020950864097068
1.9523366602742938 12.60770820816995 49.63029205103235 154.3684792629131 0.6145804226746023
1.9649484965766135 12.570404782437892 46.15184058658888 161.16061072789265 0.6273673788869731
1.976902336415335 12.531524398005898 42.95199496236092 168.3423416254995 0.6407917874125305
1.9881821499497594 12.491122108369835 40.019161644251824 175.90460830465895 0.6547772740647338
1.9987961825352905 12.449279937093806 37.323761143178096 183.84129189516528 0.6692407062990849
2.00872590402997 12.40596057690756 34.84448851837387 192.2403968081376 0.6844230089455142
2.017910041952647 12.361034018320536 32.564871302441425 201.0800910915486 0.7001883082592474
2.0264048923153877 12.31476261298508 30.468559182063082 210.39601772173148 0.7166094048146845
2.034119078202818 12.266838688063912 28.537123734511198 220.25994011836875 0.7338524616631856
2.0411036536633236 12.217511672165433 26.759322077887298 230.67701756547336 0.7518637371959196
2.047333404909829 12.166785781464837 25.119096073509535 241.66517386787885 0.7706024187999185
2.052716143804264 12.114220883081478 23.607555425825094 253.31340852539583 0.7902764310267667
2.0573303255397573 12.060375243396733 22.21427939896935 265.6638986733465 0.8109317198781835
2.0611412237761484 12.00504476588409 20.929362531602134 278.72959948513784 0.8325223483811167
2.064125785223838 11.948150098917782 19.742781285793633 292.57731635693705 0.8551517532680224
2.066290079340052 11.889945551332499 18.64938218749202 307.2882565267565 0.8789421135186519
2.067601227908632 11.830147728332808 17.637747186703855 322.9246873404227 0.9039578683392144
2.0681073374467567 11.76911381490644 16.704324391711086 339.5551250039658 0.9302811667864775
