M[M_sun], R[km], Lambda[1], P_c[MeV/fm^3], rho_c[fm^-3]
0.23848912294887037 16.21570186450063 2784644.0411725277 3.4469561053153734 0.1694538074003404
0.24851215466144447 15.87170667146614 2283182.5481673046 3.6332829996118976 0.1719420168393006
0.25882537107024584 15.567350427676473 1881907.0012308743 3.81842622964582 0.17423537251611576
0.26942843215453155 15.297124764612692 1557369.598879443 4.015307024691583 0.17664916778092357
0.2803154996083167 15.056890899299319 1294247.7290341745 4.2200644773077345 0.17908607932293732
0.2914970239724805 14.842169495338421 1079422.3774770156 4.4278595737275355 0.18142832494783445
0.3029609809944843 14.650364635062791 903577.8975703133 4.650777645027749 0.183941035238931
0.31470107547421283 14.47869645305927 759047.7412239881 4.873954100506422 0.18631074634806297
0.32673774951646617 14.324598949979407 639527.0317639346 5.108658003171677 0.18876116189068795
0.33905983015413516 14.186146572470753 540492.3678212379 5.356576204799576 0.1913188017370022
0.3516643706350514 14.061901671300566 458093.7054543573 5.603781520770138 0.1937121929694649
0.36455494556314744 13.94991392698287 389314.7199859856 5.868188370680504 0.19627212593002438
0.3777253853514653 13.849199858548506 331728.6796352544 6.139453580036989 0.19879602429920284
0.39118968734567355 13.758598655339284 283319.47022940556 6.417466977066059 0.20127536657412357
0.4049397230252869 13.676861043266037 239399.69164439963 6.714576544190975 0.20392500978530725
0.41896847179786906 13.603533781447286 208099.5492524719 7.012081309669715 0.20642173699366098
0.4332913435148144 13.537577398856257 178918.51614786574 7.323996886390247 0.20899336668361165
0.4478984447314228 13.47831200460443 154131.86514534868 7.656277633111366 0.21172741563271322
0.4627924793352664 13.42514569668248 133047.0729342853 7.984027578158298 0.2142405750647968
0.4779710316341043 13.377610364777619 115062.80911045543 8.3334514236739 0.21691992817049052
0.4934281132962932 13.335055109692563 98646.52790897967 8.699084825012717 0.2196774301834817
0.5091749403793863 13.29709908635322 85636.67614025157 9.06614602804464 0.2222985294847819
0.5251974707619504 13.26329104013829 75201.42385015213 9.457248311635084 0.22509130059158466
0.5414975156723469 13.233462197476722 65484.22616995698 9.859959856751145 0.22787214167211695
0.5580884775453936 13.207042043611215 57100.4926237723 10.27060615383725 0.2305834640918184
0.5749585147558028 13.183944132870147 49864.66840765537 10.707915773874982 0.23347083306500263
0.5920877974779258 13.163551666698307 43609.97355016277 11.152391391218943 0.23628185397101015
0.6095166002221418 13.146052946503252 38190.72895096821 11.611395226806437 0.23910104775577048
0.6272016615534578 13.130897961835402 33491.9008862372 12.099969553117175 0.24210186299376463
0.6451587629049158 13.118005499041294 29407.83713934735 12.591085763275593 0.24496961458437796
0.6633882870046481 13.107160403822627 25856.142351780974 13.104078032882132 0.24791534746848454
0.6818715795218185 13.098121347190604 22761.022347492642 13.649898869247123 0.2510495903835759
0.7006174746822513 13.09075021774817 20059.90148440367 14.192890453193442 0.2539868421532154
0.7196295990144908 13.085023283667814 17698.641321671086 14.76640997541564 0.25707099477693357
0.7388741853866858 13.080689857797449 15636.773633404722 15.373274098301508 0.2603184653568082
0.7583738119531729 13.077405086274096 13826.985692796283 15.976848590326467 0.2633372058334258
0.7781235263641818 13.075375936459483 12241.318292110125 16.618124267546 0.26654450645509115
0.7981095819371528 13.074411424718269 10848.546367095347 17.289731520766534 0.26985949927609376
0.8183208068453016 13.074281949203431 9623.67682108801 17.964985522252938 0.27302632948704586
0.8387756583960366 13.074883329089909 8545.817475152058 18.68227419901515 0.27639029541178556
0.8594266829565484 13.076246851103575 7596.720868447517 19.425601418075534 0.27980225420282484
0.8803115625867113 13.078215806962303 6759.072427242923 20.181775290067367 0.2831416258703195
0.9014001500628718 13.080698968716126 6019.621879777068 20.984920642970067 0.28668843029679164
0.9226698862032631 13.083536588560083 5366.266751194465 21.80771355837352 0.29021048856907994
0.9441468947127009 13.08675325532754 4788.037940614191 22.655600869254407 0.2937437605998058
0.9658021481890772 13.090261558951529 4276.053836949491 23.55611589140441 0.29749634009967524
0.9876164974671673 13.09391032855241 3822.407146747253 24.466813546272014 0.30111285274885846
1.0096055801776012 13.097678311909473 3419.615517796059 25.418603704443978 0.3048323175874851
1.0317612938034537 13.101536816993308 3061.908176607767 26.429491517182502 0.308782727920051
1.054053667305914 13.105389869556863 2743.9449988037045 27.438669354631536 0.3125203321603641
1.0764891500903315 13.109220492702361 2461.0830801594243 28.50855242331129 0.31647878979056177
1.0990444893289055 13.11292021797041 2209.3483038538084 29.628467230986463 0.32057361920432736
1.121712285148307 13.116360204077363 1984.8299271501062 30.763663243708574 0.3245635436146547
1.1444918369680404 13.119758545522979 1784.7479002914483 31.968656103782884 0.3287987861391169
1.1673300399662547 13.12260657528538 1605.9766015389716 33.20849482678397 0.3330447074240723
1.1902642611123873 13.125341035404674 1446.4290738354355 34.48955713398629 0.3373317947179009
1.2132646865381147 13.127518098755655 1303.602559950431 35.849731689509596 0.341883631909261
1.2362913083895437 13.129268590021455 1175.8442263757754 37.22290792719073 0.3462621612055581
1.2593738192667938 13.130670111797626 1061.563359818 38.67148543737802 0.35085317416726886
1.2824750801931455 13.13151290853053 959.0371147649284 40.18689082556231 0.3555991925087923
1.305582519249514 13.1317356692574 867.0994523856524 41.73326198327707 0.36028683997581273
1.328684823621431 13.131373217988594 784.583616697648 43.374974780513334 0.36526350472873825
1.3517595292576914 13.130444267772441 710.503389092762 45.05461910854292 0.37020604927518175
1.374804975475194 13.128697341563802 643.8623499335154 46.81118532672877 0.3753114694940636
1.3977802915142647 13.126287365786414 583.950611070414 48.657163210131884 0.3806323813827731
1.42067965942899 13.123072251239718 530.0010892010557 50.541583646186155 0.385892735773151
1.4434937295087908 13.119072693954799 481.4144171272338 52.54267326263459 0.3914787718551333
1.466201800754936 13.114251813526879 437.62711065743053 54.5914358891612 0.3970110913098381
1.4887785696796438 13.108575313795626 398.1289110825253 56.74291609221232 0.40276060963320914
1.5112183951127152 13.101924819889229 362.4490252119503 58.98999006865116 0.4086882653052615
1.5334904956058062 13.094376456855764 330.2448575371622 61.30890829970064 0.41466883230039236
1.5555904543712245 13.085891352803364 301.13367104611496 63.76845436956493 0.4210037942002068
1.5774869191585446 13.076354602059887 274.7966340854729 66.27445645874684 0.42725319452059884
1.5991451919152586 13.065723406587331 250.9718397357893 68.93708771879633 0.43389319243659075
1.6206014778144786 13.054208194249625 229.3801540172959 71.67778255866472 0.4405589437508941
1.6417781529673576 13.04146994855032 209.81998597935396 74.56282352323537 0.44752252618692806
1.6626732495154743 13.027639132040296 192.07085880625462 77.5621214888019 0.45462500795391475
1.6832721722947959 13.012633747006422 175.9713239529683 80.6959357386598 0.4619348578982543
1.7035701019200455 12.996492602689221 161.34401947204736 83.97699210376277 0.4695005811018816
1.7235187323770835 12.979134630816157 148.0607003216322 87.38961458254528 0.4772392258819264
1.743111063538267 12.960562392603604 135.97729320543874 90.97781738132245 0.4853066531499696
1.76231922702025 12.940718110801665 124.98235186739055 94.70380728944315 0.49353314944656035
1.7811290464482257 12.919579380050108 114.96837657251378 98.62859862623883 0.5021313884139963
1.7995119686071033 12.897138940860136 105.85661814336275 102.70722321814706 0.510902026343659
1.8174767406469376 12.873436540393548 97.53890504589738 107.00271549880246 0.5200578066633724
1.8349729411280387 12.84836429096619 89.95595029102184 111.47854952347946 0.5294270301402394
1.8519793499520765 12.82193316032169 83.03399996918216 116.18446448303158 0.5391855942383447
1.8684914780059667 12.794084286379043 76.71086573106753 121.10876956450751 0.5492629230224961
1.8844829708881228 12.764925779690367 70.9365517917962 126.27053522238576 0.5596991279225886
1.8999270186812374 12.734305460789507 65.65511917442437 131.70258859725564 0.5705788097086116
1.9148254373213347 12.702201470784791 60.81471717791345 137.3732249801338 0.5817492955475371
1.9291411618324201 12.668773317753871 56.3925928068043 143.37772238372816 0.593511841734491
1.9428487885085162 12.633786079868361 52.33840315812066 149.62255101013264 0.6054890898866018
1.9559617336106858 12.597491987063279 48.6241334391062 156.2313083593047 0.6180874092824892
1.9683945580197344 12.559426497179546 45.2131399189242 163.1696788997289 0.6311496771056392
1.9802159491660618 12.520165863958956 42.08847585789074 170.46073069726162 0.6447094887240896
1.991327079989283 12.479160016457076 39.21623326896414 178.17525713679717 0.6589526156760521
2.0017766009873665 12.436765246711754 36.57570383196997 186.25581434967066 0.673624870336662
2.0115180495229716 12.392823494615945 34.14865130377795 194.79465660991943 0.6889784459333858
2.0205362887550242 12.347458459077274 31.921264953436125 203.83148612294715 0.7050850237940203
2.028812321489194 12.300451964112474 29.86688355175104 213.3188621555068 0.7217406121844825
2.036331682515658 12.252017465155047 27.98021653096455 223.36169906209585 0.7392154471315444
2.043090956638671 12.201982532704553 26.239390464505654 233.99952252597447 0.7575595344101099
2.049071617797877 12.150481622688636 24.63551546747098 245.22914418301576 0.7766664113708998
2.0542373237908462 12.097443723723751 23.15755889745225 257.1069900896092 0.7966325743905048
2.058615463639015 12.042987065847324 21.796341236829026 269.70751341650237 0.817613656422274
2.0621779202444017 11.986926108567287 20.538731440343632 283.0789428900363 0.8396659930572494
2.0649179674777516 11.929534164119268 19.380448523242467 297.2509482428536 0.8627714518354596
2.0668121453617507 11.870623945941317 18.310703802483555 312.28465595105473 0.8869706176499217
2.067844910726228 11.810213855297718 17.324396429164118 328.27305706025714 0.9124356915062378
2.068077943192867 11.748598018831887 16.41330880408289 345.28753120530826 0.9392545898511393
