M[M_sun], R[km], Lambda[1], P_c[MeV/fm^3], rho_c[fm^-3]
0.23848912294887037 16.21570186450063 2784644.0411725277 3.4469561053153734 0.1694538074003404
0.2485126958100267 15.871689591503426 2283975.5034078187 3.6332961978705622 0.17194219308885336
0.2588267721433861 15.567343337335299 1881857.7772194603 3.8184521550812476 0.17423569036678913
0.26943078823601596 15.297075269837388 1557476.0248824707 4.015348813276558 0.17664968011676876
0.2803187494235028 15.05685619402772 1294186.403479118 4.22011926382763 0.1790866968711314
0.2915002065293815 14.842148316915068 1079307.964866195 4.427933002195956 0.18142915262621503
0.3029668791081448 14.650262174442735 903478.9197637271 4.6508722215794664 0.1839421012963996
0.31470789211930994 14.478565056862932 758928.4539899316 4.874062449831339 0.18631187756431797
0.32674592914863515 14.32439585843377 639399.9524374803 5.10879063555384 0.1887625466331103
0.33906598942328103 14.186093859819124 540430.7042837661 5.356723073373746 0.1913202236884532
0.35167405557524656 14.061708932992733 458023.101908319 5.603955976922694 0.19371388201819892
0.3645659551428516 13.949903916817576 389273.2282724083 5.86839372690621 0.19627411414693713
0.37773682410249126 13.849174131779758 331686.485877515 6.139673902951993 0.19879798915385785
0.3912018491556863 13.758472769681093 283282.37545289507 6.4177219310129825 0.20127764027066308
0.40495120190346473 13.676885371624971 242495.62367794584 6.714870111359613 0.2039276278371692
0.41898152138622036 13.603485167453854 208059.10679793093 7.0123904184478025 0.2064242854823242
0.4333062652825768 13.537520170447157 178882.52859857844 7.32434880913732 0.2089962681577684
0.4479169633934552 13.47822637169727 154104.43725192276 7.656646039361985 0.211730240541329
0.4628086272792559 13.42516426981217 133032.3619943919 7.984443259942334 0.2142437624782871
0.477994428190626 13.377543107744728 115037.19662688204 8.333919429291516 0.2169235167988029
0.49344692743922886 13.33498011277594 99661.25824839283 8.699570376228117 0.21968089739260355
0.5091981029285289 13.297044434158927 86488.92445766847 9.06668900272867 0.22230240674163493
0.5252220693902078 13.26324659106335 75187.06428483089 9.457854672515426 0.22509563047463052
0.541527160887052 13.233427362180175 65467.034445956255 9.860584712551706 0.2278762673285594
0.5581151684794535 13.207000980849799 57085.29309646782 10.271300203041726 0.23058804660280613
0.5749876792466208 13.183902793511269 49852.70947369552 10.708686028034565 0.2334759187248188
0.5921184548183264 13.163538884496695 43600.43508573177 11.153181122340538 0.23628670448618455
0.6095467405336027 13.146067928146353 38184.166617559626 11.61226778062432 0.23910640696654287
0.6272345511761824 13.130919640355954 33484.48236579731 12.100933143690353 0.2421077813507463
0.6451934849072828 13.117986435846184 29401.096875880816 12.592070427397704 0.2449752687777375
0.66342371577049 13.10712686262258 25848.84971772921 13.105161363049765 0.2479215682275256
0.681912745625546 13.098085646537742 22754.56265696899 13.651090469129516 0.2510564328550247
0.7006567351482551 13.090756040386035 20054.36037760096 14.194105380011173 0.25399337553104706
0.7196734176859261 13.085018385308688 17693.732054145235 14.767742037171603 0.257078158058392
0.7389213224728279 13.080625483919102 15631.227126117737 15.37463336352016 0.2603252636376968
0.7584203421288513 13.077384828041804 13822.744283492162 15.978334609063893 0.2633446380641959
0.7781709377268836 13.075373210459555 12236.77939790878 16.619748902767288 0.2665526319676286
0.798160615778962 13.07440237866943 10845.198506285107 17.291386563411894 0.269867261153903
0.8183740922613612 13.074261204946135 9621.152240960682 17.966790350669267 0.27303479383548634
0.8388271660908604 13.074915499688661 8542.920399646806 18.684242656652604 0.2763995271543617
0.8594832469591477 13.076246210566648 7594.143733612191 19.427605205138256 0.2798111032122826
0.8803686629441748 13.07825139469039 6756.803278843477 20.18395584281552 0.2831512555022552
0.9014509007031548 13.080683449881926 6017.928172436261 20.987294126932493 0.28669891194048625
0.9227364318149937 13.083505627693079 5364.520856885115 21.810128957465682 0.2902205538949149
0.9442132567320167 13.086760921640293 4786.198099126285 22.658224754734867 0.29375469471930604
0.9658696572635738 13.090253993919756 4274.537000221903 23.558967166713668 0.2975082217862777
0.987680130349628 13.093981493311992 3821.2494054603453 24.469714090966047 0.3011241876780019
1.0096770306800087 13.097757636515903 3418.5801241211525 25.421750005014758 0.30484461289674447
1.0318326967363738 13.101588464232227 3060.7964443114142 26.432905702470432 0.3087960700858866
1.054127354044807 13.105420042896155 2743.0052754558633 27.442142289017834 0.31253318166141997
1.076572413112534 13.109254423695774 2460.2018206035473 28.512315031571926 0.3164927110552446
1.0991351337669657 13.113067483307733 2208.521651206929 29.632303853011795 0.32058710395207185
1.121790118792111 13.116368759773941 1984.0586555061775 30.76781390632859 0.3245781321349816
1.1445730372671732 13.119772871944694 1783.9976386392666 31.973148548234555 0.3288145759353978
1.167408306269908 13.122627268815052 1605.4167508921162 33.213078563735934 0.3330600469437307
1.1903479414169358 13.125283422126342 1445.826759192825 34.49451201778134 0.3373483762840283
1.2133563324658483 13.127659942108712 1303.1688381154834 35.855090440455704 0.34190156502068164
1.2363811740120616 13.129273710362973 1175.4089382617908 37.22837813284495 0.3462794980652602
1.259464819755546 13.130668676881754 1061.1167308579643 38.677394843349944 0.3508719029955313
1.2825687324531272 13.131483393929724 958.6830002106585 40.192936518759595 0.3556175193369029
1.3056850193709313 13.13182829522692 866.7976151034495 41.73978652114589 0.3603066183668295
1.3287903381500987 13.131328457666928 784.184424207538 43.38201995532172 0.3652848613711462
1.351857255434596 13.130387046070785 710.2006277756716 45.06183404927561 0.370227019338202
1.3749127076494487 13.1287418406023 643.5642201276161 46.81896924891385 0.37533409328888245
1.397874220935315 13.12622360248159 583.6808701105844 48.665154011454675 0.38065468768237415
1.4207815224734552 13.123085354857603 529.771564838238 50.55019819098434 0.38591678325092355
1.443599910175286 13.119066066501025 481.20977645728016 52.55196576824049 0.39150471185860936
1.4662858316796905 13.114148775295767 437.44541201162906 54.60098371619739 0.39703660649069594
1.488887654447277 13.10848496340007 397.9304210978877 56.75320886544958 0.4027881155745801
1.5113205820012154 13.10190302818536 362.3103842232849 59.00058869694759 0.4087155995190059
1.5335991132032263 13.094347491027412 330.1021675759149 61.32032788965931 0.4146982838014804
1.555687721915902 13.08584685631757 301.0112627637191 63.78024017257322 0.4210331853174026
1.577586505471799 13.076333503876034 274.68069228686903 66.28714992619199 0.4272848491468504
1.5992556160834426 13.065716828043087 250.8666567683372 68.95076765599129 0.4339273070944588
1.6207036103183985 13.054134809619185 229.287118612929 71.64229777257046 0.44038293926725375
1.6419128838212993 13.041416166345758 209.70430239734907 74.45872720495156 0.44705819800130997
1.6628415613694743 13.027563903167474 191.9482718239554 77.45123305968752 0.454150777923205
1.6834554013048597 13.012549960776303 175.83699291554456 80.63353831442645 0.4616932040539281
1.7021935863621132 12.997048871110849 162.24249311311752 84.1491929201887 1.2312810564183891
