M[M_sun], R[km], Lambda[1], P_c[MeV/fm^3], rho_c[fm^-3]
0.23848912294887037 16.21570186450063 2784644.0411725277 3.4469561053153734 0.1694538074003404
0.24849519834617106 15.872227167532886 2284625.3771614754 3.632979695766667 0.17193796651960078
0.2587925650767513 15.568270800514336 1883063.2754631136 3.8178304808087486 0.1742280685242683
0.26937702965045446 15.29838066860054 1558786.0394120247 4.014346810159985 0.17663739537168968
0.28024794426989613 15.05822585907941 1295640.6529525032 4.218805658514886 0.17907189004291635
0.29140682277157537 14.843835867221557 1080929.631861477 4.4261725253858195 0.18140930870700175
0.30285204008931504 14.652084049342266 905094.5065676364 4.648604847293817 0.18391654367934285
0.31456905091649884 14.480526502757346 760348.5548099609 4.871464988304722 0.18628475888404078
0.32659404379189216 14.326401465183915 640846.8928700368 5.105611225893075 0.18872935214950504
0.3388834842288958 14.188019064531513 541758.945020692 5.353202518161873 0.19128613839403139
0.35146633657404175 14.06365922158198 459262.8152540298 5.599774375150051 0.19367339660638241
0.36433156355653384 13.951657902939141 390360.5130037774 5.863471772233725 0.19622646078999595
0.37747863838382056 13.851035443515327 328072.57239391276 6.134393372103406 0.1987508970226626
0.39091508277421955 13.76026288566386 284203.472262757 6.411611763486538 0.20122314938347186
0.40463314434298164 13.67869684380603 243358.10043919572 6.707834990334345 0.20386488815212694
0.418634076363063 13.60525515660563 208846.74831890888 7.004983010692692 0.20636321411837089
0.4329282867965992 13.539170276627065 179591.36938468326 7.315915945324962 0.20892674228419972
0.44750670643828083 13.479838358685072 154741.3616534752 7.6478183502731225 0.21166255055256636
0.46236513416501474 13.42660566835905 133606.5348901944 7.9744833828468655 0.21416739096566553
0.47751581325464654 13.378980840701889 115564.29297407898 8.322706573064574 0.21683753754598167
0.49293883464480887 13.336344813710902 100133.10977885881 8.687937299964249 0.2195978282809259
0.5086529738424225 13.298336083753135 86912.6999507315 9.053680975949705 0.22220951942578673
0.5246399647809413 13.264386768973916 75566.25518014128 9.443329056072116 0.22499190640138053
0.5409080275170219 13.234449702545588 65803.38741296684 9.845616169259282 0.2277774364190711
0.5574601271681964 13.208011362542958 57391.23186620798 10.254675202715685 0.23047827881375899
0.5742878536107455 13.184735217426052 49676.25151428687 10.69023687817149 0.23335410685410882
0.5913854819423278 13.164402522270898 43849.18697518273 11.134265537358116 0.2361705252835657
0.6087703282755946 13.146750672834921 38405.427321466734 11.591369826611944 0.23897805208691428
0.6264220909701993 13.131469619678269 33682.8927531813 12.077856410163987 0.24196604444424127
0.6443350120171958 13.118426480844315 29582.713415514387 12.568489022230466 0.24483985831490956
0.6625227942534212 13.107630772917393 26011.57105148638 13.079218807303107 0.2477725994338646
0.6809715280939603 13.09855331424333 22901.472401609422 13.622557173166262 0.25089258736808323
0.6996685480319799 13.091085340201591 20186.988277333916 14.165013439097876 0.2538369310118629
0.7186361441710397 13.085286744486178 17814.078362322005 14.735847478386967 0.2569066422104627
0.7378485285136228 13.08078828737982 15738.383236114105 15.342087334556258 0.26016248668756947
0.7572914546005807 13.077565207258091 13920.686669564866 15.942756093640245 0.2631666943206706
0.7770036673626709 13.075477386471688 12324.271259020941 16.58085438908953 0.2663581034640076
0.7969410498853872 13.074486231241783 10924.42461502425 17.25176382690696 0.26968143703626996
0.8171164547602177 13.07435108860071 9692.924688570303 17.9235847342318 0.27283216660022996
0.8375117623103221 13.074908948640955 8608.404240484531 18.637123385704495 0.27617854552311183
0.8581279856557654 13.076169037661376 7652.662324970369 19.37963984357429 0.2795992813345894
0.8789633750808822 13.07805237452553 6809.454303751971 20.131762995018953 0.2829207644424165
0.90000141478563 13.080550950578022 6065.668421990283 20.93048761525771 0.28644804628294074
0.9212271972562615 13.083344785441895 5408.035960868295 21.75231868155544 0.289979649911165
0.9426547141867505 13.086564198360707 4826.08663419186 22.595429265145263 0.2934930166116432
0.9642712168714254 13.090000820011571 4309.9763076170175 23.490734975039622 0.2972238881356343
0.9860340664671479 13.093650709000645 3853.3540514080673 24.400302055095725 0.3008529350026296
1.0079907774269228 13.097476530612564 3447.557582759129 25.34646265571746 0.3045504003057648
1.0300984812034402 13.101325269972175 3087.404156366763 26.351214628586046 0.30847683262126924
1.0523386177933383 13.105141771649778 2766.977882275861 27.35904444821721 0.31222572817271665
1.074731596970344 13.108926445716529 2482.062748961928 28.422293200813698 0.31615963951380127
1.097237540594559 13.112604224482611 2228.3835259151265 29.54051014809724 0.32026447249473017
1.11985827193793 13.11616179400076 2002.209985885863 30.668514443369556 0.3242291198527392
1.142582181507154 13.119303397656429 1800.273582998804 31.86568111145357 0.3284368553087198
1.165393299633222 13.122407406057214 1620.3754130315142 33.10342596162711 0.3326930934594286
1.1882857028991032 13.125072872938006 1459.442064601451 34.37599047474809 0.33695174280388757
1.2112450499251155 13.127406408309241 1315.5397135349267 35.72691905856166 0.341472638262271
1.2342318909468477 13.129178245354753 1186.769366087077 37.09753939662122 0.3458648275835824
1.2572819931170274 13.130616251307725 1071.424515449004 38.53606300816519 0.35042397647266843
1.280340516063088 13.131451892718836 968.036821697803 40.048343699505615 0.3551792027273724
1.3034043199390064 13.13171664129749 875.3533225859212 41.58375453760948 0.3598336252378839
1.3264825256395198 13.131490174443016 792.1183818363108 43.21355174086912 0.3647741692292162
1.3495177478267752 13.130524747895276 717.2850754225761 44.88930469381759 0.369725566645678
1.3725245950643228 13.12886715894375 650.1028944478146 46.63285023301697 0.37479314255384
1.3954709518800312 13.12655040078119 589.6727222814261 48.47408710186771 0.38012132493727135
1.4183477477428394 13.123429007028927 535.2469352190062 50.344235218064114 0.38534183818658074
1.4411390212183162 13.11950245745146 486.1917486051255 52.32981370058201 0.39088457498146656
1.463803711935504 13.114790641328947 442.0421866364164 54.372726521763475 0.39642662229470943
1.4863692427538462 13.109171544298752 402.14338212274106 56.5071649532448 0.4021305989590105
1.5087997744147108 13.102756906221776 366.16023233325296 58.74723274473519 0.40806218611894146
1.5310532306348654 13.095252657898278 333.62502872087265 61.04737244426718 0.413994322658739
1.55314371133496 13.086901840548316 304.22696593748964 63.490844467207005 0.42029611801238803
1.5750091152240233 13.077482554696525 277.66127420084064 65.983774365069 0.4265282993669976
1.5966914689450118 13.067062976011451 253.57665557536276 68.6238467826035 0.4331120406508624
1.6181188473946762 13.055612222180601 231.78017362443154 71.35411448825832 0.43977771072236327
1.6393010947667703 13.043025725078758 212.0214335882509 74.21414141954487 0.4466809171412209
1.6602095145536924 13.0293695374136 194.0941177796732 77.20110614955759 0.4537829133857378
1.6808044897444698 13.014501170216334 177.83766591255866 80.30709968225077 0.4610278694813666
1.7010995358020153 12.998552914320664 163.06135984111452 83.573601911754 0.46858583198353676
1.7210627912809087 12.98135308756192 149.63598271934907 86.95518608622393 0.47625409264897667
1.7406634558479375 12.962920869896001 137.4264730224755 90.52621336475137 0.48430957080099424
1.7599032567506638 12.943279255847651 126.32152968755072 94.21746183839473 0.49245936257365613
1.778737021351824 12.922383906111458 116.20932378195171 98.12205388635465 0.50104211912515
1.7971590839099758 12.900173494467266 106.99187526948046 102.1616672261724 0.5097288676064071
1.8151323407889233 12.87665931064488 98.5941880218146 106.43348421265016 0.51886623988485
1.8326628844016168 12.851787969972593 90.92968731651291 110.86537650839783 0.5281434805321418
1.8497171254783236 12.825623334586497 83.93145303384674 115.54354280351421 0.5378739820651502
1.8662556003688424 12.79792029610239 77.5422768434648 120.4181954455847 0.5478496997694549
1.8822988320862237 12.768983545066014 71.70612846364936 125.54740866560934 0.5582508014269126
1.897813880753009 12.738647866750885 66.36523721814862 130.92317186043135 0.5690177414550156
1.9127608395568265 12.706871680656183 61.477708636611275 136.5556511868015 0.5801469338231499
1.9271210125666953 12.673594290884221 56.99928908665125 142.49963690724306 0.5917965430528194
1.9409080284596174 12.638966722061577 52.901876042909926 148.69624791494383 0.6037124899670725
1.954068342614785 12.602776768882254 49.14304488988567 155.25616782121529 0.6162515968536886
1.9666036728891738 12.565150364143413 45.698871330478816 162.1178711007685 0.6291695298810923
1.9784837765659993 12.526011791067855 42.53612825734299 169.3516422061935 0.6426583653048782
1.989699225272507 12.485381470736888 39.63077118382291 176.99373328467183 0.6567914774136488
2.0002333290663272 12.443291411139807 36.963514284616245 184.99148162805486 0.6713291608727483
2.010063500490394 12.399668199620015 34.510126961268725 193.45708338025818 0.6865929287827283
2.0191792773034916 12.35457720434358 32.25442832668638 202.39392318772929 0.7025314838918197
2.027552630964806 12.307955567930163 30.180032361228402 211.78800928028141 0.7190531193214816
2.0351981440928526 12.259774576350441 28.268338384880366 221.73704114184773 0.7364063904074667
2.0420562369757813 12.21007710586997 26.507460563087477 232.27277510189705 0.7546215235330008
2.0481698934206496 12.158945411919964 24.885927900609527 243.36203693295766 0.7734895823031912
2.0534494290117205 12.106179319050213 23.391852462339962 255.11945589132597 0.7933024621757593
2.057963969387468 12.052067042517656 22.012883933269563 267.58882719992636 0.8141125991368434
2.061630181861963 11.996327511349872 20.741579525503763 280.8132008922893 0.8359654292060961
2.0645123540618946 11.939235135844891 19.567985127263064 294.80165089854955 0.8587782174684441
2.0665469961561613 11.880675978731288 18.48540125638791 309.66599091834587 0.8827627949263676
2.0677463784276835 11.820706724314347 17.48580373170004 325.469678633555 0.9079919922451919
2.0680917266584506 11.759259562544026 16.563478373034478 342.2825863720046 0.9345506940823975
