M[M_sun], R[km], Lambda[1], P_c[MeV/fm^3], rho_c[fm^-3]
0.23848912294887037 16.21570186450063 2784644.0411725277 3.4469561053153734 0.1694538074003404
0.24847411926202448 15.87289359021327 2285362.2641049125 3.6325931604732373 0.17193280472710037
0.25875210125975584 15.569301610834952 1884381.3552801618 3.8170713408863746 0.17421876132724318
0.26931534996133816 15.299877598851701 1560543.032585732 4.013123408501147 0.1766223962391924
0.28015657478025 15.060188900111957 1297619.5440054415 4.217201977422015 0.17905381350940702
0.29129231031140773 14.846011927018136 1082970.718897814 4.424023583458333 0.1813850860476872
0.30270712199408045 14.654310419156431 907031.5509681875 4.645837541849709 0.18388535088807448
0.31440571126625855 14.482709638587218 762273.6329708203 4.868295099691975 0.18625166380450925
0.32639807098578705 14.328756915345501 642585.5492705188 5.101731677985143 0.18868884790401103
0.3386579869177507 14.190312033996943 543400.6922000368 5.34890703656516 0.19124455042108504
0.3512103674189171 14.066092679025877 460788.9716452836 5.594673046002272 0.19362400658251394
0.36404418244498093 13.954043409380269 391770.61605900084 5.85746810611746 0.19616833452443047
0.37715871929225253 13.853271505775096 333958.89826788654 6.127952730802292 0.1986934589480011
0.390558017410209 13.762526230343765 285362.6594673321 6.4041602731092455 0.20115669648839193
0.40424654159257073 13.680869127927183 244394.64140162698 6.699256747096208 0.20378838679883912
0.4182079723065979 13.607370108263986 209806.63202940172 6.995951263425269 0.20628875067005822
0.4324674321917249 13.541241288696554 180457.2446444587 7.305635364405682 0.208841982659817
0.4470056219573081 13.481733906693618 155520.59387216385 7.636239371887162 0.21156769161669217
0.46182580641973514 13.428514641760765 134311.4531433269 7.96234345801816 0.21407430302759228
0.47693576861803794 13.380671441405116 116190.89052546062 8.309041440352448 0.2167327544401867
0.4923177782369769 13.337985415186504 100710.11897658696 8.673760471941646 0.21949659482525757
0.5079849121840709 13.299810518072242 87434.44437373534 9.03783088507166 0.22209633758640185
0.523929595019356 13.265785970015825 76028.88926571827 9.425632490221428 0.2248655393105425
0.5401534689008735 13.235762774549165 66224.41174279225 9.827380341705785 0.22765703302462084
0.5566539232695854 13.209120493578833 57769.78041948758 10.234424413357843 0.23034457148559803
0.5734363260138229 13.18576532709986 50468.00082216896 10.667767594062791 0.2332057517509681
0.5904887912434714 13.165380013246086 44154.62155697998 11.111228398877502 0.23602903156916116
0.6078212956960806 13.147626236904944 38679.95182147784 11.565922311380309 0.23882175387932567
0.6254204838249937 13.132376538991005 33933.730360324305 12.049760247373857 0.24179347828820433
0.6432827696113002 13.119218279788468 29806.441210781635 12.53977845041539 0.24467499486466296
0.6614198912813829 13.108199540558775 26213.286751560245 13.04763850839902 0.2475912572763248
0.6798095160360392 13.098982225717869 23081.857795097523 13.587828762249288 0.2506931679457801
0.6984649318043817 13.091561115419081 20350.71895581792 14.129604884247328 0.25364651833520063
0.7173803415578069 13.085664453329287 17961.18620328864 14.697034067149627 0.256697919613472
0.736531178076477 13.081106729901615 15871.269764876673 15.300385588097773 0.2599424964835783
0.7559246229286505 13.077775647046618 14040.717265284497 15.899466196391254 0.2629501825780757
0.7755681956295332 13.075696204408557 12433.849206251387 16.533537614583366 0.2661214515439678
0.7954533153127478 13.074514408327468 11022.410349623282 17.203560418839388 0.2694553709802329
0.8155653859253049 13.07422723489449 9780.831284210246 17.871031229068045 0.27258569930425297
0.8359083311657323 13.074805368312033 8688.13660945494 18.57981919481558 0.2759097982924079
0.8564709915349066 13.076076962603949 7724.983645057131 19.321305535568886 0.27934166871054694
0.8772388619671155 13.07790138291725 6875.3568425665235 20.06829807226564 0.28264049429189686
0.8982269527899811 13.08025554127456 6124.639475260979 20.861424618608105 0.2861430542396737
0.9193965310825614 13.08304692300591 5461.247516837521 21.682033726530822 0.2896867620915427
0.9407616597648091 13.086232744587777 4874.066968944374 22.51909661563361 0.2931749271531861
0.962313808232159 13.089697657093835 4354.091001091071 23.40780838148666 0.29687832073552817
0.9840231776924282 13.093334076867258 3893.2181616632547 24.315939250630635 0.3005232567829068
1.0059172872522895 13.097117115534848 3483.9102898148626 25.254975354789302 0.30419288053519195
1.0279545179571095 13.100862757198692 3120.1423760252364 26.251963829155596 0.30808897416789316
1.0501601021848586 13.104828021148512 2782.358668466572 27.25808145066056 0.3118521754362116
1.0724739196037825 13.108518941836927 2509.2340411568894 28.312937649431575 0.3157550351888565
1.0949290397043359 13.112277289890867 2252.9469641043756 29.42899917607493 0.3198725398731345
1.1174993090241883 13.115807166758573 2024.564672260857 30.547907617689294 0.323805217625775
1.1401656649588596 13.119070995885615 1820.7838424065967 31.735178218111614 0.3279781709282886
1.1629169363116478 13.12215276270599 1639.002348590398 32.97026590243089 0.3322474720445949
1.1857567627530763 13.124759946276956 1476.2936570627157 34.23208733404113 0.33647016956377396
1.2086706604458728 13.127131739698777 1330.8168728740868 35.5713296956341 0.34095195696744907
1.2316114310331223 13.12904921069221 1200.767971792461 36.938707681680825 0.3453614382537785
1.2545957116616806 13.130421032339967 1084.1782446012242 38.36452659816574 0.34988032183480855
1.2776168006675372 13.13139871455167 979.6849960859154 39.872845214682634 0.35464719912413517
1.3006335020768964 13.131727505398175 885.953412651553 41.394408957663295 0.3592596457480324
1.3236680780698293 13.13153443633891 801.7957322354891 43.00915579920108 0.36415456628754894
1.3466648196337603 13.130735075627602 726.2165821015443 44.67997701530735 0.36911716045456866
1.3696254227266211 13.129156733151019 658.2154036102262 46.407080107223514 0.37413694675939063
1.3925374901917944 13.126878465968206 597.0682088619022 48.24083667618447 0.3794667189972683
1.4153889806087023 13.123919650036695 541.9748757709805 50.09444074479387 0.3846445376112852
1.4381223679459205 13.120092362851697 492.40731664703696 52.06044132884104 0.39013262275720545
1.4607778174411252 13.115526888349553 447.6987170822707 54.09594776353282 0.39568697126761176
1.4833171013542255 13.110054775741167 407.34223816201325 56.20888164855598 0.4013334801552065
1.5057012936487617 13.103651437182917 370.91472054291876 58.44008289322714 0.4072700364692071
1.5279405364871776 13.09634824020303 337.9988811021097 60.7165325440223 0.413141075587935
1.550013213920529 13.088102112164067 308.2288776518914 63.134261904868936 0.41937647976261966
1.571881125978038 13.078955403363137 281.32538303360826 65.61614351008922 0.4256115114709242
1.5935342504970063 13.06862658408345 256.949809228493 68.22777191040906 0.4321243198329603
1.6149581278955347 13.057347218728003 234.8842844857095 70.94485768492687 0.4387898933837175
1.6361417495849782 13.045001164843834 214.86914743503726 73.77335383207183 0.44561699439632985
1.6570323474513593 13.031524647495962 196.72017302545672 76.7447336831066 0.4527183913743786
1.6776442481022318 13.016852065196865 180.24216420095286 79.81566891226228 0.45988157142403596
1.697949929904993 13.00110890662241 165.27761831265624 83.06378782467912 0.46742975036353207
1.7179256518951787 12.984128853729548 151.6798509106528 86.40627114226281 0.4750093438400522
1.7375466427443855 12.965942614194908 139.30723823734104 89.95561381314567 0.4830497619411017
1.756794205847078 12.946519105576291 128.05292027892094 93.60311055123304 0.4911029556285846
1.775678377782487 12.925946452302727 117.8018218887746 97.48221183102652 0.49966620847855897
1.7941216907171926 12.90393479984706 108.46543714767644 101.47271290080228 0.5082473463725371
1.8121406508512456 12.880649309205554 99.94798086651427 105.7146658455795 0.5173615438029063
1.8297176844228222 12.856129627693576 92.18231262088646 110.09125840401975 0.5265230260029035
1.8468182381158587 12.830192061830278 85.08815894192368 114.73443855591611 0.5362181931997586
1.863429970062388 12.802930452785878 78.61154183819433 119.5466278698344 0.5460660830208741
1.8795143172693372 12.774229287794249 72.69716733304914 124.63481780298054 0.5564230030786552
1.8950895454681367 12.744221817454152 67.2803717097667 129.9397948934013 0.5670481679367422
1.9100977280280693 12.712654658863915 62.32616496296579 135.52421121438988 0.5781254160760373
1.9245478964877079 12.679809090865593 57.79004530497442 141.38771807403035 0.5896172948999359
1.9384163341594616 12.645413799849702 53.62985860805268 147.52804587672 0.60147194077979
1.951658566644747 12.609613563312513 49.820899493706946 154.02581263478538 0.6139343107745123
1.9642959699557592 12.572357866049366 46.3250013770615 160.7918779832744 0.6266731977622685
1.9762810383417195 12.533581300654797 43.11643848361098 167.95358656103434 0.640072832501824
1.9875986828515286 12.493343245103048 40.17160737551786 175.48517284082234 0.6540015795104657
1.998238583424809 12.451596392114856 37.4647461295611 183.39836903280624 0.6684364700489925
2.0081707780295615 12.408375559338717 34.97807396721731 191.84324515087854 0.7103013984286043
2.0161214585893052 12.365275827675413 32.87615729387967 201.24276190969022 0.9664325472615205
2.020814530624329 12.32142283418245 31.216600366385975 211.3231906465254 1.2411181358236663
2.0220392616562473 12.275302597827395 29.93068036172985 222.32006129123124 1.5266049086032265
