M[M_sun], R[km], Lambda[1], P_c[MeV/fm^3], rho_c[fm^-3]
0.23848912294887037 16.21570186450063 2784644.0411725277 3.4469561053153734 0.1694538074003404
0.2485108509137001 15.871804409112336 2283947.385328408 3.6332408964270884 0.17194145459334975
0.25882038995034445 15.567515072967707 1881895.1190273752 3.818343526856954 0.1742343585645005
0.26942133563316834 15.297286386920199 1557638.6187845743 4.0151737194811785 0.17664753343418307
0.2803076263135607 15.056993660636822 1294311.8189850235 4.219889710285836 0.17908410936647795
0.29148332998197385 14.842365404075895 1079495.8264825416 4.42762534205481 0.18142568471175524
0.3029455712695354 14.650586248204752 903785.9904702698 4.650475955755978 0.1839376346275159
0.31468565723437175 14.478849409990021 759174.8507581075 4.873608479976054 0.18630713791245604
0.32671752048464936 14.324796253504632 639691.9789953484 5.108234927403108 0.18875674478714924
0.3390356118337216 14.1863793838081 540630.3236411137 5.356107720769324 0.1913142659705841
0.3516328227401522 14.06198209387505 458238.14698816254 5.60322504343652 0.1937068052699079
0.36452423859476346 13.950186393874366 389456.1516791699 5.867533336136941 0.19626578401974884
0.3776890025639491 13.849486564849657 331879.1782836927 6.138750809019909 0.19878975693974876
0.39115089177042456 13.758794220815002 283434.305099682 6.416653751406932 0.20126811417270238
0.40489690144410145 13.67723918721074 242651.69553301152 6.713640164813617 0.2039166590906988
0.4189200026569978 13.6038261405406 208199.10907431107 7.011095361646074 0.20641360821331278
0.4332406705407695 13.537797413234884 179005.717608684 7.32287438970735 0.2089841121095793
0.44784515198210756 13.478517308044301 154219.5509694564 7.655102564268372 0.21171840530215252
0.4627321030359986 13.425422292177945 133134.06234937426 7.982701734305076 0.2142304086039459
0.4779071457706049 13.37778196796126 115125.86619694486 8.33195870700916 0.2169084821427425
0.4933621363455097 13.335267337935235 99749.20049876282 8.697536149867068 0.21966637145183512
0.5091045294107124 13.29723934876673 86562.73815337823 9.064414219759344 0.2222861630416681
0.5251202451451362 13.263440588314097 75248.70583364248 9.455314357289593 0.22507749067012786
0.5414135562535086 13.233592832566783 65527.61982872114 9.857966916954748 0.22785898314033565
0.5580025395509258 13.207213026171914 57139.61921849224 10.268392552207215 0.23056884862402924
0.5748624298499598 13.18401003502938 49902.5800155806 10.705459154068123 0.23345461305180323
0.5919906283051755 13.163633536239024 43642.98724878645 11.14987265420565 0.23626638393093033
0.609412759081287 13.146185512254323 38219.84894938612 11.608612372260536 0.23908395551027833
0.6270928357290724 13.130978769761718 33518.548708799695 12.096896391517578 0.24208298768726516
0.6450435802991946 13.11808657674531 29432.790307212348 12.587945392496675 0.24495158177176105
0.6632671545155678 13.10719052113192 25876.674946583316 13.10062303137219 0.24789550796569773
0.6817473445736332 13.098193908740344 22779.83578082732 13.646098618063954 0.2510277683688178
0.7004832269683902 13.090853015591756 20077.89247942979 14.1890158059624 0.2539660058905241
0.719491630946758 13.085045167330563 17714.900938013077 14.762161815342902 0.25704814991546565
0.7387322480120759 13.080641531567533 15649.941686142482 15.368939179148587 0.2602967845268813
0.7582269992625854 13.077489487069505 13839.953916302735 15.972109493736362 0.2633135035350547
0.777970261234859 13.075458690325812 12252.625057912346 16.612943173548217 0.26651859353403345
0.7979479741774732 13.07440890914329 10787.041110604241 17.28445344882037 0.26983474598672724
0.8181587610352671 13.074386575927537 9633.747726432077 17.959229845688615 0.27299933631056966
0.8385943205035377 13.074961071490083 8554.929546939926 18.67599678560776 0.2763608553753231
0.8592446035048541 13.076244926867858 7604.526397759441 19.419211329259607 0.2797740346592317
0.8801202912521087 13.078180492464826 6766.207537558924 20.174821587241386 0.2831109173268729
0.9012115501728044 13.080797943891426 6026.314848479256 20.97735179320123 0.2866550051767105
0.9224669907134281 13.08355848426583 5372.293197109828 21.800011030633396 0.29017839099493203
0.9439382613750202 13.086743230438822 4793.210987020752 22.647233608494005 0.2937088929846886
0.9655909357282406 13.090249630034062 4280.776951633429 23.54702363901559 0.29745845133704196
0.9873974955573469 13.093907940142238 3826.7044806774 24.457564162211032 0.3010767074299576
1.0093878710566258 13.097687101963222 3423.405304659709 25.408570784222068 0.3047931103171916
1.0315296941380185 13.10152955997717 3065.434795456902 26.418604523308172 0.30874018304756395
1.0538087002429948 13.105323788601694 2747.142343598798 27.427594998136755 0.3124793581770854
1.0762452299693706 13.109180348877064 2464.0238209986883 28.496554539284908 0.31643439885013025
1.0988000252501093 13.112952553887357 2211.946113885885 29.61623331224551 0.3205306201006735
1.1214570801262742 13.116414392918609 1987.2840653822032 30.750428128498434 0.3245170255608044
1.1442260204541648 13.119730072289409 1786.8770621828737 31.95433136983128 0.3287484383533386
1.1670611503226762 13.122580836825435 1607.9772268295387 33.19387896381534 0.3329957952985114
1.1899866946310351 13.125219476830871 1448.1837293249625 34.47375805464398 0.33727892294740097
1.2129714090456725 13.127424069661492 1305.229294489845 35.83264510550327 0.3418264514920583
1.2360136686575576 13.129338716168219 1177.4018400971827 37.205465927494515 0.34620688183933823
1.2590845230911618 13.130610703785898 1062.8688713072145 38.65264331676267 0.35079345736277423
1.2821787459181742 13.131509674630166 960.3162141870826 40.167614117558834 0.3555407573711514
1.3052788551712844 13.131769852382067 868.2388559917356 41.71245879927696 0.3602237775006123
1.3283911009560505 13.131442277179271 785.623763377523 43.352511925818014 0.3651954111514692
1.3514417734957993 13.130379168720157 711.4260949669263 45.03161493273705 0.3701391881554231
1.3744860522015403 13.128713467038901 644.7223931502864 46.786367402091514 0.37523933675410653
1.3974856545561136 13.126535794151176 584.7458888867011 48.63168565003475 0.3805612608448353
1.4203545922859844 13.123116288735929 530.7168643885361 50.51411780935814 0.3858160649662655
1.4431860963162348 13.11930831892564 482.088621312004 52.51304636632048 0.39139606845672104
1.465854691787751 13.114262455294163 438.2342687057196 54.560994931776975 0.3969297422730153
1.4884457445430022 13.108630071076233 398.66402046897394 56.71010060055874 0.40267291499847113
1.5108838067865453 13.10207791278281 362.9740507574273 58.95619943031287 0.4086011181287528
1.5331588603827642 13.094556202565776 330.72209776212753 61.27250087983185 0.4145749363575645
1.555250988558254 13.086032586390917 301.5758193582538 63.73087940873982 0.4209100907778382
1.5771405775002485 13.076499370853801 275.1912840167349 66.23398841714801 0.42715227641154174
1.5988216709942897 13.066003680815905 251.33007246496086 68.89347547944126 0.43378443341209705
1.620253525510417 13.054389447580077 229.7131011891916 71.63271845104356 0.44045017315381074
1.641437685249455 13.041693291779533 210.11523621349485 74.51427264488957 0.4474053396208257
1.6623143492229586 13.027801218491627 192.3584800059044 77.51185305652594 0.45450775317504866
1.6829385775767087 13.012915167000115 176.22490155152303 80.64178887010274 0.4618085563843321
1.7032310469278598 12.99684336113467 161.5844346109873 83.92081805964494 0.4693731978428223
1.7231782688507908 12.979420431822561 148.27390963531326 87.32911303717931 0.4771020293501852
1.7427679147842359 12.960876889322947 136.17472595839013 90.91492313169216 0.4851677909081442
1.761980482480719 12.941037224040032 125.16635551228089 94.63606863658752 0.49338359139874105
1.7808029113168307 12.920035956769656 115.14530436672406 98.55804555271148 0.5019796717142145
1.799184174469919 12.897560237864452 106.01077533225904 102.63122965134785 0.5107386104556899
1.8171551600164275 12.873859332030209 97.68137828892272 106.9234226329629 0.5198918236139394
1.8346514966986796 12.848873454448007 90.09195331973967 111.39312773776435 0.5292482174774494
1.8516604923487103 12.822452799559311 83.1590889817742 116.09517507681238 0.5390028682113166
1.868175150606038 12.794612693416571 76.83125057100978 121.01255374282687 0.5490660224541376
1.8841823414053964 12.765478660920092 71.04440553667871 126.16978140872224 0.5594973314092372
1.8996375570603687 12.73488812030983 65.75377469279266 131.59398125789323 0.570361283625868
1.9145331844774156 12.702886307707704 60.909587534761506 137.25929735502643 0.5815260089557809
1.928860746043142 12.669418179905959 56.47596946538562 143.25797853477437 0.5932821794203733
1.942582993480132 12.634485812082017 52.41629759516855 149.4934549817299 0.6052414905912274
1.9556875215569722 12.598157701511512 48.69616414590823 156.09540103775151 0.6178315483677524
1.9681507803350329 12.56024519654679 45.2804692854458 163.0230711937445 0.6308736715061474
1.9799625360772475 12.5209016181518 42.14995672022513 170.3061325470406 0.6444235783670361
1.99110020710794 12.480005362244555 39.273603922997964 178.01195013998597 0.658656091342154
2.0015595712879395 12.437644890825172 36.628742085452686 186.07954973982132 0.6733048182443084
2.0113284479241225 12.393803991609673 34.19735407844042 194.60817225389843 0.6886458573171124
2.0203444888319626 12.348394249195698 31.965889182670885 203.63387592254387 0.7047381086777249
2.0286374920095187 12.3015035861304 29.911234323643292 213.10539590043987 0.7213658609289777
2.0361776141534143 12.253089356335792 28.018816673235186 223.13513952225918 0.7388237224547061
2.0429318608249725 12.203042323695529 26.27649250766876 233.7587120102685 0.7571498022717549
2.0489412565696754 12.151707771532488 24.671764731687514 244.9687289756044 0.7762233224157516
2.054131499080547 12.098672191994396 23.190496434735635 256.8297602472885 0.7961680759758353
2.0585651895801025 12.044337245171448 21.82549785760799 269.4119695879245 0.8171252802455135
2.0621279723720094 11.988307666645829 20.567333118309108 282.76344827092896 0.8391516235142629
2.0648702561461665 11.930882886809306 19.405854353205306 296.90921928511284 0.8622143108981094
2.0667652404687127 11.871978278273776 18.335418750949025 311.919268199891 0.8863834914375002
2.067852576753864 11.81169650047155 17.34512991565661 327.8818639942742 0.9118156024302583
2.0680818270834544 11.749984413619545 16.432161344157592 344.8681751200402 0.9385981360975707
