M[M_sun], R[km], Lambda[1], P_c[MeV/fm^3], rho_c[fm^-3]
0.23848912294887037 16.21570186450063 2784644.0411725277 3.4469561053153734 0.1694538074003404
0.24847360485707692 15.872891220536708 2285523.4626357104 3.6325705215415454 0.17193250240679533
0.25874835538324364 15.569476941965455 1884545.5125992259 3.8170268821209015 0.17421821625448708
0.2693118910710372 15.29993138178917 1560391.0075818156 4.0130517660681795 0.17662151788960317
0.2801548307286686 15.060117026185267 1297639.5483918518 4.217108071715429 0.1790527550136379
0.29128835900120237 14.845978932413605 1083062.3710465282 4.423897759174781 0.18138366776889844
0.3026973018476131 14.654286320898217 907174.0596763381 4.64567552444239 0.18388352464400043
0.3143947881701836 14.482876292896652 762369.215667441 4.868109521951118 0.1862497262884501
0.326385733307675 14.328830203240727 642669.7666426772 5.1015045723364825 0.18868647681769768
0.33864449973717325 14.190445540500749 534833.9648891272 5.348655593920627 0.19124211600490537
0.3511977910786601 14.06609223227538 460847.64682715107 5.594374455848042 0.19362111569380297
0.3640279504322153 13.95422329715975 391859.54453925433 5.857116729603719 0.1961649325689993
0.37714063243064117 13.853508246115211 334061.50809441274 6.127575793281215 0.19869009739369836
0.39053911704908423 13.76266575536513 285446.9908573373 6.403724211743859 0.20115280766364746
0.40422426391348726 13.680983296426769 244463.66904131335 6.698754790672777 0.20378391031751097
0.41818322893270243 13.607445419145993 209864.22310144207 6.995422785238036 0.20628439356096137
0.4324387005292708 13.541399622131324 180512.08041024877 7.305033863467788 0.20883702350488575
0.44697678182745615 13.481804132335771 155566.66834742908 7.635556787996553 0.2115620639625127
0.46179696293348405 13.428569611759501 134345.22201737715 7.961633246391714 0.21406885718366536
0.47689794994320145 13.380723337038168 116230.07519027729 8.308242069798315 0.21672662493298703
0.4922810369742554 13.3380691528203 100743.79512921536 8.6729311832531 0.2194906730662044
0.507946357350592 13.299844651605339 87460.83900447788 9.036903796793537 0.2220897174630601
0.5238869833551768 13.265887510210112 76058.5715045869 9.42459749111402 0.22485814862088402
0.5401091972439699 13.235842887556414 66250.71309916861 9.826313815521061 0.2276499912069389
0.556604762447583 13.20921335185323 57792.54039222195 10.233240145881116 0.23033675227236428
0.5733879199764876 13.185844200235017 50485.96218717476 10.666453707559398 0.23319707671856463
0.5904377495889562 13.165426323285358 44171.53160712319 11.109881314633146 0.23602075780054574
0.607768519497543 13.147622518033106 38695.20290904456 11.564434415515139 0.23881261524811992
0.6253653926549279 13.132365332222747 33946.43606373122 12.048117638935018 0.24178338941499122
0.6432224854758498 13.119188693032267 29817.538429597054 12.538099922419198 0.24466535632738232
0.6613571584016702 13.108227528579176 26224.39511800673 13.04579237526403 0.24758065630744794
0.6797459877532313 13.099000014204263 23093.027492798366 13.585798787358808 0.2506815113104991
0.6983970108230046 13.091569554931164 20359.366793580983 14.127535145934843 0.2536353881319564
0.7173076203909965 13.08561851748003 17838.09658243409 14.694765518217906 0.25668572028830744
0.7364542467656983 13.081096575662883 15878.792142184866 15.297899280761891 0.2599291261430821
0.7558453646529257 13.077817916963635 14047.975969872272 15.8969362331149 0.2629375291232866
0.77548643337139 13.075612181328308 12439.942484108924 16.530772577677958 0.2661076223829678
0.7953663011186707 13.0744989366924 11027.931129197425 17.200743545425343 0.2694421603071997
0.8154728979447587 13.074239756762342 9786.063239249166 17.86796044343746 0.272571297824684
0.8358161443432931 13.07480862535021 8692.702830086437 18.57647114940644 0.2758940965100772
0.8563708735930504 13.076027177042008 7729.098797417975 19.31789726579501 0.27932661730512337
0.8771344639067881 13.077913558680711 6879.454740562311 20.064590404031186 0.2826241207001699
0.8981210253890936 13.080258567267625 6128.280234830791 20.857390314598394 0.28612523817777696
0.9192869261945453 13.083097599447362 5464.619714610761 21.677927986741572 0.28966965286561536
0.9406496615287723 13.086205778613557 4877.0567066342 22.514638046614508 0.29315634763558973
0.962202827147789 13.08970656859228 4356.718684295726 23.40296516411388 0.29685813833126007
0.9839060110052823 13.093273108661979 3895.5749316952265 24.311012075776286 0.3005040020622447
1.0058000305870016 13.097061621071495 3485.8618526355226 25.249632630782095 0.3041720019056782
1.0278337767496946 13.100874719078819 3122.070337957628 26.24616834471799 0.3080663262129806
1.050007475665204 13.10476184140485 2798.9227226761263 27.252185883471316 0.31183036244224266
1.0723525914862848 13.108617920915346 2510.8593882636874 28.306552692998192 0.3157314115048745
1.094805064467527 13.112292242482692 2254.3866391629526 29.42248826852605 0.31984965569395174
1.1173488532129785 13.115690821768272 2025.946949476092 30.540866372971337 0.3237804694467254
1.1400164808760151 13.118994466792293 1821.9688723173729 31.727560057244066 0.3279513950361373
1.1627694958980876 13.122079346170977 1640.05802486246 32.96249250543135 0.33222145829700495
1.1856109412451576 13.124694722371496 1477.175244152865 34.223687718638026 0.33644206017029227
1.2085181723621958 13.127121505191518 1331.7826336085468 35.56224897986842 0.34092156826507364
1.2314505551361448 13.128993962764207 1201.557578877271 36.92943758150257 0.345332058293248
1.2544441550928578 13.130376884779894 1084.881265979739 38.354516131521024 0.34984859541230406
1.277455286599398 13.131395511090114 980.3619093298474 39.86260338855806 0.35461615219853065
1.3004648215754402 13.131769257395936 886.5957359152403 41.383360295588574 0.3592261529914389
1.3234923945174608 13.131503076702595 802.3400225104574 42.99723031467438 0.36411841554388324
1.346482764429256 13.130607830848078 726.6876280793731 44.66506616425851 0.36907255882323925
1.369461645465837 13.129156316681064 658.6951913703452 46.385280170261154 0.3740696191997007
1.3923745259746536 13.126909718549449 597.4782884474339 48.211466234238124 0.37937451846717674
1.4145494218596046 13.123649340969283 543.750229428768 50.152680705977424 0.45092667377320395
1.433710895872962 13.116900956511543 500.22830967569126 52.21748756409426 0.5619336902539869
1.4498169779427212 13.10540497800085 464.64276147810676 54.467826129867255 0.6678842345482949
1.4635563807160128 13.088838049931203 434.3291130871647 56.92516501125579 0.7678362685664162
1.4751688995314907 13.067350760775913 408.1625400079763 59.55411968020579 0.8719237570864563
1.4850810817704856 13.040951296790082 384.91322266975186 62.39910771705751 0.9579382435622912
1.4936337096001688 13.010123594875811 363.86382615858463 65.44658156507208 1.0500746232904747
1.5009939073412917 12.974915563422389 344.52467656445987 68.67891367797871 1.1319109949893116
1.5074552062170703 12.935691660193706 326.4556395706613 72.1350443493346 1.214251872418329
1.5131410657113842 12.892803375962126 309.47819286594626 75.79197766396398 1.293557488693233
1.5182265822222227 12.846244810787201 293.32685383805375 79.66116431201725 1.3690476227926145
1.5228276421678337 12.796577299396 277.9110139210718 83.77192517450123 1.4455558858562614
1.5270717749564762 12.743849306343122 263.0982407627019 88.07170005999703 1.5162780869249408
1.5310140352686759 12.688261664320885 248.84930687748636 92.66067335947045 1.5903237930165748
1.534767413759592 12.630101627202441 235.09033270660748 97.4197802679567 1.6594842727436623
1.538363041251074 12.569586756260131 221.82618409235948 102.51329566589732 1.7329298276002718
1.5418920667571043 12.506934860101799 209.03415928717482 107.77025949612816 1.8030280462153248
1.5453957303705148 12.44236710031419 196.70180925369334 113.40065334254719 1.8779263327519182
1.5489006665595444 12.375976102476107 184.8274307458991 119.20567898552562 1.9529132657236428
1.552410321598977 12.308051238027074 173.4359058360129 125.41109464914047 2.033662255295173
1.5559484531955177 12.238835590062902 162.5705957368996 131.82876102463942 2.121634181257134
1.559527403584971 12.1683569995616 152.1787004782845 138.66400263259163 2.220198786181359
1.5630969520977938 12.096886825167402 142.31659868867754 145.77840653618293 2.3410960205688145
1.5666153161766754 12.024442365417325 133.00850034230498 153.30608481389004 2.4444572692925153
1.5702632181265963 11.950893149309495 124.10119763525613 161.17481811236811 2.506599987355796
1.574051252480528 11.876225237449088 115.6123250697301 169.41179257956404 2.556806719911366
1.5780315700495418 11.800524079512444 107.50121279664972 178.07205480164205 2.5967120045557266
1.5822673785480939 11.724280159975393 99.79189138920746 187.043606904363 2.6377362369169695
1.5867452198835352 11.647856821138115 92.50554372340105 196.54813142258863 2.6810772364536746
1.5913730284155276 11.571098497680797 85.65895776781612 206.37040309522635 2.725534426010985
1.5961983805153461 11.494478910303501 79.23264694551186 216.73395513547842 2.7722979358660313
1.6011225096466775 11.417941605691253 73.23448921611705 227.6169222336518 2.821211909951118
1.6061459225944918 11.341575174630979 67.65866987030965 238.9525236713365 2.8718769394450785
1.611231536203652 11.265670206527671 62.48449259616322 250.9322260947268 2.92524822355642
1.6163009186178248 11.190138832407866 57.69818909579754 263.48445790167284 2.9808648262521564
1.6213316703606266 11.114967943312562 53.27707172270807 276.6404724908923 3.0388503870026407
1.6262430771059353 11.040022908070569 49.20458615286512 290.53856095460117 3.099880151405554
1.6310343209837874 10.965726993053833 45.46614342514972 305.1614500622323 3.163778608532852
1.6356521522370506 10.8916010671066 42.024391512885295 320.4988492584086 3.2303442292463753
1.6400342182858023 10.818051160803261 38.87806682677915 336.7131189840715 3.300398151329984
1.6441384194808744 10.744748320613395 35.99152139690479 353.85084289746544 3.3740914304950373
1.6479354257463814 10.67181469073915 33.350521907256535 371.90121952869714 3.451223375852546
1.6513953477509946 10.599216963277106 30.935470522925808 390.95136395404 3.5321229757237096
1.6544553283454244 10.526931862725835 28.730675345504142 411.1244919155216 3.6173176522208044
1.6570939333882784 10.454838877256613 26.715268827390187 432.4944887219683 3.7070370689256844
1.6592885158447075 10.382971211867472 24.872562831002185 455.14438939452793 3.8015446326055997
1.660991660427476 10.31122493373546 23.189594054996025 479.14212244778156 3.90099803038316
1.662177949961189 10.239734532935254 21.646979666230543 504.58260019226515 4.005665150399993
1.6628197465678836 10.168234941190054 20.254366308551106 531.6228682421291 4.116171080532066
1.662891907638678 10.096951785038389 18.975206043303967 560.3864208549032 4.232901347405997
