M[M_sun], R[km], Lambda[1], P_c[MeV/fm^3], rho_c[fm^-3]
0.23848912294887037 16.21570186450063 2784644.0411725277 3.4469561053153734 0.1694538074003404
0.24848057068387233 15.87249329860884 2284929.791709608 3.6326877989206245 0.17193406852897378
0.2587612863716209 15.56906291304055 1884006.0839221783 3.817257197500578 0.1742210399639949
0.26933314639843203 15.299463214092954 1560155.6326252876 4.013422911228066 0.1766260681984806
0.28018068980689637 15.05958130334006 1297078.4936708438 4.217594559310398 0.17905823865334122
0.29132273013802945 14.845371212755504 1082485.7285471407 4.424549615912733 0.1813910154331063
0.30274264818210433 14.653702106799646 906536.5396266605 4.64651490230854 0.1838929860276832
0.31444828272169134 14.482127063846168 761835.1537380194 4.869070972535264 0.1862597642700435
0.3264433837478941 14.328214089291224 642166.652314069 5.102681194783408 0.18869876129144952
0.33871005218728817 14.189764894396383 542984.8398227775 5.349958318761242 0.19125472871996613
0.35127280857154847 14.065376839340917 460408.68034555926 5.595921480807321 0.19363609367257092
0.36411525597308797 13.953600128136584 391460.0695870303 5.85893728072078 0.19618255877199867
0.3772386631556409 13.852715149609988 333653.6983320692 6.129528797600394 0.1987075144182856
0.390646815766605 13.761967243266579 285085.3785830152 6.405983594032698 0.20117295698768645
0.4043403411701592 13.680372778750597 244154.5385631584 6.701355648640332 0.20380710494474452
0.41831420386551355 13.606829443357977 209561.08957540186 6.998161082210541 0.2063069698165894
0.43257990440701044 13.540710800908183 180245.2042203872 7.308150586851051 0.2088627197476705
0.44712852489089866 13.481271502330525 155332.4804390753 7.639093719850302 0.2115912246702339
0.4619580883006376 13.428037563477236 134136.7609975674 7.965313354397571 0.21409707594704205
0.47708129611473526 13.380134578870187 116021.37908540294 8.312384255835322 0.21675838687243407
0.49247125362940314 13.337560474730887 100567.40686527928 8.67722841679894 0.21952135861878114
0.5081473834436001 13.299416041636436 87300.53096708916 9.041707906732233 0.22212402250292723
0.5241024925193645 13.265456634078616 75913.73535471581 9.429960897308268 0.22489644746617798
0.5403308329856892 13.235465958867628 66125.19268307944 9.831840610779706 0.22768648227967034
0.5568481697483328 13.20891364158278 57679.422561081155 10.239377207542166 0.23037727267396235
0.5736462429734139 13.185589911101058 50385.38716357926 10.67326261772309 0.23324203304938157
0.5907106084494784 13.16513584901931 44076.43920596068 11.116862273221342 0.23606363472996905
0.6080536527754572 13.147426288724029 38614.18984715993 11.57214525873455 0.23885997511658724
0.6256652425306893 13.132030052023746 33869.16470810138 12.05663044339867 0.24183567491583915
0.6435429817912899 13.118977761817712 29749.85136062342 12.546798881027591 0.2447153079737295
0.6616910287858548 13.108035626454454 26164.35576155583 13.055360149737423 0.24763559691681736
0.6800984845912903 13.098865940343575 23036.42881438722 13.596319570306225 0.2507419243383962
0.6987596230590195 13.091416729485834 20308.89834263413 14.138262002918129 0.2536930727666155
0.7176852587540266 13.085574216752622 17924.978911869726 14.706523009226174 0.2567489472497908
0.7368574273735402 13.08102913141539 15838.694941484016 15.310785663216777 0.25999842381947935
0.7562636180997604 13.077736814566565 14010.856194826438 15.91004885864066 0.2630031111085301
0.7759276675886746 13.075577258653597 12406.623106687972 16.545103892881993 0.2661792995692327
0.7958186622874048 13.07453370088135 10998.292657615504 17.215343502232088 0.2695106317034334
0.8159477343618285 13.074236346994656 9759.1278766868 17.883876790236528 0.27264594287348093
0.8363026470912979 13.074780584032942 8668.421949220057 18.593824971343317 0.2759754830808553
0.8568762998208411 13.076096063620787 7707.4787155619315 19.335563200212267 0.27940463259110176
0.8776563918285347 13.077934201281849 6817.596214548184 20.083808634953577 0.2827089911489101
0.8986633504981564 13.080364480782455 6110.289192239584 20.87830210939889 0.2862175876461463
0.9198460400304169 13.083143863574357 5448.238465020818 21.69921000230094 0.28975833817717556
0.9412316241493804 13.086313066178517 4862.454595618578 22.537749484749263 0.29325265642203274
0.9627886287262553 13.089813109764728 4343.38503489752 23.428071066764677 0.296962758346802
0.984518068253326 13.093395624111725 3883.4349278268405 24.3365530979746 0.30060381285897714
1.0064298052582168 13.097190700787184 3474.8740847557406 25.277328400938703 0.30428023316063685
1.0284761511241933 13.10099913947722 3112.163360141364 26.276211886029806 0.3081837322342319
1.0506855714965977 13.104855294221716 2789.5594391250916 27.282748125378 0.3119434396029278
1.0730322333774538 13.108689802372455 2502.5508115121916 28.339652711746275 0.31585387817960625
1.095502320853565 13.112374675899062 2246.9700373827195 29.456241103238593 0.3199682882980378
1.1180723626874083 13.115820984703964 2019.039971481374 30.5773693996712 0.3239087682741071
1.1407539349036404 13.119172960157618 1815.8772889035351 31.767054915710993 0.32809020938900113
1.1635315187987951 13.122156953038207 1634.302862814546 33.00279200775662 0.33235632096792656
1.1863783557593361 13.124856202765837 1472.1467660942974 34.267234821157906 0.336587790966403
1.2092975052674317 13.127199937770873 1327.12943634756 35.60932841586878 0.34107912004904467
1.23224267297635 13.129044032837333 1197.372404667245 36.977498711034144 0.3454843796340683
1.2552492542705866 13.13044613111453 1081.0256992465493 38.406417072559904 0.3500130863638471
1.2782696383811087 13.131294835554087 976.7793721062801 39.91570368137948 0.35477711966866265
1.3013186890255184 13.131735638763937 883.326904023513 41.440645259427484 0.35939980581359493
1.3243477958143488 13.13148796765107 799.3704968262255 43.05906308548731 0.3643058545232214
1.347354691956473 13.13063623276249 724.0058952230996 44.7310889405925 0.3692657161162199
1.3703433488781178 13.129092034444824 656.2090953869312 46.462202180429 0.37429715782580897
1.3932561106715406 13.126764229359537 595.2167104015483 48.298900104593265 0.37963229092308964
1.4161193317751857 13.123913638323984 540.3616687131484 50.15542361031307 0.3848147711102614
1.43886984431244 13.119966148978966 490.8811403027296 52.1261980680267 0.39031618251120415
1.4615214867585822 13.115322913367484 446.3008043173054 54.16351284520685 0.39586752913403045
1.4840567527105468 13.109789572007012 406.05950180515595 56.281689850577095 0.4015280494991486
1.5064591659339457 13.103440734026332 369.74127780458133 58.515055545198386 0.4074633934241497
1.528703831828555 13.096101895236174 336.92780609729664 60.797280546973205 0.4133493273645198
1.5507863219799647 13.087938636127832 307.2514227686808 63.22128497222491 0.41960091513833736
1.572642386689804 13.078559146349617 280.41609387739356 65.70586294316875 0.4258352513697268
1.5943159665933608 13.068244971654025 256.1100667362956 68.32442409817045 0.4323653484481279
1.6157227465486779 13.056928507784924 234.11854657933372 71.04472633053487 0.4390309449164363
1.6369095053061706 13.044507398503034 214.16295528465236 73.88090665776797 0.4458765931254851
1.6578104756740952 13.030950415166776 196.06987344359368 76.85608860236037 0.45297813483248117
1.6784280230269553 13.016315961802757 179.65216085719038 79.93556661173065 0.4601612415390803
1.6987154847236186 13.000482041073445 164.7366049644955 83.18816949966093 0.4677118048848909
1.7186927770824023 12.983489934314516 151.17723345214236 86.5401794125802 0.47531300137719246
1.7383173960934277 12.965230374256725 138.84105501136085 90.09481028504155 0.48335708946715167
1.757559508488797 12.94576937869368 127.6277679954673 93.75296530237063 0.49143381523520163
1.7764248833637313 12.9250137370403 117.40706912457868 97.63828180693194 0.5000018199621639
1.794863026418552 12.903016286678827 108.0988220922101 101.64074530516565 0.5086086817555595
1.8128677881098259 12.879680487204867 99.61914487998392 105.8899784024519 0.5177285240158862
1.8304684927394421 12.855244762642743 91.87711143942458 110.28003846376383 0.5269181976196271
1.847531743434644 12.829081448533342 84.80423160725343 114.93174575921044 0.5366219719109026
1.8641196015521044 12.801681383158563 78.35028857863054 119.75914477616936 0.5465009875813946
1.8802041118199477 12.77294950285803 72.44840894568442 124.85733126157643 0.5568686679967928
1.895749123883019 12.742806977372439 67.05222293056838 130.17954179055084 0.5675283491445043
1.9107644057254083 12.71140045600694 62.119138831789655 135.77566769278616 0.5786182452733738
1.9251880410508915 12.678259176739703 57.59657789075996 141.65876438209932 0.5901485181768171
1.9390245963625965 12.643855666251904 53.45319492220358 147.81280157429222 0.6020180870163945
1.952249599160834 12.60791901861138 49.65208857129767 154.32622098170626 0.6145008666774624
1.9648614914109908 12.570600826365107 46.171143458485304 161.11504573380716 0.6272815976285873
1.9768143395207576 12.53171984617059 42.973211190831684 168.294301731454 0.6407029435082553
1.9881278040187884 12.491472465313299 40.038180021808486 175.852775135974 0.6546814149632845
1.9987321593873295 12.449568752276065 37.34185593504613 183.78655530444632 0.669141318450311
2.0086548944913116 12.4062418217339 34.86036217392403 192.18249882324855 0.6843197498245341
2.017851525237018 12.36136569133009 32.57965553435263 201.01757797750923 0.7000768182096747
2.0263460419682535 12.31510735326342 30.482431844838832 210.3297896408088 0.7164931379299365
2.0340680626847574 12.267179553690852 28.549852218623858 220.18966715355938 0.7337309587044036
2.0410510429863207 12.21789304641338 26.771472531333064 230.60107068692176 0.7517324239593243
2.0472806248501376 12.16704495516518 25.128493929112068 241.58446164121142 0.7704650892770492
2.0526857496524293 12.114628509429965 23.617963560156763 253.22750913033232 0.7901325066480127
2.05730410457941 12.060824491723295 22.22529683947678 265.5723520701657 0.8107804422139805
2.061104423078848 12.005357384997263 20.938667849815683 278.6305201132931 0.8323586230715739
2.0640950148097317 11.948610084675167 19.752150673554606 292.4715535793918 0.8549793219545982
2.066280919933649 11.890430743821986 18.65722194867228 307.17520969233425 0.8787604633141521
2.0676120328562995 11.830693530148288 17.64562611206427 322.80369945647203 0.9037660876772152
2.0680850959214157 11.76952682061783 16.712095050831802 339.4254748993387 0.9300782144487796
