M[M_sun], R[km], Lambda[1], P_c[MeV/fm^3], rho_c[fm^-3]
0.23848912294887037 16.21570186450063 2784644.0411725277 3.4469561053153734 0.1694538074003404
0.24846326303579028 15.873214482106109 2286084.94559911 3.6323765656752998 0.17192991232006116
0.2587278641113731 15.569989019463883 1885168.536464695 3.8166460023826905 0.17421354659786395
0.2692807990290387 15.300637646988843 1561507.238117101 4.012438028600055 0.1766139933537842
0.28011017389517184 15.061099792718188 1298657.7282455068 4.21630363875908 0.17904368752549696
0.29123155541700624 14.847038077964761 1084038.7169616232 4.422819944130456 0.18137151874509802
0.302631984461775 14.65553190846021 908068.8457588034 4.644287737421938 0.18386788164696657
0.31431385657469607 14.48395049284393 763312.2710369569 4.866519968943996 0.1862331306317514
0.32628682725168906 14.330031312507415 643596.8779930559 5.099559398081301 0.18866616831334868
0.3385313602392184 14.191605878191712 544301.0960736794 5.346502023559034 0.19122126557779506
0.35106817881818164 14.067303724474021 461613.1646738218 5.5918171826414955 0.19359635669844102
0.36388656176837786 13.955414054058592 392584.5299667263 5.854107499757967 0.19613579782203397
0.376980111117642 13.854560659116308 334675.9710055071 6.1243477186354855 0.1986613092057143
0.3903595435313155 13.763776724538952 286032.75670318503 6.399989966173352 0.20111950540912724
0.4040266743671117 13.682177275107055 245018.53705128568 6.694456440323776 0.20374557733842943
0.4179685421849913 13.608526549384916 210346.9671650436 6.990897392038358 0.20624708335147024
0.4322055309687167 13.542313574160072 180938.70545637215 7.299883401509294 0.20879455983241166
0.4467250595117687 13.482844585956846 155965.70066438286 7.6297123064644365 0.21151387835284108
0.4615240248860504 13.429484988623749 134702.99908755714 7.955552276350589 0.21402222880905836
0.47661450578365117 13.38160259511209 116550.54377121439 8.301398016107505 0.21667414529615817
0.4919684904597212 13.338874016975431 101034.02111207829 8.66583104223812 0.21943997259854456
0.5076079404523289 13.300651567068556 87722.62251855581 9.028966683505223 0.22203304036964217
0.5235314874177786 13.266666085619942 76293.31037233607 9.415736930837316 0.22479487740573362
0.539728053183883 13.236555348910334 66462.07195388127 9.817183408767562 0.22758970702391468
0.5562043209528403 13.209830906387403 57981.70735502302 10.223102241066304 0.23026981600919025
0.5729627553111195 13.186427111556336 50658.08220002412 10.655206738032664 0.23312281777394997
0.589980752842884 13.165884631782639 44326.6721052488 11.098350203400104 0.23594993391063648
0.6072926412353374 13.148226068354314 38838.71296463866 11.551698555153962 0.2387343918094686
0.624862495490125 13.132742288455225 34071.72529533544 12.034058180326419 0.24169703645831989
0.6427028901835576 13.119556661779963 29930.090545135405 12.52373302517411 0.24458285792698753
0.6608068020028376 13.10853064042262 26325.819054946165 13.029991676624121 0.24748992465254183
0.6791723208773125 13.099315467864619 23183.810889510936 13.56842548987087 0.2505817493905878
0.6977928286455066 13.091787419158967 20441.383602324837 14.109821505863453 0.2535401314451568
0.7166707284450984 13.085809615872327 18043.91367773208 14.67535134434632 0.2565813188286128
0.7357956567726112 13.081209688550798 15946.125428014708 15.276622623705073 0.2598147090131621
0.7551512727344898 13.077902274534075 14108.399967663829 15.875285901752061 0.2628292463305564
0.7747730821173865 13.07566929011246 12494.342462144752 16.507111792959545 0.26598928443217346
0.7946239981713853 13.074503086301517 11077.024935580952 17.176639077655494 0.2693291143177136
0.8147020519019861 13.074265184862627 9830.67603970275 17.841684540734697 0.27244806816248873
0.8350125185275152 13.07475731606511 8733.265182195875 18.547824301400674 0.2757597475043497
0.8555460594063968 13.076024044634554 7765.639807729209 19.288734944507056 0.27919783233505974
0.8762789202020864 13.077759481308215 6911.8316170898615 20.03286797874121 0.28248402994570027
0.8972337312886671 13.080190910981587 6157.746410316807 20.822875070675387 0.2859728139379
0.9183690455322925 13.082956148655645 5491.819254724873 21.642801328187698 0.28952327487574747
0.9396984216176709 13.086093877748782 4901.636530629792 22.476494793595915 0.29299739904970806
0.9612131670190153 13.08946475876904 4378.99288437002 23.36153349597927 0.2966854864324432
0.9829015865979085 13.09306686084289 3915.6620136462384 24.26886183646923 0.30033928473280375
1.00475515047969 13.09691868040274 3504.2658590603996 25.20393001846371 0.3039934023918126
1.0267595258080775 13.100669723164273 3138.7967180305786 26.196595523462484 0.307872602455671
1.0489128077135703 13.10454645170336 2813.875216526341 27.20175651641403 0.3116437789560115
1.0712222169380592 13.108374032681203 2524.5504680044855 28.25194027058925 0.3155293511428435
1.0936342917924302 13.11204762740809 2266.9968313286518 29.36679808631238 0.31965391890934386
1.1161732054450695 13.115572421703384 2027.3376800744868 30.480643417576253 0.32356880112063896
1.1388139952655334 13.118883975767202 1832.3308911935994 31.662406570627034 0.3277223971505229
1.1615369561029194 13.12191382208575 1649.3735698766925 32.89601082279082 0.3319989767086246
1.184343932255312 13.124587513820424 1485.7812688738722 34.15185449520726 0.336201669599347
1.2072135089220435 13.126976209004168 1339.5625259000535 35.484595629258166 0.3406617005827191
1.2301291509786043 13.128869646280977 1208.7112760374237 36.85016404057079 0.3450808146757135
1.253093561623694 13.130361036463183 1091.4191576258795 38.26891644225508 0.3495773021745073
1.276085011416217 13.131288831532014 986.2889183574885 39.77501714623419 0.3543506248341389
1.2990843915861887 13.131753066133502 891.9829966611211 41.28888796863721 0.35893977092725743
1.3220777316302468 13.131547196500996 807.2950238175002 42.895266946680344 0.3638093252447519
1.3450655962990143 13.130814900942807 731.2078448568064 44.56333805204118 0.36877815193032215
1.3680009420629606 13.129283689324005 662.7886135543239 46.28130110239542 0.37377137290984713
1.3908918683292757 13.127083768583722 601.2314436559312 48.10512355767459 0.3790722718696653
1.4137086320688388 13.12411072462519 545.8528305580429 49.955300022826734 0.38425612667406744
1.436448264585641 13.120387764375142 495.885625258195 51.91042222967032 0.3897138448603707
1.4590853736522358 13.115776460333588 450.8684024673268 53.94180218356986 0.39527503959600874
1.4815998526450274 13.110471617018845 410.2897926687595 56.042789727144395 0.4008896236213813
1.5039733313914316 13.10420025048504 373.61703484081136 58.26905286661802 0.40682894436055955
1.5262129091442915 13.097139744675543 340.4868854175814 60.53234501434804 0.41266604984268224
1.5482505409239933 13.08879600190212 310.49901276233635 62.9357800829922 0.41886458856388936
1.5701188520520992 13.079748482323023 283.4150829750132 65.41151168417379 0.4251012061507655
1.5917759698151606 13.069660326609283 258.87487142748034 68.00734952838715 0.43157463645050187
1.6131828623763218 13.058334357558188 236.63567844073657 70.71710056843712 0.4382401592636317
1.6343658777338261 13.046012803161888 216.47355562026584 73.52809688633255 0.4450250211867156
1.655239293980565 13.032630602075129 198.20627708422236 76.49080821752673 0.4521260917348835
1.6758791103645116 13.0182063133579 181.6060717871636 79.542290841544 0.4592438971665032
1.6961827924283588 13.002535100184524 166.53739928960766 82.78018858838685 0.466786645606647
1.7161672809842783 12.985654964021135 152.83021350174707 86.10098208794577 0.4743170540947657
1.7358018705381562 12.967677727994646 140.37352493456476 89.6317703490892 0.4823236579064739
1.7550657929938558 12.948355541642458 129.03517352560405 93.26150668894577 0.49034873917140026
1.7739519941613031 12.927884131315622 118.71018847265108 97.11500196238866 0.49885675056639006
1.7924147444347847 12.906027989838325 109.30313878689167 101.08971972206307 0.5074237612583502
1.8104560434238417 12.882948758517353 100.72280078534597 105.30644036946032 0.5164913597135321
1.8280612863584718 12.85852692038319 92.89403700886942 109.66103193571816 0.525622436770828
1.8451794951208353 12.832759149583312 85.75177227052538 114.28479032955237 0.5352980119885409
1.861826422925814 12.80562228741706 79.22120566765452 119.06237234846849 0.5450750798186756
1.8779425343246636 12.777140691004718 73.25905377245546 124.12779861896634 0.5554075109616221
1.8935606448074227 12.74729717325031 67.80127104607706 129.393570581644 0.5659541531534558
1.9086051959975392 12.71596117594823 62.81046393395336 134.95132823193615 0.5770026235267615
1.9231021919481226 12.683201653576246 58.233572893555674 140.77027746870232 0.588407173928436
1.9370124524625003 12.649110022681826 54.04583689484309 146.8794006743525 0.6002278738860113
1.9503053782149529 12.61340236323139 50.20156110407035 153.32636396692823 0.612592805544222
1.9627811901646617 12.576611179912394 46.72384171930601 160.1243275275236 0.6879950340467959
1.9737673142229 12.538273380305112 43.64941815801838 167.37084181660086 0.7837165306873397
1.9832251911450627 12.49812614746841 40.927693948915966 175.11409384196577 0.8859995930211937
1.9910736958415265 12.455688685211301 38.51163842318675 183.42888020738252 0.989250032761351
1.9973740276495628 12.410774270533722 36.349441867916006 192.35192404032495 1.0955067956357185
2.0021596130763664 12.363155751754551 34.40776016823825 201.90423027398148 1.2029728467766416
2.005518326725788 12.313021841364872 32.654431723763395 212.13419988245792 1.3148428514889978
2.00748828510806 12.260245017460681 31.063821385426237 223.1001657549479 1.4317024670321852
2.0080977184232256 12.204721028880185 29.615658468231842 234.8416730701823 1.5521409969649156
