M[M_sun], R[km], Lambda[1], P_c[MeV/fm^3], rho_c[fm^-3]
0.23848912294887037 16.21570186450063 2784644.0411725277 3.4469561053153734 0.1694538074003404
0.248501185607163 15.871918772013325 2284095.4052427984 3.6330637224865905 0.17193908861246038
0.25880143093482383 15.568030367382308 1882704.526530127 3.8179955195774213 0.17423009193035136
0.2693900164506575 15.298047880152406 1558340.0036300735 4.014612804662244 0.17664065651389438
0.28026836628670115 15.05771884583638 1295076.2041694485 4.219154359344704 0.17907582056393012
0.29143177425834904 14.843284036520993 1080464.2860416297 4.426639828813022 0.18141457610467726
0.30288089603213303 14.651669540791852 904660.4795006767 4.64920667457129 0.18392332741645642
0.31461049082589415 14.479931710725886 760054.3616030209 4.872154409885856 0.18629195675905966
0.326636098564718 14.325852577333132 640463.0612210847 5.106455070174711 0.18873816226778511
0.33893170012443474 14.187477923571219 541428.1674916584 5.354136881434183 0.19129518470784182
0.35152160486391304 14.063080172396175 458930.87941542803 5.60088413092369 0.19368414103446388
0.3643903745905381 13.951265150138669 390114.58478074986 5.86477794890494 0.19623910692497348
0.37754594194022806 13.85053878784227 332433.368679347 6.135794677626688 0.1987633939600803
0.3909900952138814 13.759782836046096 283962.8806231999 6.4132331554642645 0.20123760906677327
0.4047172273736619 13.678232314155753 243135.45565984366 6.709701737712523 0.20388153593148137
0.4187267493029251 13.604805071475687 208639.36164530026 7.006948511351472 0.20637941895143141
0.43302926520024754 13.538727886639629 179401.92589613513 7.318153435809387 0.20894518957375555
0.4476142480809058 13.479437819150036 154577.08331871545 7.65016056780968 0.2116805104826379
0.46248566519079776 13.426203346160252 133444.52328848589 7.977125873336059 0.2141876533638672
0.47764059904943407 13.378514507176286 115416.96002733543 8.325681349884992 0.21686034788824887
0.4930792696267449 13.335920496005391 100004.34600472338 8.691023530557718 0.21961986634102426
0.5087971875484038 13.298014415392396 86806.37138943262 9.057131809279497 0.22223416102984325
0.5247944150774831 13.26407626885756 75461.74695550311 9.447182289496109 0.2250194214516009
0.5410713784690202 13.234206377618762 65714.21628382092 9.849586872899174 0.22780365328228702
0.5576346095327149 13.207777086074435 57313.577395379616 10.25908509386409 0.23050739544484505
0.5744717613484119 13.18447076233894 50054.60299474399 10.695130385568028 0.23338641659709045
0.5915801529924668 13.164219710912674 43783.0151809152 11.139282747609357 0.2362013409039603
0.6089818903685452 13.146517002294889 38345.75130242931 11.596912560979675 0.23901209546753238
0.6266382336124839 13.13128897853648 33630.51624915852 12.083976697449334 0.2420036351450983
0.6445640721395005 13.118380411739235 29535.094463166508 12.574743153334 0.24487577113610534
0.6627633203588592 13.107460725064001 25967.580772078592 13.086098789563255 0.2478121060525537
0.6812275111680633 13.098446895656664 22861.811665540044 13.630123814614912 0.25093603695954514
0.6999300180880152 13.091010096136282 20001.25842124964 14.172728240438765 0.2538784180473953
0.7189107506622816 13.085189769536575 17782.112131116777 14.744305043957581 0.2569521235271994
0.7381261184543961 13.080762392172952 15710.209011239234 15.350717676080974 0.2602056508067162
0.75760937304332 13.077740606585028 13894.764043643183 15.952190065535214 0.26321387774739075
0.7773087818070125 13.075448867410858 12301.78789453903 16.591167062731834 0.26640968166314877
0.7972630311542189 13.074425417855181 10830.540130939402 17.262269636898917 0.26973070755728845
0.8174412891474204 13.074263490691417 9673.893852913823 17.935039903267644 0.2728858894590274
0.837858170738458 13.074877915213447 8590.876830507153 18.64961548596078 0.2762371314187937
0.8584847484233536 13.076226071150309 7637.442419145076 19.39235633887576 0.2796554391915221
0.879331049908528 13.078100681628728 6795.756169911053 20.145599497909814 0.28298186841260425
0.9003834356377081 13.08056052767545 6053.003445975082 20.945546349425513 0.28651454780076735
0.9216312137459345 13.08342983404022 5396.330619394663 21.76764361888545 0.29004351119526006
0.9430694974819057 13.086606618965797 4815.3559276811275 22.61207477577937 0.2935623809203265
0.9646923641998383 13.090100473442945 4300.772452837369 23.50882055149404 0.29729925341192265
0.9864734982875126 13.093747619947548 3844.79211913246 24.41870052456952 0.3009248336871293
1.0084524082216038 13.09759180102158 3439.835203535826 25.36641726690194 0.30462838017772703
1.0305602495340882 13.101381520226244 3080.2120210960206 26.37286520976902 0.3085614401103828
1.0528068914383097 13.105220289150028 2760.8789655604724 27.381068084479196 0.3123072133682096
1.0752124563518315 13.109005809055466 2476.2548094770445 28.446150472809194 0.31624790897345617
1.0977323273343846 13.112672310283774 2223.1548017112327 29.56483721311322 0.32034997592272946
1.1203752124895052 13.116276596533565 1997.3858828371863 30.694829075261676 0.32432160907130453
1.143106961889859 13.11947619882756 1796.119906103487 31.8941585026072 0.3285369460743964
1.1659274377562914 13.122451172447777 1616.3546394853151 33.1324826525831 0.33279033195430724
1.1888322399350182 13.125172393010697 1455.8157732597504 34.407395367184755 0.33705683957753574
1.2117982262625182 13.127424504786077 1312.2408532690954 35.760878707389786 0.3415862845526781
1.2348032167985294 13.129205375289555 1183.629149000212 37.132206092728545 0.34597469761128136
1.2578568571351743 13.130590104026092 1068.6764265363634 38.57350751183265 0.35054265027539777
1.2809297801267083 13.13148800317193 965.5547368324311 40.08665247093459 0.3552953313905706
1.3040085442618299 13.131712088143143 873.0427926178131 41.62509134345818 0.3599589330414243
1.3270997013094523 13.131460266573304 789.9871911107435 43.258180245295065 0.36490945544086434
1.3501373874191025 13.13044687151175 715.4411471125478 44.93500935131067 0.3698584062050675
1.3731503239321776 13.128777215882659 648.3848292221722 46.68215161034127 0.374936435898551
1.3961061203710128 13.126442234734698 588.0737205186454 48.52469939341671 0.38026260900793996
1.4189998934812005 13.123305757500445 533.7536661349194 50.39878967580277 0.3854941268031705
1.4417929108342062 13.11939450663406 484.86104935078146 52.38865215826985 0.39104882237196364
1.4644761124003884 13.114645106403582 440.7852790033789 54.433182220364706 0.3965881813675594
1.4870346032974902 13.109015754554857 401.0288572938079 56.57232702680324 0.4023047351352959
1.509466251121186 13.102502009716291 365.12981964303435 58.81433147964877 0.4082352359807546
1.53173005133756 13.095016885375559 332.6929345622496 61.11965676625186 0.4141807463215222
1.5538194904347786 13.086589422446318 303.36636398992556 63.56876467384078 0.4204970768085233
1.5757033569505583 13.07715274296899 276.8514814739903 66.06410875611165 0.42672863510146797
1.5973783827933268 13.066727108286766 252.85385736833885 68.7104096192266 0.43332790871468474
1.61880811217257 13.055214861247915 231.11684242519698 71.44355863995813 0.4399936008020646
1.6400106400406615 13.042769675376986 211.41075355284178 74.31049126496865 0.4469134753958685
1.6608844399521183 13.02886826272345 193.53485397940022 77.30086355075862 0.45401560478844294
1.6814847914160873 13.01399771521923 177.30870433068023 80.41453690116037 0.46127847461812665
1.7017851912360726 12.99793621353526 162.58454497256858 83.685059742148 0.4688385797054827
1.7217457457482206 12.98072274755999 149.1979007094853 87.07521109319629 0.47652626775754975
1.7413364250336023 12.962300225518064 137.03166675952727 90.6509824642221 0.4845850445838104
1.7605689616350209 12.942543563739424 125.94680375172817 94.35181925858352 0.4927560061091616
1.7794012139247033 12.921635456597285 115.85820446060323 98.26198980327342 0.5013430360722709
1.7978014613327713 12.89930089033227 106.67662412469531 102.31236872811812 0.5100529347715108
1.8157846794921848 12.875750653488234 98.29743542379939 106.59072325988477 0.5191953869811695
1.8333059079849447 12.850815232937725 90.65000931653691 111.03474038568092 0.5284980084271498
1.8503285326719494 12.824536348656235 83.68580311754242 115.72056789931001 0.5382362545206264
1.8668847793470906 12.796936327133094 77.31330497792214 120.60891950071 0.5482400064175491
1.8829125778362914 12.767969720784553 71.49398029319035 125.74711886141623 0.5586507944368958
1.8984043078216415 12.73746768492412 66.16473618955085 131.13841041682943 0.5694488357098194
1.9133309352717671 12.705588331259106 61.29448930169375 136.78142141359334 0.5805894205721966
1.9276743412467283 12.67224011157292 56.834434105252654 142.74306669907202 0.5922736407584741
1.9414418409594134 12.63750548782718 52.74752131213429 148.95201476459323 0.6042030371398774
1.9545991593094139 12.601311425518967 48.99815913422187 155.52541116991804 0.6167584779304294
1.96709922240116 12.56354229549569 45.56278313094203 162.40825762495484 0.6297162153786535
1.9789648418442272 12.524378855334493 42.411291684437366 169.6578324725214 0.6432246267268094
1.9901541887363638 12.48369234851871 39.51630937342201 177.3241883864492 0.6574026136788901
2.0006637018145144 12.441490461334833 36.85603082647818 185.34048632209795 0.6719628654074542
2.0104487711679244 12.397762744727867 34.411029378524816 193.8262901841572 0.6872513967778328
2.019551599395032 12.352552513437328 32.16156476671701 202.79266997532855 0.7032426354605668
2.027910986491031 12.30582558613062 30.091607159308296 212.2105084172724 0.7197948388124028
2.0355144027524465 12.257595436936358 28.18792503895155 222.1854080418789 0.73718162317474
2.042343477114254 12.207855775176721 26.433367640033495 232.7492920479789 0.7554323033559175
2.0484174868414255 12.156555253363779 24.815496904605006 243.87723745602264 0.7743661811152416
2.053700874858047 12.103870767898535 23.325368082023658 255.66785634241748 0.7942213067633539
2.058152898519809 12.049560919077793 21.95222856002012 268.17338122163983 0.8150785548788669
2.0617825847129767 11.99375405995705 20.685389588746354 281.43881964510035 0.8369883932862724
2.064623108481176 11.936585151291181 19.516908887698367 295.3654054685303 0.859540224346647
2.066615257950088 11.877861250038025 18.43715573352194 310.308677634487 0.8837384128796105
