M[M_sun], R[km], Lambda[1], P_c[MeV/fm^3], rho_c[fm^-3]
0.23848912294887037 16.21570186450063 2784644.0411725277 3.4469561053153734 0.1694538074003404
0.24848430241007577 15.872449000280087 2284938.3676093845 3.632765881197304 0.17193511123973534
0.2587704150505925 15.568779496800746 1883759.93814882 3.8174105447728874 0.1742229200301521
0.2693422756273399 15.299228412237174 1559748.7532427104 4.01367003430126 0.1766290979734455
0.28019678630536543 15.059343301000787 1296701.8973426959 4.217918491638159 0.1790618899862674
0.29134661472593276 14.844856979147302 1081972.113701829 4.424983677148206 0.18139590812810844
0.3027700913880162 14.653430463011853 906252.4262352217 4.647073852569396 0.18389928645933717
0.314480418147429 14.481771551961975 761523.7339681452 4.869711228235429 0.18626644883089283
0.32648176194895817 14.32775321834949 631208.5554081281 5.103464769391104 0.18870694216690878
0.3387625854936107 14.189428574507573 542655.5759711026 5.350825890394818 0.19126312837081175
0.35132416138027106 14.064890295645801 460094.0329464639 5.596951787796696 0.1936460688937972
0.3641733734617272 13.952980364219973 391157.96892790217 5.860149801967842 0.19619429815434367
0.3773002433928114 13.852281880361176 333410.31029864756 6.130829557956197 0.19871911468710052
0.3907186819431736 13.761494168777897 284847.46269598516 6.407488470641972 0.20118637757905286
0.40441902612605807 13.679881571452537 240795.5239225086 6.703088037469616 0.20382255450547412
0.4183991267212059 13.606430381209279 206777.59700458377 6.999985041699101 0.20632200769454137
0.43267419458413586 13.540298639815665 180067.6914430245 7.310226696976688 0.2088798365152742
0.44722934114273366 13.480929217001483 155179.55655389445 7.641449836527485 0.21161064998930176
0.46206711378913384 13.427629474912354 133990.52992559993 7.96776487225728 0.2141158739829385
0.4771917926380996 13.37980934821591 115905.08870911274 8.315143702389085 0.2167795460800517
0.49259694623430467 13.337218256218383 100447.07413269184 8.680091177065444 0.219541800928871
0.5082802159934909 13.299168283827912 87204.38145860631 9.044908472664755 0.22214687700528327
0.5242456461956753 13.265169123817826 75823.17073404194 9.433534224895423 0.22492196377344403
0.5404896310230995 13.235222296786985 66035.82845635599 9.83552281501224 0.22771079430430183
0.5570093691235566 13.208672407673484 57600.31342614737 10.243466170824957 0.23040427035518007
0.5738167458583581 13.185320275948959 50315.369125213874 10.677799411586106 0.23327198756498693
0.5908941865757318 13.164855090577024 44014.430144465914 11.121513715599507 0.23609220381028165
0.6082347590634227 13.147188169906121 38560.78667380972 11.577283246878254 0.23889153255275195
0.6258683550889587 13.13199639783118 33822.85210703294 12.062303054648511 0.24187051599806766
0.6437557964053966 13.118894751996425 29704.584650712113 12.552595540219041 0.24474859387414144
0.661910333948396 13.107918574283438 26123.864069740615 13.061736035102951 0.24767220888214178
0.680333597822385 13.098748195399086 23000.590518088564 13.603330848571646 0.25078218489234555
0.6990092022003288 13.091441142284529 20276.52776575355 14.1454106017463 0.2537315149973985
0.7179408059553247 13.085479529625756 17895.126189982162 14.714358795859535 0.2567910848945749
0.7371168680572374 13.080943869177517 15811.178688455868 15.319374196196643 0.2600446094251953
0.7565379873832789 13.077714987260949 13986.973040433653 15.918788146690586 0.26304682011698177
0.7762105978213302 13.075603839084291 12385.182262186692 16.554655851061547 0.26622707309705496
0.7961201935478044 13.074467144017518 10978.105135266424 17.22507447212212 0.2695562683518084
0.8162598529511854 13.074259447482262 9741.224718186524 17.894485629695996 0.2726956965857572
0.836627745185869 13.074820575588685 8651.974011131735 18.60539248612892 0.2760297328227421
0.857214569317457 13.076121869812733 7692.631379602908 19.34733869527394 0.279456634856766
0.8780131081875773 13.077988072276476 6845.715248047886 20.09661943885964 0.28276556548609144
0.8990197492158492 13.08039208518116 6097.991210622391 20.892242509098857 0.2862791504394613
0.9202145564391605 13.083167105647904 5437.34945786782 21.713397110612178 0.289817457959191
0.9416117110725348 13.086379713516456 4852.505871952764 22.55315687322286 0.2933168612922575
0.9631870698958733 13.089853157146194 4334.566836592255 23.44480890528456 0.2970325073994629
0.9849215607246768 13.093433957707909 3875.2783067631503 24.35358089831845 0.3006703551573129
1.0068403857887331 13.097245611781137 3467.6376968878094 25.295793651324203 0.30435239281574106
1.028913628096844 13.101114689616614 3105.514140075049 26.29624345221479 0.3082620128357363
1.051124473371921 13.104928356678592 2783.551658930163 27.303125365101863 0.31201883330007907
1.0734822720854353 13.10874189624186 2496.9877124868335 28.361723123809238 0.3159355364407656
1.0959578945404902 13.112480373197455 2242.055402008221 29.478746630904315 0.3200473894869025
1.118545772596558 13.115938019735134 2014.5961090641313 30.601709924432313 0.3239943190096771
1.1412439252130264 13.119221163625948 1811.6774461007365 31.79339179399325 0.32818277679795305
1.164027695454924 13.122186422027518 1630.5096492189225 33.02966525457823 0.3324462525460747
1.1868864530722258 13.124896172973378 1468.7236651426715 34.296275213820664 0.33668497491888705
1.209816130510745 13.127197703189234 1323.9259695918336 35.64072611401008 0.34118419274691447
1.2327728481843276 13.129103159741465 1194.560334943132 37.009550862208705 0.34558596331906843
1.2557931934075688 13.130519284934286 1078.5170963873472 38.44103187808958 0.3501227919334395
1.27883084727661 13.131401628441349 974.4823092602493 39.95111814823798 0.35488447457827593
1.3018907777394388 13.13185208934131 881.2109624667573 41.47885270804741 0.35951562732827524
1.3249159829652934 13.131429991901069 797.4042296732355 43.100306090253106 0.3644308779794972
1.3479396783203939 13.130666113183523 722.2334187478989 44.77332722601905 0.3693884807431352
1.370909318021332 13.129020483730832 654.6218120461959 46.50775666578197 0.37442956091324964
1.3938498995174382 13.126724670110738 593.7268349537447 48.34566648093853 0.3797628391321958
1.4167030631141577 13.123712442438263 536.9160634037427 50.2058239589593 0.38495546354290816
1.4394801050053156 13.119894421212154 489.6237752935186 52.180546659009266 0.3904678964513186
1.4621359036733281 13.115149311799573 445.13517880360587 54.21935587184163 0.3960167615110766
1.484684462875601 13.109649222209981 405.009256231436 56.341869477937735 0.40168887081170956
1.5070830555961658 13.103235102397742 368.77579861292764 58.577024097296345 0.4076232123744046
1.5293355267351332 13.095879826137569 336.04225321093617 60.86402621506476 0.41352146665529405
1.5514170986022338 13.087596495675376 306.4371034819818 63.293221433557264 0.4197864416569659
1.5732899242898604 13.078285773718168 279.6641276484857 65.78002829073023 0.42602020291019577
1.594943783157326 13.067920533442514 255.43235025903545 68.40432467480305 0.4325646023479402
1.6163794867853598 13.056573244686987 233.4812224255135 71.12728602158302 0.4392302180711566
1.6375498841963603 13.044195934908258 213.60218277399375 73.96982365635219 0.4460912108231919
1.658476093277785 13.030675250444801 195.55046950479857 76.94814921236262 0.45319287290922944
1.6790632646948218 13.015851217719336 179.1618436590402 80.03469539225131 0.4603924666382719
1.699355163563613 12.999984205664747 164.28762509009016 83.29100608195984 0.4679450026047538
1.7193192880411865 12.982848233065894 150.76114555868045 86.650898768478 0.4755640744949767
1.7389437342478204 12.964632150642247 138.46817402662646 90.20990295038138 0.483611198954437
1.7581856582028454 12.945089219699073 127.27247472780083 93.87687786633231 0.49170739790012247
1.7770478797751463 12.924364800206158 117.08714994879904 97.76733489891775 0.5002793345796543
1.7954685905307466 12.902232834216248 107.80431069498266 101.77969833985406 0.5089074851215025
1.8134943653629765 12.878853651407791 99.32824836889579 106.0349534233497 0.5180319989351675
1.831039886867191 12.854190483798915 91.61683039580421 110.43615999499968 0.5272450054296653
1.8481086747336823 12.828154400392421 84.57563961147356 115.09492156943531 0.5369559025390925
1.864715538388443 12.800876945727376 78.13402500209189 119.93491021441564 0.5468606822146052
1.8807670178359819 12.771924933078164 72.2480814759837 125.04136756675022 0.557237268284601
1.896310603862444 12.741699562947623 66.86764712039276 130.37784423164132 0.5679255226086748
1.9112971488194614 12.710107099994477 61.94126751859665 135.983659488373 0.579025888100178
1.9257218925437298 12.677124991017372 57.43673431364326 141.88297462711353 0.5905879475197783
1.939522828281247 12.642508512987929 53.30351256995808 148.04835736367068 0.602469870453833
1.9527429365401252 12.606564870417632 49.51822240418901 154.57416792070433 0.6149676548526187
1.9653268137235045 12.569105313399533 46.04267952564735 161.38240134776373 0.6277849248310157
1.977278447183036 12.530269388825358 42.85651051276569 168.57618181864444 0.6412242462292752
1.9885438228999002 12.489803921863514 39.92855821315787 176.15692072067748 0.6552438949968066
1.9991365456335446 12.447905369920694 37.23962510805316 184.1077410954613 0.6697245108707092
2.009039834421419 12.40454231471063 34.766716496061 192.5222392577218 0.6849256655345944
2.0182187119293893 12.359612399974948 32.492876069629716 201.38440959711383 0.7007310501429738
2.026681058363185 12.31320819194269 30.400381439919187 210.71842605500734 0.7171754096272132
2.0343768243779614 12.2652312569949 28.47427980115084 220.60204533918935 0.7344439664710047
2.0413167636531764 12.215801697403212 26.7008124133642 231.0467573941847 0.7525030226350614
2.047486578296657 12.164808101209319 25.06477787046842 242.05812051437434 0.7712710061714295
2.0528922590329133 12.112413949584443 23.557599082180495 253.73161695930852 0.7909771389769923
2.0574797081144234 12.058428273231437 22.16743205334404 266.1096101475671 0.8116682430083247
2.0612710916977197 12.003059142075353 20.885771821079054 279.2120031263803 0.8333195040757526
2.064237275486632 11.946173864757164 19.70275993065043 293.0922719152036 0.8559913157807315
2.0663606506028276 11.887793480375153 18.610785507069533 307.83869066558077 0.8798265829900179
2.06763099832524 11.827948810339015 17.60305013827448 323.51380138128195 0.9048916864791784
2.068114489652728 11.76686708182919 16.67199164153478 340.1781660750177 0.9312426839126611
