M[M_sun], R[km], Lambda[1], P_c[MeV/fm^3], rho_c[fm^-3]
0.23848912294887037 16.21570186450063 2784644.0411725277 3.4469561053153734 0.1694538074003404
0.24848216240216126 15.872485225076195 2285058.5710555566 3.632726329856811 0.17193458307111475
0.2587653839726942 15.568962008919911 1883811.7297454248 3.817332868615402 0.17422196770597503
0.2693373151016976 15.299374457078223 1559815.2403593503 4.0135448562446125 0.17662756326712575
0.28019023816609506 15.059391159107935 1296905.8833995871 4.217754405546852 0.17906004042419357
0.2913338821597897 14.845101439951618 1061419.5589068541 4.424763804250823 0.18139342974271436
0.30275742227712754 14.653424653039423 906329.5499376189 4.646790715211438 0.18389609496324633
0.31446422078028596 14.48194414078583 761673.3432778226 4.869386903850688 0.18626306273673676
0.32646313081533224 14.327956774721123 642004.2953445653 5.103067843156289 0.18870279807640147
0.3387401669240292 14.189607968876622 542831.9997863239 5.3503864128868415 0.1912588734396007
0.35129809968935116 14.065146239471739 460261.74102283624 5.596429871035176 0.19364101580261997
0.36414378268197 13.953226846582638 391278.0869565127 5.859535577179178 0.1961883513557557
0.3772690119110565 13.852505143268443 333544.7406792982 6.130170631758138 0.19871323833870738
0.3906792841135258 13.761814031271994 284980.7601273677 6.406726139355023 0.20117957905708442
0.40437928384794425 13.680141609702872 244051.57896026163 6.702210447417539 0.20381472809804405
0.41835645602956206 13.606620226660079 209469.0850022247 6.999061061489161 0.2063143898161212
0.4326267654814017 13.540482203122153 180155.58383621136 7.309174974109403 0.2088711654454304
0.4471760040495025 13.481136492374016 155263.25220318403 7.640256257254244 0.21160080936534623
0.46201489167696186 13.427764203756304 132559.26467522842 7.966522961457363 0.21410635111378845
0.4771394583248432 13.37993026170511 115960.2926094497 8.313745787090594 0.216768826981328
0.4925335879947481 13.337371885719177 100506.29930947602 8.678640921405318 0.21953144498804678
0.5082162027697389 13.299161517043705 87244.74984704681 9.043287073739542 0.22213529896991777
0.5241718169531216 13.265329365625078 75870.3281100848 9.431723970774545 0.22490903716673044
0.5404070772973769 13.235338226012958 66080.84041692605 9.833657401794554 0.22769847777614852
0.5569282206301385 13.208772120322104 57642.46240144658 10.241394675379217 0.23039059315393853
0.5737293055408589 13.185469496090423 50352.94486826475 10.67550102271063 0.23325681228316536
0.590800061532763 13.165036732666982 44048.63781549418 11.119157243323642 0.2360777303974711
0.6081383246931551 13.147266256678252 38587.19725758385 11.574680263086117 0.23887554507038322
0.625765679696355 13.131989739394873 33845.95530298988 12.059429197590065 0.24185286481668464
0.6436471588996546 13.118990694258912 29728.71661700144 12.549658837833736 0.24473173057755832
0.6617970689691766 13.10798674440337 26144.10053604322 13.058505857289767 0.24765366037455294
0.680212970510254 13.098802762140112 23017.670085611215 13.599778733763749 0.25076178774015107
0.6988819475730891 13.09138887165998 20293.187814994035 14.141788917562932 0.2537120390661641
0.7178113860150925 13.085575336547933 17910.826906337963 14.710388927543116 0.2567697365719643
0.7369823907567302 13.081004595668576 15826.24650535389 15.31502292214531 0.2600212100590675
0.7564002008053424 13.077728442876468 13998.722775508128 15.914360497613622 0.2630246755040773
0.7760658572614527 13.075610599753036 12395.992126096407 16.549816429114344 0.26620286902761786
0.7959659636192624 13.074548589611602 10988.695234333201 17.220144359390535 0.26953314693393093
0.8161006856008634 13.074266975483663 9750.650522961969 17.88911070320588 0.2726704890645088
0.8364593156950301 13.074783931154274 8660.354789992236 18.599531796168694 0.27600224715071026
0.8570352747801726 13.076123715570825 7700.620549372322 19.341372638359534 0.2794302878985272
0.8778306293177645 13.07797104088837 6852.5334321484725 20.090128782330314 0.2827369018211325
0.8988313480759925 13.080319935934085 6104.389916531733 20.88517947015124 0.28624795905210754
0.9200270589316538 13.08316264514943 5442.980887176183 21.706209083452922 0.28978750438518186
0.9414174244445475 13.086316860359915 4857.456222808664 22.545350505824064 0.293284331002869
0.9629848113288437 13.089800364800348 4339.064395677518 23.436328364186572 0.2969971677283976
0.9847159345693661 13.093448314855223 3879.5008600036695 24.344953455365335 0.3006366402985955
1.0066304045509744 13.097210156218082 3471.2375983040906 25.28643780703963 0.3043158314649503
1.028693174681451 13.101047726564122 3108.8504597873048 26.28609389641518 0.30822234976967056
1.050900594195657 13.104890331974552 2786.7445149737114 27.292800681145447 0.3119806330283082
1.073265280945942 13.108821017733149 2499.8614798380822 28.350540435908535 0.3158941616423951
1.0957269208721114 13.112413732819675 2244.48020753506 29.46734349446508 0.3200073103711169
1.118309620356494 13.115870551858654 2016.8019526576695 30.589376904883355 0.3239509715919625
1.1409938050039845 13.11917376658129 1813.819229114243 31.78004711128885 0.32813587364230973
1.1637724281854183 13.122160931484318 1632.4263835990619 33.016048818540504 0.3324006850123206
1.1866303824460414 13.124871579993012 1470.3505897563614 34.28156055205904 0.3366357321622182
1.2095549111757133 13.127229748383575 1325.5180104960702 35.62481684546321 0.34113095222718487
1.232499886956169 13.129048585886009 1195.9534349134326 36.993310005861986 0.3455344907665314
1.2555206922646915 13.130495507176718 1079.804482725362 38.42349233542378 0.35006720342184455
1.2785495721307454 13.131333688889027 975.6393465767969 39.933173435472206 0.35483007723199644
1.3015936938827497 13.131760291969336 882.3025244968483 41.45949256791445 0.3594569392756673
1.3246286651883912 13.131462093593944 798.445951309898 43.079407570312924 0.3643675265042881
1.3476476951526202 13.13063427172419 723.1066844842916 44.75192440603083 0.36932627392805606
1.3706260972249427 13.129065001976791 655.40289456247 46.484673218189826 0.3743624693918266
1.3935481454890835 13.126789977151361 594.5089728264035 48.32196896192007 0.3796966875739634
1.4164017750746472 13.123766091955808 539.6905642003502 50.18028474327814 0.3848841708935796
1.4391721807285385 13.119913897265846 490.2569473989094 52.15300644690065 0.3903910180260448
1.4618228819080838 13.115209503037118 445.69929890546223 54.191058400226595 0.39594114062861396
1.4843624564783076 13.109702764154916 405.54817460472447 56.31137415701022 0.4016073764962141
1.506772936093301 13.103363865370977 369.2758684695583 58.54562227119022 0.40754222602383705
1.5290176676306557 13.096003258369759 336.48971138238943 60.830203245846945 0.41343423609637525
1.5510883916408897 13.087716795891012 306.8477689916929 63.25676762285752 0.419692426070647
1.5729580112992638 13.078385421543006 280.05319552044097 65.74244499487148 0.42592647870214545
1.5946265112244806 13.068091931533514 255.77681643958866 68.36383455803421 0.4324636291884204
1.6160298777997326 13.056702883929821 233.81741690002045 71.08544836744167 0.43912923511905255
1.6372280889603053 13.044308045119724 213.87959357152334 73.92476383861327 0.4459824505805364
1.658133634641718 13.030740932586564 195.8024345197726 76.90149629434556 0.4530840515806565
1.6787400786071611 13.016088138155158 179.40449655454879 79.98445995489287 0.4602752888224536
1.6990280307382508 13.000239619090234 164.51628001926886 83.23889158179163 0.467826824984112
1.7190085943042506 12.983153284456833 150.96629554785628 86.59478879657854 0.4754368365294977
1.7386265545713133 12.964900643191141 138.65595911287406 90.15157658986485 0.48348242201176816
1.7578678633194378 12.94537833433227 127.44905862612005 93.81408096107754 0.49156875058189176
1.7767326571207276 12.924770076019662 117.25412225935817 97.70193271433118 0.5001386943054904
1.7951705344199091 12.902771776021424 107.9641654959177 101.70927807333827 0.5087560540087332
1.81317041654165 12.879262874952687 99.48005077778866 105.96148106840148 0.5178781999093129
1.8307313037418769 12.854603447991332 91.74690090118784 110.35703758627821 0.5270793791965985
1.8478092176955523 12.828586878850114 84.6890328263698 115.01222378989661 0.5367866659259376
1.8644038642251772 12.801189252719878 78.24358284674409 119.84583074715387 0.5466783858165021
1.880466712245664 12.772422397979627 72.35166408385516 124.94809600529446 0.557050457729127
1.8960178502973435 12.742243848582014 66.96450918524596 130.27734100298005 0.5677242279838168
1.9110238005534936 12.710689748722073 62.02899190882847 135.87824507129065 0.5788192865328223
1.9254568044518459 12.677717457681803 57.515679211663404 141.76933870596457 0.5903652326381986
1.939274097604202 12.643198600162531 53.377950767396946 147.90996793524573 0.6021719100973948
1.9525036530648727 12.607271268209013 49.586210330662475 154.41173891852773 0.6145966332633208
1.963886088628423 12.57137978666661 46.353813186628805 161.72956935104614 0.9828754490948677
1.9669870076895948 12.537804482740324 44.65143460875638 170.56199291783813 1.6172779730357207
