M[M_sun], R[km], Lambda[1], P_c[MeV/fm^3], rho_c[fm^-3]
0.23848912294887037 16.21570186450063 2784644.0411725277 3.4469561053153734 0.1694538074003404
0.25721721614304943 15.611766995868505 1938230.908605107 3.789317922102323 0.17387849923703982
0.2769318523525286 15.128087798023467 1369627.408180517 4.158867363761647 0.17839627155591442
0.29762573399505265 14.736380257610344 980532.7033472994 4.545743149654982 0.18275709687133293
0.3192916313292064 14.417499715545024 710437.093702469 4.962063790048151 0.18723065159998734
0.3419243414754913 14.156521937938354 520259.6145383226 5.411831025509442 0.19185376759289036
0.36553602512634387 13.94192782861271 384628.00293120195 5.888821643506825 0.1964718930510737
0.3901165147727714 13.765348938332224 286835.64152138704 6.3948654667917735 0.20107380477710615
0.41566987325403404 13.620033237063128 212934.48179689035 6.9422695471673395 0.20584616458061747
0.44221162213572573 13.500578491535245 163261.4934816068 7.525514429486523 0.21065480501997474
0.46971289787562814 13.402718530372491 124449.42988971215 8.14153194372868 0.21544830549438043
0.4981977823596691 13.322970567561317 95453.50879035376 8.808465256443274 0.22045849058984018
0.5276335937336687 13.258618145301147 73645.69954983472 9.518310372761126 0.2255273306716678
0.5580273093652391 13.207182029603997 57130.56476539075 10.26907155434973 0.2305733317856822
0.5893652549722436 13.16654397838544 44537.783571401706 11.08253991883097 0.2358528274105665
0.6216594625169781 13.135371121929746 34886.153625441075 11.944284771351334 0.2411456497007444
0.6548594137234245 13.111936459559635 27450.31312945878 12.861090743834335 0.2465200522756018
0.6889624445419003 13.095167778200073 21691.32761745242 13.854404728755778 0.2521666048384146
0.7239480609454267 13.083904671849607 17209.59335597298 14.900835146317714 0.2577938781792718
0.7597845995152399 13.077267663354721 13706.104115166034 16.02149503563992 0.26356050226723077
0.7964526665795123 13.07448750418817 10956.522952053858 17.235807653902267 0.26960660520911867
0.8339049424028969 13.074681620361035 8789.134877291526 18.508583322979142 0.2755757137693417
0.8721279300625171 13.077395114289137 7074.150648846175 19.880902484771546 0.2818129286503561
0.9110560420057352 13.081928975897227 5712.325829726099 21.366527494913367 0.28837200088520326
0.9506481474327471 13.087821911755425 4627.423466833109 22.92094397218512 0.29484948461772637
0.9908396950457121 13.094476949750616 3760.1719439305625 24.603075377671544 0.30164534521727276
1.0315998686454235 13.101603044803849 3064.5189550829195 26.421943651123243 0.308753231899134
1.0728663364530038 13.108632882751516 2504.4424623610334 28.331531859977378 0.3158238318609109
1.1145512072472075 13.115366236632745 2052.902684924341 30.398218620971033 0.32327909898611257
1.156593696037018 13.121280126629365 1687.3954592109535 32.63257620125631 0.3311173902218584
1.1989118080344323 13.126200129601703 1390.7793135894271 34.99172958729999 0.33901231964772544
1.2414171765475739 13.129642022295593 1149.4198553843223 37.53724372052563 0.34725839350336835
1.2840506301645103 13.131575613989122 952.4667629343678 40.2891712248073 0.355909243851935
1.3267070651907473 13.131461279996914 791.3176061303849 43.229659541199794 0.36482299818534525
1.369268484222763 13.129120569245865 659.2123168836251 46.37951611393107 0.3740568326326293
1.4116622665685208 13.124459590425229 550.5997910914026 49.78496794688171 0.38378064515923327
1.4537595033673647 13.11698882557712 461.08189086264133 53.46506421862352 0.394001026634598
1.4954743875268306 13.106729327574502 387.13387823976484 57.40825687787176 0.4045386362369446
1.536665196117379 13.093197820900102 325.8894952836921 61.65272534223553 0.41555554785138316
1.5772456234929988 13.076431383132975 275.06304820243287 66.24639894590248 0.4271832254529289
1.6170777615613299 13.056180274521202 232.79759520062427 71.21843681744312 0.43945022745364953
1.6560325087905925 13.032181681833995 197.557017045666 76.60165572621838 0.4523846516208999
1.6939975675077845 13.00427415289559 168.10151679815 82.42592602668446 0.46597018622417485
1.730853917906854 12.972361757287599 143.42598848618684 88.71613033093323 0.48024730375626895
1.7664627609501204 12.936148978947502 122.7133474944632 95.54917828980439 0.49539961757320766
1.80069527800381 12.89565987374985 105.29203903660952 102.97862961535122 0.5114856562385002
1.8334258517350568 12.850702530632542 90.60812603432673 111.06530644441254 0.5285619920854991
1.8645226353142994 12.801043543873403 78.20292391929763 119.87902626337171 0.5467463186771905
1.8938591513162721 12.746656696380317 67.69912361555866 129.49906540223168 0.5661654452742911
1.921312505899582 12.68742130417514 58.786215298405125 140.01629531586622 0.586929445370563
1.9467530227735361 12.62320985436177 51.21198728697953 151.5349220483407 0.6091569155154238
1.9700961435852642 12.554053599718817 44.76002376736008 164.1750665153077 0.6330424330811604
1.991171623422066 12.479757066227295 39.255296286599894 178.0620250007746 0.6587470146646712
2.009926507737237 12.40034595607641 34.545728640657266 193.32835125411177 0.6863633393382381
2.026405859899029 12.315254259330258 30.479339977144942 204.37690768135323 0.8000597373964593
2.0430865723226996 12.22149348228764 26.6681634742417 206.81591044754123 1.055057899588672
2.06126761620839 12.121194819918973 23.073951892607766 209.38529988231664 1.3236880105941782
2.0814492244753615 12.016622228116265 19.742957000750543 212.0933830458738 1.6068185749969568
2.1036666689149994 11.909315912448413 16.722752726710585 214.94911359782384 1.905385699462155
2.1280163390865985 11.80060168691455 14.029616455920532 217.96215242663092 2.220399431554151
2.1544184476066888 11.691655277958949 11.671661930053281 221.14293492014252 2.5529507928821698
2.18265048452301 11.582852191568556 9.63596555092261 224.5027457054743 2.9042195931682038
2.2125975409618506 11.475224795190632 7.902683230592876 228.05380180216622 3.2754831239239106
2.243925304555331 11.368920228474884 6.444574111741081 231.8093452660571 3.66812584438376
2.2764158518132396 11.264376022937771 5.228882543811013 235.78374655574498 4.08365018848639
2.309686282762262 11.161526225393944 4.224130172035751 239.99262003243112 4.523688640403335
2.343445149091008 11.060437937860291 3.3990909856326126 244.4529532115869 4.990017247823211
2.3773401690979457 10.961119039204247 2.7259133983558255 249.18325162635622 5.4845707674455575
2.411026135667087 10.863229098034676 2.1789024047006054 254.20370144388963 6.0094596665467765
2.4441498163594644 10.766530212918553 1.7363222492671504 259.53635230413835 6.566989238807758
2.476378080308965 10.670890200444086 1.379688765956722 265.2053232346071 7.159681132736992
2.507403913133239 10.575769328254488 1.0928344725477523 271.23703494450257 7.7902976380640885
2.5368857392385773 10.480932661533517 0.8631510461378218 277.66047233006907 8.46186913071813
2.5645556357514145 10.386056120051943 0.6791527869963019 284.50748164456854 9.17772514200063
2.5901174213212803 10.290718344107333 0.5336542162859991 291.8131075194529 9.94152959420755
2.613338721891496 10.194590273240099 0.41782795460811534 299.6159758896033 10.757320835529468
2.6339768500188487 10.097295652575642 0.3262077584970014 307.9587299015824 11.629557214334952
2.6518491577686105 9.998528579210557 0.2540558045625971 316.8885271019251 12.563169060292585
2.6667522171260845 9.897933361925691 0.19727928897506844 326.4576076518334 13.563618091315861
2.678557927274816 9.795239902108152 0.15311503223737086 336.7239450433013 14.63696544604687
2.6871238951486904 9.690174006938669 0.1185075365531339 347.7519928585663 15.789949757686504
2.6923615236018508 9.58244200659641 0.09169698390148011 359.61354359215574 17.030076943988288
2.6941727698849642 9.471895465282259 0.07098384522076612 372.3887185318486 18.36572369948467
