M[M_sun], R[km], Lambda[1], P_c[MeV/fm^3], rho_c[fm^-3]
0.23848912294887037 16.21570186450063 2784644.0411725277 3.4469561053153734 0.1694538074003404
0.24849744226909876 15.871939118335609 2284153.2212938103 3.633032423337474 0.17193867064360752
0.2587990080654155 15.568079509475893 1882837.4751136415 3.8179340436461504 0.17422933822396894
0.269386675979442 15.298114634595876 1558576.6018378672 4.014513722329514 0.17663944174601662
0.2802617196222845 15.057857000616416 1295362.6280660082 4.219024468045945 0.17907435644215117
0.2914241366629158 14.843395208986445 1080591.222660064 4.426465756199374 0.1814126139755185
0.30287043401372166 14.651780586179523 904805.0907961583 4.648982488880688 0.18392080041768685
0.31459423401709713 14.48019583895465 760209.4172819665 4.871897592855247 0.18628927547239904
0.32662037113533443 14.326072837719362 640622.9674351887 5.106140725739448 0.1887348803688428
0.3389151380350828 14.18768779358789 541497.2171462304 5.353788815301011 0.19129181480283725
0.3515004361997679 14.063266341609587 459053.20844854944 5.600470723829484 0.1936801385116588
0.36437049604762944 13.951351828547232 390195.208826289 5.864291365754037 0.19623439592657663
0.3775223518626233 13.85067330350407 332528.0300201617 6.135272654153277 0.19875873851944342
0.3909601782698807 13.759989126760487 284057.9503109899 6.412629137533765 0.20123222239402333
0.4046866736354543 13.678377674739014 243207.71080416066 6.709006309821296 0.2038753340585202
0.418691638600313 13.604999179555485 208719.57044904443 7.00621629176288 0.2063733820691013
0.4329907644419638 13.538907502849604 179469.51440139255 7.317319881178779 0.2089383172211183
0.4475754409378904 13.479567291581937 154639.44509992437 7.649287995474876 0.21167381967024715
0.4624407016706764 13.426368272301097 133502.44973463175 7.976141426321391 0.21418010470569748
0.47759591029751064 13.378735044873933 115471.70118842795 8.324573098879274 0.2168518499113301
0.4930270365209212 13.336081464845451 100050.41048871218 8.68987375492479 0.21961165605869742
0.5087415275458158 13.298045953046941 86845.07155157349 9.055846186600233 0.2222249806951238
0.5247372695268718 13.264183001255171 75499.90121849952 9.445746734603203 0.22500917048556118
0.5410115371424417 13.234285855870201 65747.69793317241 9.848107551309312 0.22779388595254121
0.5575692199912473 13.207893415997269 57341.3258459807 10.25744213036384 0.23049654765733402
0.5744030176421803 13.184541154228631 50081.1805244168 10.693307223184188 0.23337437903317926
0.5915092616646035 13.164262412861222 43806.35074072226 11.137413496216537 0.23618985999356215
0.6088996752631586 13.146680977502806 38368.650402727064 11.594847492232024 0.2389994118502571
0.6265555960998233 13.131359828888433 33651.5087290117 12.081696421387948 0.24198962972814667
0.6444754946029336 13.118416702394535 29552.573498798803 12.572413009984867 0.24486239085672318
0.6626743976746954 13.107562158028221 25986.056951568655 13.083535438263347 0.24779738663344147
0.6811326598300405 13.09849114299584 22876.41124448187 13.62730459275171 0.2509198482661826
0.6998333334090704 13.091058962853491 20165.15352156867 14.169853817585594 0.25386296058092594
0.7188068369157874 13.085229985982512 17793.357098406053 14.741153839689089 0.2569351776438668
0.7380245266146765 13.080770657120734 15720.684749124344 15.347502099238156 0.2601895682980957
0.7574884261996137 13.077621226210567 13904.758455103618 15.948675021677385 0.26319629747302375
0.7771942778339336 13.075429905264551 12309.535599802779 16.587324571887574 0.2663904636829394
0.7971426901659346 13.074436064024146 10911.14750706033 17.258355188050196 0.2697123494359799
0.817322740786017 13.07423336685899 9680.598801195349 17.930771671748122 0.27286587215517794
0.8377300343630092 13.074803167875233 8597.042564957155 18.644960831428985 0.2762153018545699
0.8583567129303269 13.0762432027274 7642.906497192543 19.387618079947682 0.27963451436430475
0.8791937129961224 13.078119589987093 6801.169655985104 20.140443850467474 0.28295910033817817
0.9002365069609813 13.08053059618133 6057.723408506355 20.939935210761025 0.2864897682121402
0.9214812764644941 13.083395204443041 5400.730865480254 21.761933298317626 0.2900197154435253
0.9429087469130749 13.086529595975655 4819.27064548345 22.60587230731904 0.29353653431541676
0.9645351829134098 13.090057214585523 4304.206300457366 23.502081394044154 0.29727117034448813
0.9863077452873925 13.093689760614481 3847.826204064794 24.41184478889567 0.3008980424164245
1.0082688243167846 13.097395795455341 3442.55298040624 25.35898157397763 0.30459932251397065
1.0303900177052163 13.101322655459919 3082.942711968159 26.36479743636525 0.30852991236317534
1.0526298783796333 13.10516170662035 2763.122656652863 27.372861316086563 0.3122768491668178
1.0750311589348531 13.10899819875982 2478.5047326788654 28.437260306244934 0.31621501626891657
1.0975497360550657 13.112657153880297 2225.126457049153 29.555772001347837 0.32031811401579696
1.120181765408928 13.116175494426864 1999.195986932241 30.685023083645365 0.32428714351215976
1.1429066415143514 13.11943013502577 1797.7076426923488 31.88354642172772 0.3284996473171149
1.165727598544306 13.122416306304507 1617.870886174599 33.12165471805504 0.3327540961675913
1.1886260730761378 13.12505638485006 1457.1237509183368 34.395692212811724 0.337017674859217
1.2115898907718152 13.127352206185181 1313.4344142471618 35.74822332923903 0.3415439332083573
1.2345910348499183 13.129210770531476 1184.8773234954108 37.11928725372569 0.3459337536114641
1.2576408974512667 13.130609515523773 1069.7296358082065 38.55955329537145 0.35049842482788574
1.2807334932872816 13.131604325130022 966.4898490399629 40.072376198493814 0.35525205450195846
1.303781500302626 13.131710787620035 873.8998545157589 41.60968640729237 0.3599122347376975
1.3268677788725358 13.131444407489512 790.7737706302216 43.24154834522203 0.364859037736253
1.3499023441989413 13.130468254114405 716.1316428780706 44.917976424090874 0.369808900385068
1.3729199668482335 13.128850194074406 649.0185044636495 46.663778000861114 0.3748830334157054
1.3958721961838467 13.126473627872093 588.6657884890162 48.505837254981664 0.38020995540111724
1.4187622932885335 13.123426892847899 534.3374804954207 50.37845806304076 0.38543737116286336
1.4415493198688158 13.119485729944287 485.3820069399813 52.366723619510665 0.39098760891719025
1.4642191002788199 13.114658171654613 441.2705612438732 54.410650972891986 0.396527969881528
1.48680081774578 13.109136628542911 401.4379783270279 56.54804137359293 0.4022398352547719
1.509211595226618 13.102558835296367 365.5070245187701 58.78932405262251 0.4081707409974025
1.531474167287478 13.095095174158855 333.0486980033162 61.09271625867857 0.41411126585935343
1.5535605712905893 13.086720550445579 303.68898307221383 63.539723182375326 0.42042217783924435
1.5754460642587553 13.077312389053033 277.1544722077181 66.0341674819235 0.4266539683606412
1.5971210890571026 13.066868008982347 253.12545869824962 68.67814641410654 0.4332474516052176
1.6185580623039557 13.05533697938377 231.35414892867996 71.41022151150653 0.4399131354481912
1.639731780568326 13.042786422412787 211.63167540578675 74.27457967533829 0.4468267961015808
1.660627864372597 13.029005724817882 193.74362406325966 77.26368185547155 0.4539288757765888
1.6812409270997266 13.014239142042774 177.51010033430498 80.37449208442393 0.46118506716699736
1.7015184223533488 12.99815148296075 162.76481581508904 83.64351626431296 0.4687443734989973
1.7214814649154793 12.980917871800909 149.36341661306713 87.0304736011317 0.4764248186340119
1.7410790296448992 12.962469296033277 137.17704087685942 90.60447657647616 0.4844823656923626
1.7603183991824023 12.9428085829336 126.08248534833145 94.30173856511733 0.4926454345162455
1.779153313494971 12.921902190681115 115.99256065987193 98.20982961242318 0.5012308712632819
1.7975526538890414 12.899611378954738 106.79505003837262 102.25619470887116 0.5099321386617521
1.815537956175113 12.876112256788161 98.40779163000632 106.53211215542758 0.51907269687853
1.8330622079742103 12.851186931050398 90.75846854438969 110.97160855072659 0.5283658551196476
1.8501091637375644 12.824920883487753 83.76874151302452 115.65457999277905 0.5381012137750009
1.8666587587852514 12.79731544318935 77.39552272773304 120.53782380602328 0.548094512854774
1.8826792037547135 12.768280819486955 71.57068755766512 125.67267304734135 0.5585016893542427
1.8981724539987883 12.737867006404185 66.23816848017441 131.05817453235503 0.5692881338848079
1.9131240773974783 12.706028110693252 61.3574761823017 136.69725907564478 0.5804244709247599
1.9274866471826404 12.672816142440377 56.895712740219125 142.6523194216323 0.5920957852974165
1.9412462928146945 12.637995138335926 52.800734789472465 148.8566677687259 0.6040201666884398
1.9544090663077245 12.601924834374636 49.055527237326814 155.42503954718438 0.6165695169906306
1.9669179957906624 12.564149007877857 45.61255723560511 162.30000175515642 0.6295124114514207
1.9787819011648748 12.5250191355285 42.457872783802 169.54368404250323 0.6430135231764957
1.9899906585649658 12.484346144415822 39.55672916586496 177.20099133063044 0.6571747758026496
2.000507975718732 12.442238091636424 36.89686286463375 185.21037260743023 0.6717266117053703
2.010314882880598 12.398517310233133 34.44875967804229 193.68864349873 0.6870059085148083
2.0194166269972795 12.353316755021785 32.195558570858935 202.64400696426628 0.7029774999489602
2.0277734930743683 12.306601903898803 30.125935638858127 212.05298823667755 0.719518303837698
2.0353925389719607 12.25839875650488 28.215898093632994 222.01824168013152 0.7368925901502161
2.0422396990515193 12.208665130205489 26.460776202259957 232.57162823299277 0.7551300135052887
2.0483412277261692 12.157514749719939 24.841811569480768 243.68514641606652 0.7740393437579552
2.0536074960880693 12.104759528427211 23.350806731639686 255.46338411723355 0.7938787136873457
2.0580677696702536 12.050430523709311 21.9750474841856 267.9554260381994 0.8147183913129215
2.0617485546294083 11.994798053593113 20.706007465833313 281.2086885155746 0.8366168067016077
2.0646096035801773 11.937618615132996 19.534619548236208 295.22537591945485 0.8594690414386649
2.06661009017266 11.878967435837108 18.45430533341763 310.1189824047393 0.8834906878971043
2.06776488337905 11.818835732230806 17.45748007813271 325.95458484529104 0.9087606281718451
2.0681038006445585 11.757499182898425 16.53817817374514 342.80231527968147 0.9353642699532817
