M[M_sun], R[km], Lambda[1], P_c[MeV/fm^3], rho_c[fm^-3]
0.23848912294887037 16.21570186450063 2784644.0411725277 3.4469561053153734 0.1694538074003404
0.24854032835144857 15.870582216946614 2282476.0765136327 3.633887253620306 0.17195008604762896
0.2588915518396273 15.565502893012596 1879707.9092642681 3.819613293381801 0.17424992613890194
0.2695314086102549 15.294804774221078 1554670.9916234468 4.017220642492074 0.1766726290920403
0.280452202582895 15.053972665546555 1291212.4929730822 4.2225735351405085 0.17911436117285912
0.2916761147492766 14.838969681740235 1076344.1993268174 4.431222759268954 0.18146623444019414
0.30317702289904097 14.647020382687586 900609.41891474 4.655109966845878 0.18398986873884987
0.31496284710160505 14.475105025837578 756158.3910367572 4.878917694543344 0.18636256852842398
0.3270442593839842 14.320807597435465 636755.6076071245 5.114734738193193 0.1888246057694477
0.3394115769524323 14.182508277540645 537946.2178943856 5.3633056328784114 0.19138395468122646
0.3520600412335242 14.058123438232858 455750.30328151333 5.611775924522222 0.19378959314904393
0.365002165068845 13.946238017931101 387150.8454153688 5.877599887656907 0.1963632463095642
0.3782258508580144 13.845645965240317 329746.5216680912 6.149551559575855 0.19888607876359032
0.39174386635569164 13.755089390044045 281495.18678379484 6.429153580963601 0.2013795884979699
0.4055437287708269 13.673640646313133 240909.32363495266 6.728034754467883 0.20404503101464688
0.41963070654242896 13.600402528192816 206624.39271469985 7.026252589403325 0.2065385740047866
0.4340158237840452 13.534514260775678 177578.70210438347 7.340132967937508 0.20912640276607566
0.44868718243083844 13.475360517581999 152916.31160922663 7.673170088479755 0.21185694558132706
0.4636369981994324 13.42239072534411 131958.52815761653 8.003090065999245 0.214386744642673
0.4788793049637797 13.374969582060329 114077.4849910606 8.354916078546287 0.21708451736619955
0.4944053432745032 13.332557745957653 98802.44960406194 8.721354759551994 0.21983645464419493
0.5102174004511358 13.29471409974864 84847.70143770445 9.091052804770952 0.22247638302674094
0.5263099293585685 13.261204572575908 74488.01024038997 9.485066231567432 0.22528994193503377
0.542681519425174 13.23142354359258 64836.739567999735 9.888626738107199 0.22806141686752263
0.5593439216573391 13.205192309496953 56520.39634748472 10.302451518213868 0.23079372545545557
0.5762839620508369 13.182194117183565 49341.49744044034 10.74326230775707 0.23370421115815307
0.5934949631772428 13.16206216321844 43141.39393248935 11.18863200339932 0.2365044431972724
0.6109937537499908 13.144669358693793 37769.78604021998 11.651441775441585 0.23934701297928285
0.6287630675453684 13.129645667817886 33110.12950359037 12.144200224491325 0.2423735270282801
0.6467967134486229 13.116921654654975 29066.271441378405 12.636283798570602 0.2452291532689816
0.6651095064286813 13.106262999292944 25547.85384900611 13.153811667019664 0.24820093072227786
0.6836824233171968 13.097373338858496 22481.054275007846 13.704091684397742 0.2513582829728578
0.7025104936089845 13.090217839217482 19809.210578485236 14.248672805298535 0.2542868167503058
0.7216007420223516 13.08457862891574 17474.361521333063 14.827578830364196 0.25739993577574816
0.7409382068666877 13.080212973474715 15430.825852269634 15.435691710940116 0.2606306431844262
0.7605259946645087 13.07720676978079 13643.674967956298 16.04509603357186 0.26367854119811185
0.7803643599924593 13.07528777434682 12074.924392943503 16.69274829204333 0.2669177338963675
0.8004289572817249 13.074326716729795 10698.590271870486 17.365751288890586 0.2702160194859628
0.8207372229830256 13.074291970688888 9488.540857640111 18.047896847744454 0.2734151699675445
0.8412811693480333 13.075072509551145 8423.22945484424 18.772715370064503 0.27681444962955026
0.8620368291865081 13.076573057093526 7440.110274683431 19.51766429099418 0.2802088169800376
0.8829988957790409 13.078558131744101 6659.241043548373 20.281973889211095 0.2835841171748945
0.904181846442393 13.081025165999039 5928.954283400208 21.09400062653155 0.28717014306165684
0.9255467188649271 13.083988715246544 5284.623493018538 21.918717710358205 0.2906730593145891
0.9471206867990793 13.087247067579174 4713.813901621508 22.77620408903908 0.29424633208284634
0.9688521640889373 13.090703793002074 4208.858880837559 23.68719048720038 0.2980425473577877
0.990771882103645 13.094466989474482 3761.5225403990717 24.600150052523038 0.30163391344952645
1.0128686797315254 13.098355997208088 3364.330172931042 25.563259256631675 0.30539761156058903
1.035093525132951 13.102191402824129 3012.0384256083353 26.57802310134047 0.30933602928842024
1.0574771921226125 13.105990511068084 2698.473067670796 27.598362961455827 0.31311118212792877
1.0800026659633686 13.109786410286995 2419.812259801648 28.681592670608833 0.31711902095908706
1.1026448062322318 13.113462059391468 2171.87220175034 29.804907325652945 0.3211937611294053
1.125401147330923 13.116890924088866 1950.696494809534 30.954575170917067 0.3252345503395332
1.1482619812658974 13.120213021196635 1753.6542691391094 32.17532133774527 0.3295251617187626
1.1711935145198735 13.123047069756852 1577.7215251184628 33.419354957712045 0.3337503528739419
1.1942085298400338 13.125704107366252 1420.7296762523126 34.71752709494808 0.3380946983780268
1.217283156436737 13.12786741996962 1280.2243695075122 36.090995807621674 0.34267476379263867
1.2403985575037944 13.129626533394704 1154.6727126399408 37.474622752071795 0.3470599273006111
1.2635543611070723 13.130859745316188 1042.1831922441488 38.943455106374316 0.35171513444676594
1.2867222005930377 13.13153100005208 941.3538368626133 40.46512729857942 0.35644263458378467
1.3099141908907093 13.131695316000272 850.9350507231782 42.03358573768891 0.3611972371205288
1.3330891593253527 13.131209543867918 769.7984078092724 43.69931850383732 0.3662467156645466
1.356225839049716 13.130124338693706 697.0210281204161 45.386772444458884 0.3711714454779539
1.3793299571334026 13.128303120648221 631.5653123187559 47.169594175774805 0.37635317675542473
1.4023637403118596 13.125688020852072 572.6903135568375 49.02509299360437 0.38165945634694237
1.4253123345794623 13.122260512764923 519.7144923453802 50.93830177466342 0.38700017332209175
1.4481819649750194 13.11815584476041 472.00968346837226 52.970688806031504 0.39267357605051356
1.4709108932887325 13.113022500476935 429.0434223886722 55.03120686943086 0.39818631537444327
1.493561577472067 13.107252916837021 390.2387389283033 57.217084119768245 0.4040277548102474
1.5160244598188637 13.10033556200425 355.22216638285795 59.478245560041735 0.4099474924043043
1.5383443913091608 13.09262584897245 323.62875506369494 61.83507915132613 0.4160258443704588
1.5604622890048123 13.083839926637117 295.0687365411354 64.31149938798191 0.4223580251989488
1.582376643618577 13.074121699877459 269.2384644390094 66.85943082111937 0.4287119877847439
1.6040674477868693 13.063234108698865 245.85607668320867 69.56764214037075 0.43546565202121074
1.6255146781089491 13.051366354120043 224.68839974244023 72.32933232339248 0.4421315801722059
1.6466872479388466 13.03829717291897 205.50470051423568 75.26493300897359 0.4492171978893755
1.6675904459838855 13.024195945892878 188.10986767285084 78.2890785019094 0.4563206881245062
1.6881978159928959 13.00889002975997 172.3219840983684 81.47914751572804 0.4637617564022955
1.7084426379543836 12.992327669703347 157.99304453763537 84.78954268598987 0.4713431641478438
1.7283921895296546 12.974686385968852 144.9695805422163 88.26495173106187 0.47922418709497094
1.7479497541685167 12.95568489098091 133.1256381341624 91.88779827476324 0.4873157714338231
1.7671184801185897 12.93547409632102 122.35907725475775 95.6840958731247 0.49569749787532835
1.7858797452934947 12.913932901165689 112.55311479146812 99.64965420491839 0.5043270572197078
1.8042130144253665 12.891121033935471 103.62318803699075 103.80726298709621 0.5132675420473656
1.8221082837464266 12.866977061505581 95.4817411023174 108.15056586753009 0.5224605916110089
1.839523978736674 12.841503341846087 88.0620252030907 112.71540841906516 0.5320161358439366
1.8564630408618694 12.814635290138204 81.27985635050008 117.47739388619307 0.5418315055851798
1.872894476411061 12.78629640500092 75.09079642950333 122.50232464794239 0.5521147594790606
1.8887821779969685 12.75660000583243 69.43765441208059 127.72990909898517 0.5626220600604962
1.9041303743179994 12.72555272227783 64.26656601910119 133.2692357316183 0.5737058928079324
1.9189065909992427 12.692964309591293 59.53562301494896 139.0239360105582 0.5849845217677846
1.9330898112713693 12.658931980716387 55.204461149107175 145.1128467533089 0.5968397177087608
1.9466687507624154 12.623436045300013 51.23798939110729 151.49365877981367 0.6090777747677297
1.959637685198869 12.586612984102974 47.60453134754737 158.20131827003436 0.6217961759040305
1.9719283958410603 12.54804516901903 44.26761849991279 165.29534013824204 0.635151474968261
1.983576130444343 12.508105352007458 41.20945253858042 172.70247308680302 0.6488553168992597
1.9945358645456828 12.4665765473504 38.39929923016173 180.5435438040325 0.6632528271807296
2.0048151939504524 12.42363575557805 35.81895849970455 188.81269474477122 0.6782675205036417
2.014342687649479 12.379053998418076 33.44887395281834 197.50011196085399 0.6938035351299056
2.023169366831721 12.333030667709505 31.267699518133075 206.69872512431434 0.7101186128981055
2.031242146165312 12.28546604263887 29.261310135513604 216.41702567868052 0.7271796014509809
2.038552000672532 12.236372303972871 27.413981194941915 226.65035946801152 0.7449015878946625
2.0450852494569847 12.185762634568142 25.71414114388786 237.44009451625735 0.763338684887544
2.0508249390682787 12.133592252140877 24.147081276088908 248.83005339602843 0.7825548061777134
2.0557512126101853 12.079845330008856 22.703262266664005 261.03484616881485 0.8031456424325991
2.0575445989282315 12.034241778824953 21.71432868109449 278.3033449083828 3.2492560385421787
