M[M_sun], R[km], Lambda[1], P_c[MeV/fm^3], rho_c[fm^-3]
0.23848912294887037 16.21570186450063 2784644.0411725277 3.4469561053153734 0.1694538074003404
0.24848864561814762 15.872427547388249 2284879.2056774455 3.632927081008235 0.17193726390209055
0.25878554332317366 15.568487077298935 1883237.440847562 3.8177271414590823 0.174226801564569
0.2693677455008613 15.298668941993494 1559069.9914565345 4.01418026157262 0.17663535345494788
0.28023627088230313 15.058453218757482 1295900.606592789 4.218587329144606 0.17906942905600598
0.2913926736769365 14.84408692647448 1060478.2785141282 4.425879943974801 0.18140601075848567
0.3028328425159441 14.652346510089165 905255.0566760737 4.648228049913592 0.18391229645681204
0.314551215816535 14.480693231754467 760652.3573361682 4.871033356637439 0.18628025245302626
0.3265659460440795 14.326675007088546 641061.282327587 5.1050829278197085 0.18872383647722427
0.33885196312009075 14.188363732186387 542013.3913811926 5.352617558552556 0.19128047493491526
0.35143147422390614 14.063825826271007 459427.75504910864 5.599079629452635 0.19366667022084957
0.36429293223897274 13.952063292439355 390572.2212281762 5.862654082825668 0.1962185440886401
0.37743510337675085 13.851264708019187 332873.6096612256 6.133516141128115 0.1987430738175036
0.3908644672531618 13.760547955628043 284363.90033978806 6.410596784175646 0.20121409772934096
0.40458052120046 13.678975330614337 243480.62898650134 6.7066664534468625 0.2038544670611439
0.4185768034034914 13.605501975966257 208969.1280116021 7.003752668443903 0.2063530703971465
0.432861303165971 13.539407720001133 179710.38868853505 7.314515385375227 0.20891519518037388
0.4474376877483386 13.480102078908537 154850.08264374864 7.6463171903998735 0.21165077953929518
0.4622959063854907 13.426849025542504 133691.5944577145 7.972829372276819 0.21415470814961113
0.4774364019897463 13.3791814185891 115641.63777855068 8.320844628639335 0.21682326031034815
0.4928571054920815 13.336584557624418 100213.65117550887 8.68600560676953 0.21958403450582467
0.5085585328218521 13.298503607183505 86985.893091968 9.051521137396628 0.22219409651735722
0.5245430234242222 13.264592836474419 75624.46831857326 9.440917430884545 0.22497468554272826
0.5408045676019139 13.234616131294487 65863.66489415774 9.84313103236763 0.22776102811971916
0.5573447101842504 13.20815966745039 57445.357650339545 10.251915273456106 0.23046005617755994
0.5741716088717636 13.184802500101537 50173.382429136786 10.687174370226607 0.2333338864198558
0.591265100180374 13.164546572073801 43891.640403774996 11.131125618143114 0.23615123995292298
0.6086392293601609 13.146862125724526 38442.77752831311 11.587901123048718 0.23895674736837286
0.6262862063407081 13.13156425512105 33717.10651582291 12.074026385887327 0.24194252049999707
0.6441864341892727 13.11856956682078 29612.863617548162 12.564575240521103 0.24481738437881823
0.6623809884863632 13.10769519671293 26037.66707800894 13.074913505672512 0.24774787729019768
0.6808172064807432 13.098639211890156 22926.052108493885 13.617822328753114 0.25086539867984115
0.699505023246008 13.091161551502411 20208.487374046097 14.160185877795328 0.25381097036836164
0.7184645432560466 13.085316361281633 17833.79493760388 14.730555296549817 0.2568781830284021
0.7376676695475024 13.080894199676912 15756.878490748715 15.336687032239793 0.2601354774096691
0.7571131990893901 13.0776810718317 13937.489611614028 15.936853117380103 0.26313717095014305
0.7768082836052824 13.07558069920728 12340.332469215833 16.574401803933608 0.26632583125859405
0.7967412679658797 13.074451151990145 10937.524294701152 17.245190378263533 0.2696506086432381
0.8168988473372051 13.074274805373157 9705.035337253836 17.916417505321412 0.2727985534754025
0.837289616995757 13.07480484134861 8618.881512058346 18.6293076311405 0.27614189091962904
0.8579044115616801 13.076142150256867 7662.562003810898 19.371683664669405 0.2795641457138009
0.8787317580048909 13.078101599989846 6818.721275713924 20.123106359350718 0.28288253550465886
0.8997597286194423 13.08051936093261 6073.789176494268 20.92106662411538 0.28640644184239383
0.9209810182672711 13.08331454729851 5415.208447697666 21.74273110629701 0.2899396970647568
0.9423989761263764 13.086504071879476 4832.494940583649 22.585015865585053 0.2934496224330316
0.9640015484211306 13.089999400013463 4316.19335230505 23.479421065036117 0.29717674139660355
0.9857595261202249 13.093609285672215 3858.8303367704593 24.388792346212 0.3008079566456585
1.007702369177019 13.097388846912825 3452.558752445246 25.333979888857257 0.30450161937225056
1.0298035592229189 13.101206912460519 3091.6054269572246 26.337671415569957 0.3084239076102436
1.0520405103407178 13.10504310403478 2771.0759839414764 27.345267795189447 0.3121747559694051
1.0744242652025955 13.108932586423563 2485.8049516049764 28.407370067535165 0.31610442545114137
1.0969314665336112 13.112632765527103 2231.5818895559732 29.525293071462453 0.320210988352046
1.119536016674776 13.116038377688707 2005.2088412045364 30.652054690493806 0.3241712680200593
1.1422585742230165 13.119384535608576 1803.1977591040365 31.847869208602294 0.3283742510137926
1.1650520910442252 13.122310182471859 1622.84714766853 33.08525162520001 0.3326322728683205
1.1879397223973693 13.125067505328223 1461.7572537445026 34.356348110441935 0.3368860094434068
1.2108819660130832 13.127313027928068 1317.6437719120497 35.70567960788452 0.34140156023693685
1.233882839259931 13.129167375357275 1188.651922638316 37.07585761901837 0.34579611098311913
1.2569115240409938 13.130536889266278 1073.1383379794772 38.512644778251996 0.35034975649043365
1.2799648259726977 13.131441657135936 969.6407606373724 40.02438483568356 0.3551065741693785
1.3030354655389143 13.131786446459737 876.777990198978 41.55790288209015 0.3597552588981414
1.3260956441298388 13.131463810288748 793.4414327751662 43.185642577897084 0.36468956579073386
1.3491304716910157 13.130507909961311 718.5234796290381 44.86072242120471 0.36964249291296664
1.3721279571941658 13.128860724157224 651.1966985279528 46.60201989751038 0.3747035348768731
1.3950840983387858 13.12664235927638 590.6574242429012 48.442436898673215 0.3800329734833468
1.4179511721576092 13.12348465515092 536.1173657665929 50.31012115217472 0.38524660886681666
1.4407323713918463 13.11962791232954 487.04426398599503 52.293022257155336 0.39078187176977613
1.4633947677960553 13.114932374814883 442.8134281012231 54.334923729715634 0.39632559982411203
1.4859542249615567 13.109319691565466 402.8653596361998 56.46642095498091 0.40202171654203384
1.5083740921739075 13.102838228013479 366.8003965274022 58.70527775303725 0.40795398280445194
1.5306312707105958 13.095423956188561 334.22055853533936 61.00217693163146 0.41387776193332054
1.5527081040732595 13.087019288932893 304.77151670360394 63.44212721951696 0.4201704746155112
1.574583004076835 13.077683313271802 278.1462521227823 65.93354770713258 0.4264030454841078
1.596257793933417 13.067248252878134 254.03296993091377 68.56972832088044 0.43297708149281094
1.61769418546443 13.055844543647613 232.1901536448037 71.29819471885901 0.4396427379684932
1.6388776067189774 13.043377373710339 212.41092254865615 74.1539069146822 0.44653552997159107
1.6597718549090215 13.02962962739245 194.46268313815924 77.13874153033262 0.45363744336996037
1.6803787745980976 13.014883140043324 178.16504625551855 80.23993692981722 0.4608712074704767
1.7006658906634715 12.998859359571181 163.3610745609534 83.50392603136888 0.4684278312402991
1.720633983340049 12.981703285610436 149.90144377854955 86.88015800400972 0.47608395496735684
1.7402469716483224 12.963375590609909 137.68387998019497 90.44822019973337 0.484137372137283
1.7594762113108218 12.94371191594751 126.55232051464584 94.1334789135495 0.49227393930702024
1.7783182534609308 12.922861140946695 116.42265502514329 98.03458468172151 0.5008540261279776
1.796737517748733 12.90067140335839 107.18996970417209 102.06747328520281 0.5095263137962204
1.814731554195577 12.877202171269252 98.77351924795238 106.3352049959388 0.5186605128763364
1.8322535461454472 12.85234414849657 91.09734908438145 110.75952403439679 0.5279219004916338
1.8493216843882263 12.82619108695949 84.08572793203471 115.43290331197794 0.5376475642225765
1.865880794042596 12.798659884268302 77.68818167454856 120.29900011464446 0.5476057728560029
1.8819235502987173 12.769705474336671 71.83699795867471 125.4225989866233 0.5580008242088195
1.897440639512795 12.739370538655695 66.48429436957304 130.78866451791072 0.5687483411042609
1.912400944324086 12.707645663010684 61.589521263948896 136.41456451584665 0.5798704182557441
1.9267710861950669 12.67446671654292 57.110342176524625 142.34752249996092 0.5914984142405402
1.940565779136866 12.639829781696868 53.000672853367355 148.53642707732837 0.6034059621267559
1.9537425571376996 12.603699591267253 49.235579063140406 155.08792914932988 0.6159348685127078
1.9662891925006514 12.566121565873626 45.78143501039447 161.93643074502856 0.6288279478760964
1.9781922841342545 12.527059273778862 42.61500595140952 169.1603313721348 0.6423045593324542
1.9894274456799916 12.486564656739679 39.70620959416225 176.7872730003377 0.6564096543871318
1.9999676099505903 12.444421075956258 37.02889870178054 184.77343713868729 0.6709332470525669
2.009797982777259 12.400841602157032 34.57334383054798 193.22642325994394 0.6861815541672825
2.0189465700267824 12.355803584000629 32.31219696783072 202.14482248185917 0.7020872211083573
2.0273352333020407 12.309232251118981 30.234215265527613 211.5240775896263 0.7185897733354404
2.0349815776013616 12.261074468927529 28.31831534981615 221.45695838709636 0.735922123328393
2.0419041557330404 12.211563231545677 26.55478273522022 231.97082043382161 0.7541007408147551
2.0480090307316976 12.160368015754976 24.928667925929044 243.04023472130223 0.7729420451330538
2.053313188521467 12.107702849899917 23.432081755923758 254.77692816143525 0.7927285571943087
2.0578425933998745 12.05366197396849 22.051264470785316 267.2237313007877 0.8135092905168317
2.0615523684605868 11.997994442094372 20.776120967972407 280.417968477534 0.8353123210137213
2.0644398280081555 11.940940759068386 19.60133480176967 294.37969631774183 0.858090279951458
2.066516908754456 11.882463693960112 18.516176468948228 309.2149062927221 0.8820379660100162
2.0677113728454595 11.822422072477504 17.514715106250573 324.9868294868259 0.9072266170193288
2.068093982166533 11.761095459553529 16.589986017347147 341.7650800396901 0.9337405973977956
