M[M_sun], R[km], Lambda[1], P_c[MeV/fm^3], rho_c[fm^-3]
0.23848912294887037 16.21570186450063 2784644.0411725277 3.4469561053153734 0.1694538074003404
0.24848925832324084 15.872269025467714 2284722.7324633603 3.6328778801749104 0.17193660687413792
0.2587829825286208 15.568375753263556 1883302.1219646244 3.817630509043312 0.17422561683313004
0.26936005114568634 15.298812493478392 1559232.4143971454 4.014024525388344 0.17663344410028445
0.2802236938543246 15.058743599986052 1269937.867975691 4.218383176998753 0.17906712787335693
0.29137793946342777 14.844363090645576 1081515.6806702602 4.425606366705827 0.18140292702276542
0.30281508981631805 14.652616149315412 905559.6058632989 4.647875733891363 0.18390832518570957
0.3145306813559103 14.480954696858214 760896.8941952874 4.870629774281893 0.1862760388695897
0.32654059711790534 14.326893798069573 641254.2616286371 5.1045889707877 0.18871867934104172
0.3388232298973611 14.18868871685954 542195.8783825277 5.35207062935085 0.19127517967841562
0.35140030125056565 14.06423673113844 459644.7411232847 5.598430064769014 0.19366038126863755
0.36425399910699413 13.952396782356852 390765.4691061057 5.861889585505121 0.1962111423821798
0.37739263473992923 13.851581606670369 333047.98750183603 6.132695983012519 0.19873575959196685
0.39081907937987365 13.760905973980247 284519.5420100496 6.409647859126018 0.2012056351515788
0.40453057492972455 13.679315359293144 243638.910993601 6.705573987298209 0.20384472437415393
0.41852344346530357 13.60575031611084 209084.2101137592 7.002602428563576 0.20634358709061237
0.4328034605632162 13.539658886940762 179818.712276662 7.313206037435162 0.20890440008616104
0.4473731826572686 13.480378352676572 154949.52629214298 7.644831139090547 0.21163852759052096
0.4622252522020729 13.42707592621133 133784.3555585808 7.971283121320677 0.2141428516253507
0.47736764527351305 13.379408217815307 115719.3865229615 8.319104028213369 0.2168099135304505
0.49277895259723525 13.336773821855205 100282.16437058098 8.684199811032576 0.21957113973540132
0.5084762244378953 13.298707968919832 87052.50964451066 9.049502108797967 0.22217967910030104
0.5244528763770105 13.264741048840786 75685.87811353801 9.438663080345878 0.2249585877460312
0.5407084839825881 13.23482219464328 65918.00471550979 9.840807970778954 0.22774568993449157
0.5572433556231579 13.208216541473908 57489.28335155186 10.249335397344467 0.23044302235553069
0.5740669975591577 13.185018445458944 50217.36143868031 10.684311719511896 0.23331498555768404
0.5911491095193009 13.16470293928631 43930.142437739116 11.128190611998354 0.2361332131948874
0.6085136452536157 13.146953244896629 38478.35581976731 11.584658861820156 0.23893683345481603
0.6261539162653231 13.131759171728987 33749.877789220904 12.07044647381953 0.24192053274070394
0.6440542434148833 13.118727644974413 29641.57025726305 12.560917041259762 0.24479637806254564
0.6622334889499686 13.107755049201314 26064.64926775548 13.070889446159928 0.24772477011074073
0.6806653762753586 13.098621215366354 22948.789082259987 13.613396890221523 0.25083998667934626
0.6993518608801574 13.091235576918127 20229.85977649671 14.155673777289676 0.2537867061435641
0.7183037197073078 13.085388687373957 17852.236633361306 14.7256090524436 0.256851584157489
0.7375013270836924 13.080929341296097 15773.782667962016 15.331639729120845 0.2601102336354138
0.756935815696311 13.077630103215192 13951.939774322933 15.931336127383947 0.2631095780660326
0.7766284262254094 13.075535143649011 12352.96934084155 16.568371287781225 0.26629567000518684
0.7965488670519684 13.074453379614646 10876.803959799381 17.238402259724012 0.2696136578978606
0.8167133570642168 13.074316790394882 9715.470899928041 17.90419685079573 0.27269824184069114
0.8371099737703688 13.07503053323213 8628.972926363225 18.611106951620343 0.27597331132198316
0.8577099135826616 13.076186396289987 7623.524690927017 19.362300097932998 0.2794535413330899
0.8759197971158438 13.076143321855465 6919.457516426065 20.254955028878783 0.4720569837044819
0.8856171310438864 13.066512164905767 6513.28131847438 21.24825682014028 0.7543017152807643
0.8880475002766554 13.04561733258961 6340.0297785031025 22.313594673586877 1.0570153508841138
