M[M_sun], R[km], Lambda[1], P_c[MeV/fm^3], rho_c[fm^-3]
0.23848912294887037 16.21570186450063 2784644.0411725277 3.4469561053153734 0.1694538074003404
0.24847384851571563 15.872929955634152 2285464.057197488 3.6326144260946425 0.1719330887082192
0.2587536784495009 15.569293980702342 1884278.6113694704 3.81711310304092 0.1742192733390464
0.26931858770525896 15.299800185290588 1560430.628906091 4.013190706089929 0.17662322132018163
0.2801637055105774 15.059990819699697 1297509.5611652066 4.217290188695189 0.17905480781809002
0.29130093778410393 14.845787770169093 1082807.764972586 4.424141778767199 0.1813864183334333
0.30271545731524196 14.654143486397302 906960.559301635 4.645989737145449 0.1838870664182853
0.3144163673876717 14.482597585642447 762177.9982078258 4.868469427981641 0.18625348387117907
0.32640421196640573 14.328635848316111 642495.064235421 5.101945018669439 0.18869107527783283
0.3386694622790376 14.190200493794048 534661.8265923848 5.349143240322133 0.1912468372974768
0.3512240105998476 14.06591962360424 460716.5311953906 5.594953542275862 0.19362672228997885
0.3640605555489172 13.953870322573165 391669.6289705383 5.8577981929478184 0.19617153035750803
0.3771752546402618 13.853232406701924 333918.39233973506 6.128306831308507 0.19869661684026102
0.39058087095809785 13.762368581078398 285283.4525492393 6.404569919022663 0.20116034973834943
0.4042669664176167 13.680783139702577 244349.21237275953 6.699728300604315 0.2037925921449125
0.4182330191289949 13.607214327385632 209745.9616398433 6.996447733821208 0.20629284388663882
0.4324921595162493 13.541122752293639 180413.11771899898 7.306200439971272 0.2088466415008945
0.4470341591677313 13.481585200244924 155477.4591437092 7.636880626190853 0.2115729785235646
0.46185625228849625 13.428391265364647 134271.5207208194 7.963010668750656 0.214079419144226
0.47697031631591774 13.38041837628776 116146.04784576774 8.30979241869454 0.21673851287991258
0.49235269807778564 13.337953408484728 100677.64119934668 8.674539558702982 0.2195021581039395
0.5080186832224444 13.29972839433726 87406.37089456726 9.03870185904312 0.22210255701043574
0.5239684198444529 13.265720479871623 76001.1361901279 9.426604852660397 0.22487248272621363
0.5401874909526949 13.23567921566142 66202.42351877941 9.828382324468055 0.22766364868960254
0.5566962969817892 13.209123169172768 57749.67747576225 10.235537022504248 0.23035191756942838
0.573483884405574 13.185725298456122 50449.10454023297 10.66900199112852 0.2332139019485052
0.5905359322501952 13.165360123200617 44136.71426715156 11.112493985984903 0.23603680478374156
0.6078733485163743 13.147602591551326 38666.795251600546 11.567320204639795 0.23883033971605153
0.6254776769768831 13.132280685374939 33918.10383108457 12.051303509946882 0.24180295698079207
0.643333920833314 13.11913215110156 29794.26718235243 12.541355460223468 0.24468405045852945
0.661478897328537 13.108151861160529 26202.45084746521 13.049373003615754 0.24760121719170752
0.6798810158042204 13.098970641896702 23071.30349767365 13.589736001399077 0.2507041198010307
0.6985347914039854 13.091580349685122 20340.956545955956 14.13154948194163 0.25365697558355677
0.7174462030934874 13.085641338035677 17952.832354016522 14.69916547648006 0.25670938145814154
0.7366049181103159 13.081077200709908 15863.691600762862 15.302721615978074 0.2599550586828356
0.7559994554732825 13.077768600737361 14033.527377734079 15.90184323958412 0.2629620712125289
0.775653862477733 13.075550679713775 12426.831652312389 16.536135549547044 0.2661344449549454
0.7955357886692703 13.074494124859891 11016.482021802993 17.206207055154348 0.2694677832692696
0.8156508211513855 13.074240974989891 9776.339184775461 17.873916462214467 0.27259923057318824
0.8359943534612785 13.074829702972405 8683.430178306377 18.582964967561303 0.27592455144921413
0.8565607554112976 13.07603539846031 7721.115678974651 19.324507890294182 0.2793558107657475
0.8773334066061506 13.077989770894327 6871.828973143151 20.071781773695143 0.28265587881427007
0.8983267936513043 13.08027485373691 6121.250792550896 20.865215265992855 0.2861597942791632
0.9194948827078262 13.083079600881202 5458.240155101376 21.68589148967579 0.28970283796205804
0.9408674134798947 13.086252838460808 4871.494141892868 22.52328594335169 0.2931923847023956
0.9624232217116161 13.089688904996105 4351.441558562756 23.41235918019658 0.2968972845879091
0.984134475433152 13.093319156759089 3891.0225487835037 24.320568929918394 0.3005413489318717
1.006039987744435 13.097120074492741 3481.7737280662477 25.259995548763012 0.30421249876176004
1.0280740647668158 13.100918157491636 3118.3234748055665 26.257409513331474 0.3081102551515643
1.0502656860651955 13.104709031906136 2795.2640883639006 27.26362116642561 0.3118726718164061
1.0726074646792498 13.108601993655792 2507.739656742441 28.318937283771096 0.3157772332206087
1.0950565971191741 13.1122998366722 2251.6712895100686 29.43511715027215 0.31989404299181856
1.1176317268153138 13.115794177940431 2023.2181079205207 30.554523998881972 0.3238284725179107
1.1403033870798256 13.11905823123012 1819.5935553624993 31.742336788714297 0.3280033314778947
1.1630540409748038 13.122124973997781 1637.9109187084657 32.97757033165472 0.3322719163870271
1.1858968983063476 13.12476329434826 1475.348185568649 34.23998029494353 0.33649658343311123
1.208810290975027 13.127150349339304 1329.9543178331844 35.57986277676536 0.34098051300526966
1.231743306015887 13.129010796896058 1200.034347885725 36.94741871083673 0.34538904633652406
1.2547376766387806 13.130407063562137 1083.4643312610901 38.3739334571021 0.3499101352282943
1.2777650601389736 13.131395727208115 979.0238718423055 39.88246946835859 0.3546763739494292
1.3007929732582815 13.131762165309935 885.387620673746 41.4047915225898 0.3592911193072333
1.3238143672830807 13.131462887809725 801.2102095059812 43.02036246531653 0.3641885380153374
1.346808529212514 13.13061608896471 725.7005062180367 44.691454208609045 0.3691505186588492
1.3697889935627172 13.12909868697053 657.753843067968 46.41945751901629 0.37417292142847514
1.392701433917367 13.126846445450614 596.6410309829462 48.25419259897894 0.3795055376865786
1.4155459898312535 13.12389580022679 541.6460781788902 50.10813390157084 0.38468276202022905
1.4382820718772718 13.119993117724649 492.0671253827247 52.075206094052014 0.3901738385581034
1.4609464065112068 13.115410982851612 447.3721897678413 54.11111858747634 0.3957275130909203
1.4834852167831292 13.109959959090137 407.04639466578544 56.22522938362704 0.40137716710254784
1.505886523141644 13.103751985580187 370.6709759142425 58.45691662724703 0.4073134512273198
1.5281079919551528 13.09623989307454 337.747070859655 60.73466262250233 0.4131878336613871
1.5501783560695404 13.088072041057641 308.021586913809 63.15380045550089 0.4194268703324455
1.5720476077712449 13.078819429250405 281.1209657601201 65.6362874561611 0.4256617458995302
1.5937116669071387 13.068555969083997 256.75511988440184 68.24947190602455 0.43217843469588774
1.6151257777310428 13.057224187479708 234.7072578584985 70.96727981313238 0.43884401335638606
1.6363105712485977 13.044866658362052 214.71150105490415 73.79750061457968 0.4456752771426143
1.65720789651816 13.031397794260315 196.57199772391579 76.76973404114257 0.45277670653004104
1.6778249602715305 13.016754221424366 180.10794861172903 79.8425865704902 0.4599443588220153
1.6981399392742758 13.001101634798337 165.16923889270745 83.09171209542534 0.46749307292950304
1.7180977152458146 12.983964322490095 151.5587829147678 86.43633344571506 0.47507751472304127
1.737724993928031 12.965771622661174 139.203000071584 89.98686321386914 0.4831187565131917
1.7569738195522908 12.946380584984633 127.95922897210038 93.63675188368235 0.4911772312717374
1.7758394224348102 12.92569484198413 117.71063256032758 97.51724829277157 0.49974155057327196
1.7942845092403228 12.903711757617792 108.38029032389029 101.51043387478937 0.508328461218422
1.8123075796878803 12.880460191920042 99.87745634044678 105.75399274567725 0.5174430683932778
1.8298706795130575 12.85586669836598 92.11358914140416 110.13288133143409 0.5265892130578703
1.846944888971431 12.82992735362656 85.03194192843704 114.81579715558134 0.5602426687417787
1.8610631030322982 12.803259997573864 79.28814831604546 120.00206024561659 0.81245638749301
1.8702135905580066 12.773394486738724 75.03766044422525 125.67333234753448 1.0691598347401283
1.8751813707978602 12.738376793008298 71.76736551753726 132.2242731227066 1.298424304175921
1.87668867921422 12.697961177339346 69.17609341213253 139.4055321971464 1.520447683827726
