M[M_sun], R[km], Lambda[1], P_c[MeV/fm^3], rho_c[fm^-3]
0.23848912294887037 16.21570186450063 2784644.0411725277 3.4469561053153734 0.1694538074003404
0.2485044004827718 15.871887101483384 2284293.3462995174 3.633125965731165 0.17193991980877932
0.2588079071782277 15.567886820784 1882745.7671494954 3.8181177760728895 0.1742315908177862
0.2694014258885239 15.297791884983141 1558102.7919058576 4.014809852145139 0.17664307235278331
0.2802825358325702 15.057476733820165 1294897.4517585358 4.21941268108975 0.17907873234090455
0.29144913048960913 14.84300718126055 1080250.3224297508 4.42698602252319 0.1814184783656881
0.3029044057647725 14.65121875663161 904329.0786555398 4.649652540884353 0.1839283531771171
0.3146346470132594 14.479522240946201 759714.4690880297 4.872665180357756 0.1862972894352054
0.32666453277841523 14.325548146975414 640208.912995478 5.107080265548972 0.188744689591979
0.33896656533226244 14.187174154771462 541148.7715014871 5.354829152631718 0.1913018871357737
0.3515621152247251 14.06273164507096 458694.2129649222 5.601706374345589 0.19369210182684893
0.3644383788936059 13.950873898497626 389861.2619733646 5.865745753694802 0.19624847701270684
0.37759862247833786 13.850178305049605 332226.1338375934 6.136832981271659 0.19877265362219979
0.3910435154414982 13.759499596566444 283788.16238293145 6.414434568562747 0.2012483233500292
0.4047813942077539 13.677774007433312 242949.87697975952 6.711084995275251 0.20389387191596636
0.41879477103028456 13.604445604759016 208486.78535280054 7.0084049598138565 0.2063914268355747
0.433104048834057 13.538463010843808 179263.4283686067 7.319811480475018 0.20895885954475932
0.44769716598675885 13.479117347840317 154456.08530748586 7.6518962330819456 0.21169381942018572
0.4625748743575148 13.425928646958821 133330.3685372198 7.9790841102143055 0.21420266896205475
0.47773559463831816 13.378275320126436 115313.56351322366 8.327885898026413 0.21687725218080123
0.4931760632543545 13.335681491129584 99914.03398219553 8.69331068924682 0.2196361984131486
0.5089045734733119 13.29770873115483 86719.72620517387 9.059689248158241 0.22225242311039775
0.5249090615474539 13.263855135174287 75387.94838983976 9.450038040348723 0.22503981370908452
0.5411926204215245 13.234013303118276 65652.0835713615 9.852529696545197 0.22782308349214234
0.5577591758854681 13.207564237167938 57253.30993671955 10.26235351714376 0.23052897545026121
0.5746104688132192 13.184305835680334 49999.71803247 10.698757361769728 0.23341036397458093
0.5917234900445973 13.163972630514168 43733.68362230001 11.14300141740565 0.23622418091087194
0.6091323430911283 13.14645019892423 38302.869714496 11.601020872391361 0.23903732864664703
0.6267984062702443 13.131228813541506 33590.89172924352 12.088513244789342 0.24203149854203235
0.6447308911573238 13.118241742613982 29499.41259482606 12.579378911027085 0.24490239084304505
0.6629380974969933 13.10736018213992 25936.50754086006 13.09119861559453 0.24784139055864393
0.6814081274175663 13.09836919457285 22832.844722854352 13.635732820220055 0.25096824530504497
0.7001246467706199 13.090927200958793 20125.575442598772 14.178447067186028 0.25390917155069165
0.7191179598858962 13.085103991049166 17757.65697304049 14.750574678075584 0.25698583904648964
0.7383395735949941 13.080755293870846 15689.36954940859 15.357115378717864 0.26023764852060655
0.7578151599118172 13.07756284299442 13876.232096518963 15.959183737237527 0.26324885616368715
0.7775376867595571 13.075458734416966 12284.549893066074 16.598812404676256 0.26644791936783996
0.7975047286698844 13.074483807271678 10814.659447008175 17.27005813703683 0.2697672343419953
0.817693598051807 13.074250121550111 9659.533533297308 17.94353250460949 0.27292571836258034
0.83811890853291 13.074890911860612 8578.105355199443 18.65887717148469 0.2762805672006726
0.8587519334109636 13.076190200776347 7625.562013763945 19.40178435324045 0.2796970746476206
0.8796129088018516 13.078187885492776 6785.432524660272 20.1558582480734 0.2830271725164738
0.9006749663418034 13.080644170352185 6043.5361979282725 20.95671169816212 0.2865638555732384
0.921924030668208 13.08342500851064 5387.89786795826 21.77900629024229 0.2900908611300736
0.9433790748652477 13.08669313043096 4807.726429626742 22.624417032265583 0.2936138129314902
0.965007985595061 13.0901707717163 4293.882626646948 23.522231080530933 0.2973551370730592
0.9867946415347787 13.093796974881723 3838.489962550189 24.432342988454664 0.30097814655688043
1.0087646572850435 13.097537862515736 3434.2180197358334 25.3812141589113 0.30468620439357674
1.0309019990223667 13.10143653291674 3074.860895904578 26.388920321205408 0.30862418127444624
1.0531662014866225 13.105297302398697 2755.968145211457 27.39739973461782 0.3123676387987987
1.0755727929753502 13.10909922554111 2472.0476325853356 28.46384253172611 0.3163133677770056
1.0981031853992598 13.112754135553375 2219.2324709384643 29.582877559610377 0.32041338313879886
1.1207470751261046 13.116264472878193 1993.8553345150706 30.714344097727658 0.3243901993972328
1.1434967927063069 13.119466703008007 1792.77332881737 31.915278262475802 0.3286111766429463
1.166328786243585 13.122481929156637 1613.462816158562 33.15403191834146 0.33286244677878113
1.1892490028741913 13.125194815318986 1453.102693446567 34.43068704210271 0.33713478539096836
1.2122090657668494 13.127403926460344 1309.7444811316889 35.78606615269065 0.3416705745798737
1.2352342392654188 13.129243787097328 1181.5114963665358 37.15791779770597 0.34605618636144414
1.2582887042159847 13.130589863017608 1066.6250220802215 38.60128059600133 0.3506306722062288
1.2813718425107834 13.131470404424816 963.6615172931704 40.115066453377466 0.3553814651315951
1.304457539660401 13.131693751455563 871.3373689905612 41.65575249912914 0.3600518788313143
1.3275457282494092 13.131436267140195 788.4623229464538 43.29128436977371 0.3650098068115466
1.3505919798410397 13.130424105732125 714.0234361444873 44.96891158276513 0.36995694227853904
1.373624671023699 13.128731176894739 647.0540996220208 46.71872331374519 0.3750427307322238
1.3965872746936367 13.126386464415923 586.8901427512972 48.5622434109584 0.38036741302817306
1.4194756562312423 13.123247116563885 532.67243372712 50.43925970054635 0.3856070987643451
1.442279472484288 13.119308362379073 483.87163425152914 52.43230207850688 0.39117067100253744
1.4649868917124966 13.114757180282801 439.92809091663264 54.47803178752921 0.39670803532105703
1.4875253700623963 13.108850887403939 400.1972345031712 56.620670189501666 0.40243392521538596
1.509955536645099 13.102296528790802 364.37271984369596 58.86411136578026 0.4083636199574008
1.5322252523938584 13.094803099216536 331.99397854931186 61.173286181783155 0.4143190583621108
1.5543173148185134 13.086393001101529 302.7368591384025 63.626578128140906 0.4206461796238068
1.576196017060647 13.076925443965767 276.2834765770099 66.12371341343609 0.42687727558592253
1.5978756255529634 13.06645951036709 252.32298626379296 68.77463849404414 0.4334880809478189
1.6193203498248883 13.054898167853226 230.60520710169453 71.50992551448111 0.44015378958532214
1.64052387566188 13.042385414345873 210.9449831947311 74.38198547834057 0.4470860399641463
1.6613851178936072 13.028506316438165 193.12145144776267 77.37488647804277 0.45418826865673456
1.6820070293718472 13.013638392870465 176.93612229571406 80.49426229692696 0.46146443990941133
1.7022929415555044 12.997574990063004 162.23151618449475 83.76776907004427 0.46902613578956903
1.7222506326737956 12.980295914959752 148.87231991333152 87.16428219471783 0.4767282501388791
1.7418408287031784 12.961768546669928 136.72569193431167 90.7435747726197 0.48478947623846025
1.7610684208038765 12.942033074971613 125.66999120426885 94.45153210695628 0.49297615898077113
1.7798952871798752 12.921039932740996 115.6101094907056 98.36584357252828 0.5015663622910096
1.798293866827452 12.898731121762223 106.44375219704823 102.42421788111879 0.5102934541921151
1.8162663976072768 12.875105313526072 98.0862786091968 106.7074256953557 0.5194396791493316
1.833784960171106 12.85012838859532 90.45327194159981 111.16044836773361 0.5287611518257173
1.8508005949321766 12.823811192870258 83.50248198853143 115.85196389985755 0.538505149456365
1.8673424217816863 12.79611689908859 77.13941030497492 120.75049101309925 0.5485297249977774
1.8833648668277394 12.767027702265441 71.33222098137294 125.89536274686246 0.558947707259557
1.8988383897597132 12.736571676283752 66.01959346365638 131.29818963735175 0.5697688522772824
1.9137596553664686 12.70464551568969 61.15760587895689 136.949021397313 0.5809178995438937
1.9280992277750209 12.67128240040606 56.708116101004066 142.92378633225363 0.5926278329126469
1.9418491885821438 12.636446348904476 52.6279799312047 149.14189679569301 0.6045672207455721
1.9549889044045647 12.600189219880424 48.88914340650652 155.72530228423344 0.6171347955766899
1.9674565274013927 12.562385206842086 45.46495848014079 162.62385826411708 0.6301221079834332
1.9793185996351217 12.523170776533904 42.31815665713796 169.88517195645196 0.6436450632775055
1.9904972118088908 12.482473742665938 39.43158526503526 177.56728780757246 0.657848696652991
2.0009790238304803 12.440149362773298 36.776931906123224 185.5996365138865 0.6724334168198259
2.01076880261237 12.396401397210202 34.33661603961103 194.10044872217 0.6877403493674374
2.019834497008884 12.351098481386936 32.09210384452817 203.08878204785523 0.7037707414452448
2.028179006103663 12.304362424485673 30.028439685123082 212.52426846859944 0.7203456611104058
2.035751519263709 12.256049745398316 28.128059899887166 222.51838882495073 0.7377573516995077
2.0425488631086894 12.206152720234225 26.37781388692283 233.10319049576555 0.7560344513449581
2.048625670395613 12.154924210795814 24.76393712224553 244.25989023086004 0.7750172537613924
2.053852598094695 12.102036821354197 23.277765013157506 256.0751824282857 0.7949037813467377
2.0582768310444908 12.047644747197106 21.907733444510328 268.6075772194578 0.8157960490738885
2.061910187455176 11.991871720940676 20.64241812832408 281.9047926265443 0.8377517064169931
2.0646882418752464 11.934500400956935 19.476870194117446 295.9792328931216 0.8606980990629101
2.0666879781545693 11.87586256756984 18.400362710823444 310.9249430001546 0.8847857520864212
2.06780988900811 11.815635661403547 17.406339616837712 326.81736738567616 0.9101282445095591
2.0680905101151437 11.75410037517263 16.48986628581925 343.72710123211965 0.936811916073255
