M[M_sun], R[km], Lambda[1], P_c[MeV/fm^3], rho_c[fm^-3]
0.23848912294887037 16.21570186450063 2784644.0411725277 3.4469561053153734 0.1694538074003404
0.24850746755643505 15.871797331489573 2283959.860419917 3.6331777840799306 0.17194061179103448
0.2588145637535678 15.567632632600457 1882271.5990674638 3.8182195583089005 0.1742328386869817
0.26940900709321774 15.297666353069223 1557899.4291480053 4.01497390375625 0.17664508365613055
0.2802940435274562 15.05724316238974 1294688.3601821803 4.219627750270235 0.17908115657928034
0.2914649343714358 14.842762181580184 1079927.9043886622 4.427274256994245 0.18142172731593
0.3029216005286249 14.651047860902683 904112.7218286446 4.650023769308003 0.1839325376269242
0.3146585551328343 14.47922476159641 759452.712030364 4.873090454200373 0.18630172948763737
0.32669244685324206 14.325061114107163 639886.111180895 5.107600822705193 0.18875012444556236
0.33899993134533135 14.186808099877302 532357.0703112662 5.3554055665162075 0.1913074678569325
0.35159223968918873 14.062357373087764 458487.12104424374 5.602391023883378 0.19369873046343233
0.3644787397093305 13.95052110673077 389688.67623617814 5.866551625014516 0.19625627929375214
0.3776364017968955 13.849901407809844 332080.44799328095 6.137697564401393 0.19878036403301683
0.39109172034006096 13.759185746384048 283622.7228844647 6.4154349939908855 0.20125724521164953
0.4048313645479046 13.6775858989387 242824.67430636496 6.712236871134168 0.20390414442276997
0.41885065914843456 13.60415883555207 208353.1207370621 7.009617793344544 0.20640142620383095
0.43316735822563923 13.538082988991412 179137.14707796564 7.321192222416115 0.20897024325636238
0.4477638030666625 13.478864795522068 154351.10031498095 7.653341623477814 0.21170490255402394
0.46264402816623484 13.425697540105126 131760.40693225834 7.980714887263842 0.21421517362539827
0.47781067592497184 13.378089291706383 115233.43367296082 8.329721841934859 0.21689133004662553
0.4932601434361126 13.335509686413129 99841.80582917776 8.695215440409736 0.21964979980142127
0.5089920180988173 13.297538023908592 86652.71781412039 9.061819140376967 0.22226763217896786
0.5250035658081189 13.263677644846268 75325.04528699892 9.452416432032164 0.22505679725495698
0.541295506984496 13.233811602058186 65588.44832804105 9.854980613960677 0.22783926585488268
0.5578679877242773 13.207376453234604 57203.36342349205 10.26507567553909 0.23054694870154732
0.5747223520105871 13.184155565908052 49955.11817907437 10.70177822280167 0.23343030943202406
0.5918443720189087 13.163864746841845 43694.1854744143 11.146098653611721 0.23624320408319668
0.6092596687122256 13.146313582857346 38264.486096336346 11.60444272238332 0.2390583455913472
0.6269299271337561 13.13110710365387 33280.669268458245 12.092291873761297 0.24205470681718547
0.6448719203673663 13.118184005167983 29469.24191117793 12.583240176087552 0.2449245632150997
0.6630884383388139 13.107255042945576 25908.594597853953 13.095446526506427 0.24786578315011812
0.681565486434553 13.098201514207862 22807.644183264514 13.640404976487924 0.2509950740219153
0.7002870756014494 13.090864205289353 20104.126089555437 14.183210697120078 0.2539347883975299
0.7192824561738522 13.085068274680081 17739.153370552674 14.755797253077487 0.25701392391155625
0.7385156985813306 13.080708601548592 15671.717585379834 15.362444626955021 0.26026430242592563
0.7580019465524908 13.077516203333417 13858.85223187284 15.965009576882629 0.2632779937402072
0.777732871509427 13.07546129116193 12270.306664585616 16.605181267304353 0.2664797728402108
0.7977045799845327 13.07441450600356 10874.596927015164 17.276546240198112 0.26979766247875225
0.8179038160953822 13.074240461241287 9647.275275320855 17.950607339536365 0.27295889817482083
0.8383339772586988 13.074880658745359 8567.501214865679 18.666592911137943 0.276316752750673
0.8589687301632188 13.076248882113395 7616.567740146456 19.409638633441467 0.27973176026919966
0.8798387615966968 13.0781824218551 6776.8023105619695 20.164404831870364 0.2830649154494719
0.9009171772485939 13.080625477047068 6035.44654235629 20.966013833406414 0.28660493512918783
0.9221691118231824 13.0834963328481 5380.998890798467 21.788472784496175 0.2901303094139989
0.9436280735567302 13.086723465049229 4801.300789159807 22.634699930777966 0.293656663292903
0.9652683050077429 13.090204800005319 4287.879363418059 23.533404329103288 0.2974016976550687
0.9870680416437574 13.093833015182998 3833.033283217236 24.443709428381567 0.30102256503850217
1.0090726311035432 13.097820551945789 3429.291796818102 25.393542786283273 0.30473438297120214
1.0311835232092397 13.101460937527284 3070.597267521888 26.40229768207266 0.3086764581581187
1.0534616390130003 13.10533803714477 2751.999443060639 27.41100744516081 0.3124179859322428
1.0758796083454525 13.109127702936574 2468.363366021024 28.47858418815806 0.31636791039394485
1.0984124595722835 13.112770206045843 2215.8114223342636 29.597909355963818 0.3204662160685568
1.1210714688299315 13.116322287481722 1990.8028254491296 30.730605126298396 0.32444735276467274
1.1438190057979984 13.119525677761693 1790.1276573530185 31.932876987708415 0.3286730316729229
1.1666615343373283 13.122545862098535 1610.9976321761687 33.171988464221606 0.3329225385317357
1.1895714779438802 13.125195969795584 1450.8950155135258 34.450096096313885 0.33719973797697933
1.212563896306868 13.127502947793749 1307.7176827372573 35.807055621220876 0.3417408160375563
1.23557658109136 13.129298523026883 1179.7034425001239 37.17934405141726 0.34612409312364195
1.2586445275599552 13.130619537421408 1064.9824269548392 38.6244253844603 0.3507040255636183
1.2817374000603052 13.131443430863207 962.1277473566066 40.138745245122735 0.3554532446830909
1.3048375147460085 13.131824450936607 869.9664801179779 41.681304786125104 0.3601293376695858
1.327921044898127 13.131388920644648 787.1836852671307 43.31887347006481 0.36509344001658395
1.3509781411934336 13.130407585377911 712.8484813065726 44.99716572959641 0.3700390623210437
1.3740135843554475 13.128839761109345 646.0518174852087 46.74920320329074 0.3751313198458843
1.3969794316804105 13.126370119915533 585.9256579746149 48.59353357627174 0.38045475943735674
1.4198739529339264 13.123193484093289 531.802902980688 50.47298959676965 0.38570125567555796
1.4426772466348694 13.119236444510044 483.06792743081377 52.46868350917685 0.39127222966476133
1.4653645121895762 13.114417312809916 439.14784621926754 54.5154130245803 0.39680793124715974
1.4879384822527142 13.108745979230461 399.5225572331841 56.66096465652352 0.4025416063254162
1.510371290078751 13.102135163248557 363.734880734993 58.90560331051201 0.4084706290584134
1.5326380031031468 13.094691572698363 331.42308987192706 61.21798829782675 0.414434346601361
1.5547378452358576 13.086229859295756 302.20627897339455 63.6746186838226 0.4207697893016978
1.5766367627567774 13.076799080455109 275.7838438156044 66.17339787813567 0.4270011773619635
1.5982978249940238 13.066169683284564 251.86177584224126 68.8281794908459 0.43362160003944755
1.6197435422499658 13.054658927090173 230.20382506684248 71.5652487993713 0.44028732261299697
1.6409195235955685 13.04197675582043 210.56874229808093 74.44158509219196 0.44722989470635155
1.6618096947094163 13.028226986674422 192.77268635884258 77.43659423963258 0.4543322065042452
1.6824258681426005 13.01327453315533 176.60925769399722 80.56072629307643 0.46161947202038467
1.7027080491733344 12.997189619343803 161.94281381280274 83.83672090123055 0.4691824946402189
1.7226648182189113 12.97988877497719 148.6004115868864 87.23854043623693 0.47689664208867133
1.7422561276534707 12.961352550997187 136.47763776341026 90.82076901790656 0.48495991099234576
1.7614828127617916 12.941595275473626 125.44205822755384 94.53466597506257 0.49315970764165373
1.7803002114332847 12.92052113578317 115.39612143711737 98.45243042227844 0.5017525578801146
1.7987035006273728 12.8981857784709 106.2423701409988 102.51747448272816 0.5104939923561054
1.816668566036106 12.874557571056654 97.9000546123755 106.80472959309819 0.5196433645313393
1.8341692926918816 12.849562109742791 90.29244569387355 111.26526513747402 0.5289805638357263
1.8511933213750518 12.823209301303223 83.34276986391448 115.96152443729639 0.5387293592766892
1.8677162540748193 12.795502178129931 77.00063501733375 120.86854098813834 0.5487713080012158
1.8837394559058311 12.766406321293108 71.20331201147643 126.01897787392984 0.559195291948738
1.8992002841680982 12.735796637133662 65.9005064438134 131.43142932480424 0.5700357136832211
1.9141075159405216 12.703810747542036 61.046205073732715 137.08878458653768 0.5811918212213232
1.9284490505283216 12.670457767674929 56.60073560158311 143.07449670198034 0.5929232099537015
1.9421617232314794 12.63554198354287 52.53506651838987 149.30025038676249 0.6048709344852891
1.9552990121938143 12.599299316873894 48.80474834729847 155.89200569177248 0.6174486336087782
1.9677771841303906 12.561412591200998 45.38056542122185 162.80367106491784 0.6304606259320503
1.9796018763485639 12.522118793724772 42.242500831977786 170.074778430497 0.6439957172446865
1.9907691787906774 12.481321550374034 39.35849354859894 177.76756772286416 0.6582123544853844
2.0012536047251324 12.439108167191801 36.711562191813066 185.8157881520297 0.672825893699402
2.0110185495696173 12.395213469516852 34.27427773264176 194.3291233565193 0.6881481829350237
2.020067216528546 12.349888248347686 32.03624968611053 203.33577995737878 0.7042112539617028
2.028368774769016 12.303020337803655 29.974312317289275 212.78599327306407 0.7208051327914878
2.0359498087915173 12.254777331975696 28.079671408242763 222.79615360859546 0.7382376109734662
2.0427290561518507 12.204783007754905 26.331849570696395 233.3984120964964 0.7565367623732013
2.0487659631689223 12.15343751214995 24.722102640362603 244.57911486660376 0.7755604052605513
2.053962385849954 12.100476111083605 23.238900140597796 256.4150002319064 0.7954731458485423
2.0583832577228316 12.046092397584067 21.870289027859965 268.9698225448826 0.8163946472172895
2.062012193611284 11.990293173986663 20.609125490630138 282.2914677598585 0.8383821257635096
2.064789368789035 11.932918575443196 19.444777650500452 296.398017614764 0.861380868570962
2.066731371249356 11.874147838481482 18.37045524752002 311.37269186556597 0.8855052209099594
2.0678449152166323 11.813908222357146 17.37800567883515 327.296705263921 0.9108880539434405
2.0680816371397728 11.752206791449318 16.46359871667159 344.24091088067553 0.9376162260243044
