M[M_sun], R[km], Lambda[1], P_c[MeV/fm^3], rho_c[fm^-3]
0.23848912294887037 16.21570186450063 2784644.0411725277 3.4469561053153734 0.1694538074003404
0.2484801126141322 15.872647528765638 2285217.7764192335 3.63270862741166 0.17193434667265342
0.2587646948254346 15.568932072419127 1883885.3372890905 3.81729810256008 0.17422154146765303
0.2693344320030829 15.299406946122154 1559966.257040427 4.013488830054852 0.1766268763755906
0.2801864124879666 15.059440130310584 1296918.273585987 4.217680965856821 0.1790592126193241
0.291327663315537 14.845339777243355 1082370.9874516164 4.424665397253361 0.18139232050884294
0.30274968021401616 14.653704769622296 906510.4485976786 4.64666399481261 0.18389466658353548
0.31445746509089745 14.482025225009 761748.890959679 4.869241750928651 0.18626154727418084
0.32645240763814143 14.328038481792161 642089.8626932033 5.1028901989374 0.1887009433899217
0.33873003940334284 14.18969934961222 542899.686736621 5.350189726109278 0.19125696915850907
0.3512869061019882 14.065233193353876 460307.9527709172 5.596196291457571 0.1936387543329953
0.36413251713633205 13.953322489544215 391360.8851552271 5.859260689081567 0.19618568994550187
0.37725308524626294 13.8526174745015 333586.14786024555 6.129875739656257 0.1987106084710012
0.3906664572458962 13.761845576785676 285014.77364364266 6.406384973858341 0.20117653652011422
0.4043614808387692 13.680250471671373 244102.55684077842 6.701817704916414 0.20381122559386045
0.4183382188901512 13.606742318737023 209516.0295052318 6.998647559932373 0.2063109806472318
0.4326056342322681 13.540579777958799 180195.76284300498 7.3087043104458065 0.20886728499590618
0.4471551124766761 13.481211975062832 155291.77957760415 7.639722116943943 0.21159640557411846
0.46198677357949824 13.427922212254122 134097.94611050596 7.965967193887769 0.21410208953409735
0.4771080025407863 13.380164942648026 116006.46188875908 8.313120213492962 0.2167640301347957
0.4925049927638337 13.33738929697368 100532.40614215621 8.67799192684575 0.2195268106677411
0.508183367324003 13.299336801574418 87276.08813262988 9.042561500686647 0.22213011782027223
0.5241414495370806 13.265364143882248 75889.58231063305 9.430913895374308 0.224903252605333
0.5403739765990838 13.23535143101252 66100.55068682911 9.832822644430692 0.22769296622917556
0.5568913803081867 13.208825525100295 57658.89277037187 10.240467709285696 0.23038447279203705
0.5736898177137001 13.185516579265453 50367.866117989186 10.674472537882028 0.2332500216363389
0.5907586938371333 13.165117545163598 44062.92864786789 11.11810276810273 0.23607125382852223
0.608103868422134 13.147437235313618 38599.46774220485 11.57351549344276 0.23886839107495958
0.6257180156893593 13.132072992716823 33858.61147256276 12.05814323560049 0.24184496645992296
0.6436019992892892 13.118948508480463 29735.83930731309 12.54834475463145 0.2447241847755438
0.6617501948929587 13.10799241123196 26154.844413799896 13.057060471542545 0.24764536059972578
0.6801581931781431 13.098856340512718 23027.2694152916 13.598189314053883 0.2507526608854529
0.6988241544959869 13.091385515622177 20301.326298666656 14.140168367754637 0.2537033244143528
0.7177518043768486 13.085598493215704 17917.927297018035 14.708612603523521 0.2567601842303729
0.7369233014816521 13.081043766767548 15831.872610762892 15.313075963829116 0.2600107401162556
0.7563373607034118 13.077766417694873 14004.785151955077 15.912379363524352 0.2630147669845095
0.7760031875832668 13.075636170305744 12400.90144026488 16.54765107807067 0.26619203915835066
0.795897815139067 13.074560242503406 10993.12767061576 17.217938426971866 0.2695228014736873
0.8160290330303162 13.074245744261408 9754.029189416297 17.88670577541906 0.2726592103487164
0.8363848153895278 13.07478541079997 8664.221400054776 18.59690955721257 0.275989949281274
0.856966647149603 13.07612608184741 7703.220790762835 19.33870325097797 0.2794184995031307
0.8777530960178559 13.077934786735813 6855.937866045421 20.08722471384829 0.2827240770405251
0.8987490386460828 13.080278032713075 6106.649621008588 20.882019349334445 0.2862340035078705
0.9199420434008664 13.083163020493412 5445.416193393387 21.702993034782654 0.28977410263394643
0.9413304703847688 13.086346371605664 4859.6331074842465 22.54185785031189 0.29326977658994674
0.962898816764702 13.089785273004749 4340.971949400745 23.43253413087106 0.29698135659609304
0.9846290350431184 13.093380232618182 3880.99446308341 24.34109348899234 0.30062155608168134
1.0065374231119673 13.097196166970505 3472.9818009844917 25.282252010527184 0.30429947394873097
1.0285903723965912 13.101039204400246 3110.379813541064 26.28155306160362 0.30820460481268125
1.050806749986407 13.10492414336147 2787.970950737063 27.288181483974924 0.3119635424725079
1.0731441056816389 13.108659965664058 2501.146782771717 28.345537447796193 0.3158756510994705
1.0956246358851625 13.112342390462617 2245.519545248809 29.46224186935782 0.31998937946022604
1.1182030709551427 13.115879140170033 2017.9007878192256 30.583859343717958 0.32393157877192735
1.1408944698271173 13.119213094560529 1814.7102342702237 31.774077042436613 0.3281148903731845
1.1636564789550499 13.12210562047991 1633.2532273101829 33.00995716074426 0.33238029922109885
1.18650835024503 13.124906631542876 1471.327166245525 34.27497767632147 0.33661370250544603
1.209439676619751 13.127208465849598 1326.2546573780078 35.6176996524665 0.341107134472582
1.2323786759080928 13.129039299196101 1196.619741765588 36.98604445685238 0.34551146388019466
1.2553931964598113 13.130466394683209 1080.3688639199836 38.41564592720685 0.3500423356038828
1.2784276923641082 13.131379412545126 976.158523025037 39.92514575668716 0.35480574224105
1.30146442148531 13.13175641349547 882.7768017074084 41.45083182692616 0.3594306852289892
1.3245018660396364 13.131483270052575 798.8906081658738 43.07005878926383 0.36433918674278526
1.3475188673854357 13.130631989808471 723.5256151251455 44.74235001367778 0.3692984461719506
1.3704915957310377 13.12913460896505 655.7967578010677 46.47434717959659 0.37433245699282386
1.3934040739825357 13.126751835440883 594.8607532428077 48.31136821421605 0.37966709561632
1.4162596984033626 13.123742811809189 539.97657651027 50.16886032866084 0.3848522796720455
1.4390313375272412 13.119958405789752 490.5350587783355 52.140687139767714 0.3903566287145498
1.4616816603374319 13.115304938900962 446.01261684521194 54.17840034192897 0.39590731380649524
1.48424345550558 13.109926247225419 405.81655800140504 56.297733189039484 0.4015709229907693
1.5066266496744691 13.10338089485342 369.4885507517192 58.53157580361338 0.407505999718285
1.5288793990288578 13.09608741436238 336.6783079567478 60.81507403139642 0.41339521735074053
1.550939513396061 13.08772365409786 307.03756778938254 63.24046190869374 0.4196503730932482
1.5728152669158395 13.078441643746508 280.2040316357799 65.72563406219618 0.4258845560523198
1.5944750930077802 13.068188083264202 255.9339157549081 68.34572373814872 0.4324184649149812
1.6158958521929563 13.056802441615279 233.94839245880794 71.06673481736965 0.43908406648879816
1.6370796761889723 13.04437282233905 214.00736498989485 73.90460941859811 0.445933804142947
1.6579737915564956 13.03083108061544 195.9239279767665 76.88062933361924 0.4530353778752157
1.678595758218548 13.016163412357562 179.51231847674615 79.96199102153761 0.46022287839919906
1.6988976687216304 13.000380920215148 164.61426568333187 83.21558223651236 0.46777396746931416
1.718864620938138 12.983305661101921 151.06525285145054 86.56969286713148 0.4753799276611352
1.738480780109737 12.965088941839728 138.7361852528131 90.12548941637456 0.4834248249593342
1.7577257767393857 12.945531690698218 127.5290891064107 93.785994827145 0.49150674008737105
1.7765856296316915 12.924840454875152 117.31743788531409 97.67268145458145 0.5000757926575279
1.7950254750733141 12.90278648949234 108.0219514060489 101.67778309035367 0.5086883274783468
1.8130332288196187 12.879475078573373 99.54339348437927 105.92862118931116 0.5178094146172484
1.830578292204035 12.85472988953137 91.80648932904865 110.32165148618677 0.527005305788625
1.847687608754456 12.82884639069931 84.7440007054063 114.97523884223345 0.5367109781950803
1.8642697536282127 12.801433616942225 78.29229604915379 119.80599254220834 0.5465968590461733
1.880353016767869 12.772689455640537 72.39856409500439 124.90638323820417 0.556966912594159
1.895901540024799 12.742511703568582 67.00565769892656 130.23239505650915 0.5676342072197652
1.9108995806417808 12.710945519320694 62.07122663790256 135.83110309653506 0.5787268930429913
1.9253236583353441 12.677949206825337 57.55067007773802 141.71852113357332 0.5902656353497457
1.9391595207557013 12.643514292435794 53.41405101507955 147.8755817011592 0.6021384959504887
1.9523807978020038 12.607562340529553 49.61808469492539 154.39230305975107 0.6146252736685135
1.9649846214858893 12.570219251444511 46.13655543531731 161.18629894855812 0.627415739869754
1.9769467314821692 12.531370381485697 42.94193963296323 168.36942521041576 0.6408418751879833
1.9882337880623095 12.490978612948583 40.0074290255054 175.93383068112448 0.6548313172733832
1.998841991236214 12.449092556177204 37.3120220042885 183.87215126591082 0.6692967391362169
2.00875926514174 12.405806880680675 34.83545386785046 192.273038634093 0.6844812245511489
2.0179369952607966 12.360861945203096 32.555474361278925 201.11533515178945 0.7002511648627581
2.0264354546298544 12.314593054943373 30.459728861682333 210.43335638797288 0.7166749548101554
2.0341665078927207 12.266680397477417 28.528045096564078 220.2995594242667 0.7339209640083555
2.041150482172313 12.217386309376002 26.750348073351272 230.71983616732464 0.7519377711694392
2.047349626886571 12.166522668264758 25.113320538916955 241.71067937952128 0.7706798451138714
2.052753523915334 12.114107649412306 23.60193407275447 253.36183881030956 0.7903575759366224
2.057353651610641 12.060186226542791 22.20946075072613 265.71551314966484 0.8110170110538819
2.0611640300226113 12.004826507616661 20.924555836424165 278.7854615178531 0.8326146585000417
2.064134400304524 11.94795205668119 19.7384582199278 292.63694691710384 0.8552489724981563
2.0663014768878463 11.889659541211948 18.643613416928034 307.3519943352581 0.8790445311228939
2.0676227380525622 11.82995475483651 17.633491138727567 322.99290289454893 0.9040659983742376
2.068090461329933 11.768812549568096 16.701082291171584 339.6282249978679 0.9303955964253181
