M[M_sun], R[km], Lambda[1], P_c[MeV/fm^3], rho_c[fm^-3]
0.23848912294887037 16.21570186450063 2784644.0411725277 3.4469561053153734 0.1694538074003404
0.2484862743612368 15.872484609093148 2284830.714627989 3.632828305422552 0.1719359448528703
0.2587764399380599 15.56860456987655 1883482.1943812463 3.817533143924389 0.1742244231186138
0.2693545057385687 15.298925573684691 1559411.2231626404 4.01386761134622 0.17663152030486412
0.2802140516172838 15.058884877727035 1270225.0901844879 4.218177483936916 0.17906480932165644
0.2913635771518801 14.844597778566332 1060979.7446137094 4.425330729746437 0.18139982007042
0.3027943205163265 14.652953968627621 905832.8048989419 4.64752077232185 0.1839043240942617
0.3145062788941744 14.481381396163806 761153.8748075118 4.87022316654955 0.18627179369984279
0.32651565145761857 14.327202255869112 641520.9220155725 5.104091320602139 0.18871348364665555
0.3387943366031854 14.188882545929744 542384.9978990192 5.3515196169875505 0.1912698448895818
0.35136939689298413 14.064513619938452 459849.1307105471 5.597775663394866 0.1936540454885786
0.364220489089048 13.952580890764606 390922.7206274091 5.861119411085625 0.19620368571121033
0.37735116758328013 13.851894463525863 333232.70012964105 6.131869741786603 0.19872839111684087
0.39077552487111394 13.761179363659444 284665.9538445957 6.408691914920715 0.20119710997651172
0.40447937744944257 13.67955130062511 243777.26264782474 6.70447346274207 0.20383490982174104
0.41846691673143677 13.606088453971172 209212.4683157214 7.001443712084697 0.20633403389762775
0.4327468989033071 13.540033558476372 179930.89187621677 7.311887067223656 0.20889352565984437
0.44731086394477915 13.480573929403633 155043.3255254586 7.643334198271427 0.21162618586172685
0.46215527408175316 13.427281095365322 133874.39358015422 7.969725547700065 0.21413090827983697
0.47728616846730315 13.37950338859854 115803.05009554075 8.317350718503732 0.21679646929681837
0.4926986104504961 13.337001812029389 100357.7994134822 8.682380837686777 0.21955815086671573
0.5083908760105827 13.298881145830077 87118.95623226256 9.047468388754451 0.2221651567750292
0.5243597421227021 13.264944842054724 75747.82560119167 9.436392374455673 0.22494237315954504
0.5406111230441957 13.234967481238051 65970.85649130332 9.838468061759256 0.2277302405128599
0.5571415264311579 13.208398463588864 57537.537696361855 10.24673686649518 0.23042586536422222
0.5739530594993054 13.185155600716344 50262.03054009266 10.681428432230227 0.23329594844105908
0.5910363815620568 13.164763217326573 43966.226456854434 11.125234451620697 0.23611505650791162
0.6083886455185954 13.14710150044161 38514.789595857954 11.581393302720432 0.23891677644612913
0.6260285619989621 13.131865103245339 33781.29434033848 12.066840918027003 0.24189838747808778
0.6439216795804249 13.11879382688969 29668.765332713243 12.557232638092115 0.2447752212767376
0.6620872762049866 13.107824137411233 26091.39727085881 13.066836652099648 0.2477014979301579
0.6805159499614565 13.098725907626019 22971.215717291456 13.608939952664306 0.2508143938033858
0.6992019153194925 13.09127693335087 20250.261357634994 14.151129557190963 0.2537622691927766
0.7181431219388122 13.085430177311581 17871.561330807814 14.720627711525378 0.25682479655032425
0.7373324854365583 13.08089488770523 15789.650739440372 15.326245564403758 0.260081560823471
0.7567666738976185 13.077665459171284 13966.421247965849 15.92578011022877 0.263081789990001
0.7764445003417498 13.075610236122555 12367.541059219868 16.56229825311089 0.2662652960980429
0.7963716254774874 13.074620984486918 10962.67274998202 17.232860075913845 0.269592781553128
0.8165091032818663 13.074312290873536 9727.030815424678 17.902973884052635 0.2727355051026645
0.8368854312650721 13.074846298174384 8639.171772601869 18.614648101103683 0.276073140134744
0.8574837816046565 13.076191816436262 7681.108441749178 19.356760686391038 0.2794982437133441
0.8782874906481551 13.078011383859842 6835.458750864874 20.106870164015874 0.282810834150384
0.8993067479850311 13.080469340485612 6088.919786471292 20.90339748151227 0.2863284123886092
0.9205128236837608 13.08328411783816 5428.947720543542 21.724749444424674 0.2898647648159259
0.9419143561549408 13.08643977259099 4844.797559215585 22.565486086496453 0.2933682389504219
0.9635062451019472 13.089861928776674 4327.225974327655 23.458203240281673 0.29708832357763676
0.9852457568816657 13.093527117887358 3868.8919064202455 24.3672071996554 0.3007236048660519
1.0071733516821393 13.09727762618437 3461.760689071978 25.310570781448725 0.30441013980486686
1.0292533626578708 13.101111156696655 3100.1488843449333 26.312274638306096 0.3083246605028467
1.0514758487088387 13.105032435594298 2778.9110229064995 27.31943309416263 0.3120791702251334
1.0738440946319099 13.108791371060574 2492.682868579605 28.379386529622586 0.3160008892307704
1.096331770680925 13.112453153493178 2238.028016572075 29.49675817162466 0.32011069545801435
1.118930266403736 13.115958097158208 2010.9224192944862 30.621190757083415 0.3240627891671275
1.141639558901776 13.119261732873701 1808.3751440286328 31.814471191453936 0.3282568655029351
1.1644249233037973 13.122265414630865 1627.5828888614724 33.05117383167289 0.3325182312055454
1.187289444627891 13.124944159711417 1466.0916604687789 34.31951918912455 0.33676276110510384
1.210228299027633 13.127267660854455 1315.5817124958285 35.66585785220467 0.34126829634974476
1.2332031857510026 13.129095777141394 1192.195698808565 37.035206303585035 0.34566727375159195
1.2562333458712576 13.130557911729221 1076.3845733875926 38.468739616874856 0.35021060676351123
1.2792619443021365 13.1313873045351 972.6197377910463 39.979465848478355 0.35497040739237734
1.3023198635311306 13.131735269536911 879.4802189758917 41.50943726180672 0.3596083409082231
1.3253790863177233 13.131502483259442 795.8767520672075 43.13332189011729 0.3645309616042033
1.348398067414963 13.13057222016183 720.7753138457724 44.80713962096188 0.36948675570880557
1.3713940697116396 13.128990002575613 653.2651756861319 46.54422520327589 0.3745355558975246
1.3943222379586686 13.126647901190772 592.5391965512136 48.3831050793005 0.3798673488750827
1.4171908618798048 13.123619158672456 537.8786560760789 50.24617336218687 0.38506809878945736
1.4399653460549904 13.11978111642481 488.6310431385315 52.22405875687334 0.39058936035112274
1.4626334371763234 13.115050699551773 444.2283896554366 54.26406431652585 0.39613623833524486
1.4851789474398354 13.109545131523722 404.17233174568815 56.39005188139519 0.40181763128607967
1.5075884796443477 13.103071133451907 367.9879823327747 58.62663872496896 0.4077511701440066
1.529842594240031 13.095717730520795 335.33604889080993 60.91746788829906 0.4136592945022746
1.551912560614258 13.087391936139314 305.80095483567 63.350821776990465 0.41993499485225855
1.573791841833455 13.078028041487865 279.0792785391354 65.83941331031075 0.4261682956679772
1.5954527346013179 13.067812822237185 254.91918457956388 68.46830479945406 0.43272415425462807
1.6168846703608974 13.056271397564972 232.9827105646106 71.19339550720187 0.4393897855984687
1.638056988910972 13.043770539710087 213.12414140224428 74.04102695419795 0.4462630732127924
1.6589556095556879 13.030167589547467 195.12040649240348 77.02187006712259 0.45336483217136125
1.6795717580774085 13.015502875044882 178.77649845192207 80.11407998115718 0.4605776369727361
1.6998598559049085 12.999522613239595 163.93288579538276 83.37336032166755 0.4681317534719215
1.719828257675014 12.982402874476808 150.43286160754172 86.73956988208822 0.4757651498423809
1.7394484233468197 12.964135570459726 138.16076533102876 90.30207705411604 0.4838147072681236
1.7586930713099487 12.944668814902428 127.00219719726262 93.97612027657833 0.49192651210614174
1.7775504871030794 12.923786360689306 116.82817687141298 97.8706952117392 0.5005015996740816
1.7959703504825582 12.901664317732815 107.56601955555257 101.89099305913443 0.5091468122927818
1.8139689053616763 12.878214648637112 99.11995163865019 106.15107258899249 0.5182750701497961
1.8315147234450062 12.853491839096844 91.41401402601677 110.56121328607544 0.5275067783694453
1.8486004224016546 12.82753325031236 84.38445837471623 115.22562684393083 0.5372233839406549
1.8651658504627258 12.799990321872217 77.95896399780375 120.07570706141041 0.5471488154832517
1.8812128566593476 12.771046545194105 72.08738126009105 125.18879178647528 0.5575325394256361
1.8967646710446808 12.74093586739809 66.71998797793279 130.53670478204023 0.5682436992018373
1.911722929047965 12.70923406382965 61.81057546614514 136.15028479991784 0.5793524568132544
1.9261116464337422 12.676015559640172 57.30859797935301 142.0626024040763 0.5909399997464877
1.9399307381663156 12.641514891084826 53.18597243919848 148.23707803916417 0.6028318266414315
1.9531347568104511 12.605447279873275 49.40721645159153 154.77281992747086 0.6153416397386771
1.9656985147136508 12.567932658809896 45.94292204211659 161.59661518635966 0.628188206626772
1.9776308673370522 12.529030911732876 42.76333561198049 168.80203805513275 0.6416419396953664
1.988878754874414 12.488494450079036 39.83952911294248 176.4006310516877 0.6556946074254942
1.9994657691602276 12.44657286427307 37.15793035019855 184.36511185995778 0.6701918312917405
2.0093367389100254 12.403089705783584 34.691419544523974 192.7944852074596 0.6854112070869331
2.0185062657891937 12.358151118070102 32.422436697559704 201.67838205267398 0.7012553401923023
2.0269334633894265 12.311672346905864 30.33678916592129 211.0298813450726 0.7177221857954135
2.0346290220632457 12.263658133929606 28.41332384833819 220.93253746088484 0.7350153920647455
2.0415272953105306 12.21407238158699 26.64345475209278 231.40396598230998 0.7531206413804391
2.047695024158748 12.163129509493553 25.012557344916324 242.43776071907206 0.7719169530164847
2.0530394518860318 12.110536711942002 23.50934797345711 254.13567627536597 0.7916541400897514
2.057639059942905 12.056616213372727 22.121993752615246 266.54025637932284 0.8123798713350378
2.0613801547021295 12.001089497910282 20.84208488218923 279.67812886047574 0.8340897610796042
2.0642906091140447 11.944096410010582 19.6631562128891 293.58986902155885 0.8568025777823199
2.0663982120391786 11.885684386946508 18.57461274892572 308.3705904806934 0.8806812704359988
2.067665006995848 11.825812914883608 17.56901715192085 324.0831011661442 0.905794096588784
2.0680942492472623 11.76461235827823 16.64047710591928 340.7965331068382 0.9322244484925722
