M[M_sun], R[km], Lambda[1], P_c[MeV/fm^3], rho_c[fm^-3]
0.23848912294887037 16.21570186450063 2784644.0411725277 3.4469561053153734 0.1694538074003404
0.24847681015813325 15.872813142416835 2285506.3381777727 3.6326556636753105 0.1719336393948919
0.25875805171410066 15.569158062899268 1884197.0426719498 3.817194087700991 0.17422026622608222
0.2693255075059345 15.29974776967819 1560296.7571140223 4.0133212103269305 0.17662482132646584
0.2801735325800824 15.059748471966804 1297216.5890313655 4.2174612506244795 0.17905673601111466
0.29131303818807813 14.845585047681524 1082739.5277355204 4.424370989387943 0.18138900197271482
0.3027288774385955 14.653962512370827 906708.9231857073 4.646284886000937 0.18389039330677967
0.31443360501089246 14.482344341636777 761998.4979284743 4.868807501544602 0.18625701351301213
0.32642938900868396 14.328353291197997 642318.6069393312 5.102358753782458 0.18869539486067727
0.3386945294407524 14.189828656472985 543088.5988252437 5.349601317350012 0.19125127230542965
0.3512532575522545 14.065590321408122 460507.4041614563 5.595497523791848 0.19363198900758916
0.36409166590945513 13.953759099071716 391552.4427268916 5.8584383561887 0.1961777282868772
0.37720935318694127 13.852875633009864 333776.80412127223 6.12899357000051 0.19870274122235593
0.39061712769014884 13.762163530593131 285182.5842953459 6.40536439187483 0.20116743490097003
0.40430821482788293 13.680552262696263 244231.93332051183 6.700642849721758 0.20380074815578678
0.4182766101098614 13.60701381768306 209651.5162333881 6.997410611901906 0.2063007824637569
0.43254181370314365 13.540856493656293 180308.15760078715 7.30729638826729 0.20885567719320047
0.44708574845848087 13.481436915052129 155402.802964405 7.638124337491305 0.21158323246772345
0.4619159608103208 13.42812065219721 134191.18155175875 7.964304726677181 0.2140893418732237
0.4770298506560111 13.380460250319164 116096.36809652508 8.311248963434917 0.2167496815443406
0.49242040755196115 13.337646094807383 100605.97775785676 8.676050624603043 0.2195129482766468
0.5080909199594792 13.299487946958275 87347.60757026194 9.040391165558345 0.22211461995822254
0.5240449150093799 13.265589146913523 75952.59835832677 9.428490833646118 0.22488595008098472
0.5402731747550167 13.235542675565277 66160.47603453932 9.830325759999182 0.22767648036582652
0.5567814277290365 13.208978702631589 57711.3015826772 10.23769505681547 0.23036616614990268
0.5735763911477565 13.185648641548292 50412.38992678183 10.671396280229494 0.23322971041862847
0.5906346359962228 13.165202085172625 44104.37503522444 11.114948774680549 0.2360518820543374
0.6079749837844558 13.147502066199273 38634.5420511842 11.570031657428292 0.2388469934131589
0.6255841092021015 13.132193525819579 33891.963244090846 12.054296973555608 0.24182134278358133
0.6434512214237333 13.119119133424238 29769.86409846873 12.544414383594022 0.2447016155792856
0.6616003881554927 13.108123966731737 26181.362542189527 13.052737448432612 0.24762053669478967
0.6800010873096076 13.09891504675581 23052.425353084604 13.593435575387211 0.2507253637015721
0.6986629067171591 13.091518795760967 20323.18968891885 14.135321520331642 0.2536772600580106
0.7175811706644207 13.085593951282155 17937.26157406824 14.703299942643055 0.25673161492042174
0.7367436689305449 13.081027699505315 15849.280655591961 15.307253064043845 0.25997942695087145
0.756146078828344 13.077758109823751 14021.42553403722 15.906454244170469 0.2629851328666687
0.7758066929981484 13.075621830305554 12415.678443836952 16.541175115622337 0.2661596500328556
0.795693572238236 13.074503983563412 11006.426310355318 17.21134108699713 0.2694918610342409
0.8158162781002093 13.074229752696223 9766.603630557041 17.879513414156975 0.27262547935729287
0.8361687368573923 13.074797074902408 8675.052287936567 18.58906742206031 0.275953170957171
0.8567357419392928 13.076062445057925 7665.389610171241 19.33072009680623 0.2793832447557164
0.8775161994224194 13.077927859097706 6864.825248050373 20.07853986266341 0.2826857234990217
0.8985125748273978 13.080359856239005 6115.219295707125 20.87256891783184 0.2861922690544937
0.9196899290270041 13.08317318322325 5452.846619759739 21.693375327094245 0.2897340242212387
0.9410705885776475 13.086310588651175 4866.338481528804 22.531413122183743 0.2932262518605515
0.9626321333347552 13.089707296224098 4346.960954002342 23.421187742284914 0.2969340745139971
0.9843508085976609 13.093381326908018 3886.844631639759 24.32955049898251 0.30057644766665353
1.0062519221580821 13.097113732425576 3477.7564584807888 25.269734869666603 0.3042505586863579
1.0283000803499414 13.100947480471987 3114.8394186395262 26.26797446890432 0.3081515415427268
1.050517372492701 13.105010361573555 2792.189457093739 27.27436852014288 0.31191243592294443
1.072850152098822 13.108620682195854 2504.736010249977 28.33057709394991 0.31582029932452715
1.095322585326065 13.112512067436954 2249.107497141735 29.446986521558102 0.31993576080415964
1.1178769827020048 13.11582319863277 2020.891121291655 30.56736052965964 0.32387358964915475
1.1405581413818022 13.119099206655019 1817.4606177733936 31.756225460455028 0.32805214661623583
1.1633209541970102 13.122124880140074 1635.9183743893236 32.99174195619196 0.3323193418644179
1.1861633000474237 13.124803598792374 1473.5525742874083 34.25529401081412 0.3365478309300995
1.209086336755677 13.127166841995072 1328.343291024418 35.59641872170898 0.34103591763376123
1.2320203019541363 13.128992322005725 1198.5229764589067 36.96431987009781 0.34544261160361533
1.2550254447514848 13.130448963593727 1082.1313435762977 38.39218498223557 0.34996798024374526
1.2780551897948391 13.131361610669648 977.8040369231031 39.90114275105046 0.35473297987218894
1.301085839076297 13.131745895733397 884.2282020517503 41.42493645504986 0.35935218636810584
1.3241210647909134 13.131590451898678 800.2304977876405 43.04210676037255 0.36425445336116685
1.3471178324458581 13.130606165263808 724.7628899385361 44.71372336484927 0.3692152434607663
1.3700920498613955 13.129101090042074 656.8981570820505 46.44347379721252 0.3742427242010754
1.393007756151959 13.126808449849994 595.8704044035962 48.279673441517076 0.37957861974674806
1.4158525219886757 13.12380609884944 540.9121785455056 50.134703605867614 0.3847569312756534
1.438620900077698 13.120003538932965 491.3735355639428 52.103855640770966 0.39025381368784723
1.4612660772090458 13.115349814779233 446.7623614336234 54.14055601663299 0.39580618034432524
1.4838144709921848 13.109927098358 406.4995854388821 56.25695108390222 0.40146193873870883
1.5062199645833088 13.103669999130481 370.14759412716404 58.489581356969175 0.4073976946481811
1.5284334061081948 13.0961475240225 337.28352074607926 60.76984349018425 0.4132785662854621
1.5505162227641032 13.087929053537083 307.5863893080482 63.19171515930832 0.419524653610521
1.5723929842270483 13.078696546951162 280.71528863555056 65.67537692883867 0.42575922617064804
1.5940562330685566 13.068434580866192 256.4026900158878 68.29158173561986 0.4322834470515041
1.615465915961769 13.057056589529624 234.37085763212346 71.01079099827652 0.4389490356865234
1.6366434518901096 13.04468150433236 214.3987021739275 73.84435951124027 0.4457883797965332
1.6575449884976443 13.031148373321543 196.29265993468695 76.81824943350368 0.45288987221564814
1.6781642478562364 13.01650881530045 179.8480621091142 79.89482371713834 0.46006620577051766
1.6984561094268995 13.00068435246844 164.92009058297538 83.14590280662298 0.4676159586770312
1.7184300972487005 12.983672862528934 151.34405739529478 86.49467450060655 0.47520981201133067
1.7380499264102756 12.965467525638086 139.00362635891463 90.04750819964244 0.4832526526758687
1.7573000677091053 12.94604561857508 127.77235974750855 93.70204021728215 0.491321379336497
1.776175326134966 12.925302900909687 117.54769595152185 97.58524441780406 0.4998877688338256
1.7946206068747326 12.903315120336782 108.22101370078056 101.58364148070743 0.5084858862009709
1.812626607580206 12.880046099430999 99.72928497640491 105.83040024832303 0.5176038095967869
1.830192580462649 12.855405243156254 91.97874255807102 110.2158821016548 0.5267838996785622
1.8472793131176066 12.829423434873464 84.89902120287462 114.86469112832987 0.5364847481705569
1.8638772342604266 12.802143778970287 78.4448756965475 119.68691951184934 0.5463531824143645
1.879980071455305 12.773435300461307 72.53591561671524 124.7817081486186 0.5567172049407677
1.8955252712108457 12.743293260428402 67.13426168326924 130.09805985658969 0.5673651516477882
1.910534452279723 12.711742598690877 62.18791404680987 135.69020547354228 0.5784507479904198
1.924971633009474 12.678817144156111 57.661450681224146 141.56664199850363 0.5899679676471439
1.9388216714552062 12.64435595422387 53.510017598774965 147.71601892818887 0.6018324630643941
1.9520617719282076 12.608506539458217 49.7095988442744 154.22434875674998 0.6143090806841423
1.9646585893090038 12.571197659042667 46.224302599659964 161.00520396432057 0.6270748080657003
1.9766384434520703 12.532341270550914 43.02204161393485 168.1784946327215 0.6404887724531645
1.9879426328769805 12.492119685900668 40.083666066775095 175.7278261011551 0.6544503370163137
1.9985699925319484 12.45026089654867 37.38188915145968 183.65460830800671 0.668901735970729
2.0085279785498202 12.407037977049288 34.89847708441855 192.04293220308745 0.6840708374220797
2.0177167287711013 12.362159863235668 32.61581714002007 200.86688918796898 0.6998080697898584
2.0262252309734325 12.315914919093226 30.515717686284447 210.17014733480616 0.7162128774522913
2.0339461726570005 12.267990580620914 28.58005075847991 220.02027634898795 0.7334380795864995
2.0409319134410375 12.21868420875581 26.79979411211764 230.41800673771127 0.7514159037792562
2.0471547557110057 12.167864919185991 25.157901444094122 241.3899132685657 0.7701340708391543
2.052584506151451 12.115561481137048 23.64362525192462 253.0204599669627 0.7897855959138047
2.0572369145531226 12.061738582256291 22.247599705337162 265.3516936859265 0.8104158117001801
2.061055012786092 12.006416528063589 20.959986444079817 278.39171023807955 0.8319639978331088
2.0640646157308598 11.949670220991823 19.772473816526166 292.2166380347809 0.8545637180607737
2.0662374522991716 11.891415679552402 18.676019876264178 306.9027413622098 0.8783226454120433
2.0675962565514165 11.831782661462388 17.662802949163915 322.5120955230863 0.9033038596130475
2.0681121662508453 11.770725722731848 16.72737123002789 339.1129979711517 0.9295890677316625
