M[M_sun], R[km], Lambda[1], P_c[MeV/fm^3], rho_c[fm^-3]
0.23848912294887037 16.21570186450063 2784644.0411725277 3.4469561053153734 0.1694538074003404
0.24848429397737198 15.872432014613551 2285017.969231647 3.6327757914767456 0.1719352435816119
0.25877089835255807 15.568789960267432 1883742.3803392432 3.817430008060436 0.1742231586536873
0.26934604466029227 15.29908084408653 1559520.7285588675 4.01370140042253 0.17662948252794194
0.28019724200054935 15.059364818697615 1296547.1363321734 4.217959607337373 0.17906235343833274
0.2913490394616758 14.84481847487051 1081958.4428999012 4.42503877209174 0.181396529152823
0.30277611287367634 14.653201848263723 906085.5777278706 4.6471448007844085 0.18390008618054846
0.3144852688444527 14.48164068165514 761432.1276867738 4.869792497558956 0.18626729731961095
0.32648895151656776 14.327605408371788 641768.6626744568 5.103564232283545 0.1887079806047651
0.3387685963167341 14.189320940324784 542622.5239299417 5.350936016510091 0.19126419458930194
0.3513283967949495 14.064934088383907 460098.3851744669 5.597082573157112 0.1936473351308671
0.36418143558121874 13.952941324920685 391110.25452429167 5.860303720024769 0.19619578835744275
0.3773071834934092 13.852253933315104 333393.20233064453 6.130994678433023 0.19872058724267885
0.39072670707708057 13.76145300322802 284832.9062651048 6.407679505328058 0.2011880812393018
0.4044293776867542 13.679799708615684 243905.58304645668 6.703307957417942 0.20382451576644503
0.4184087487557252 13.60639973447961 206752.4891726072 7.000216587600322 0.20632391670569247
0.43268420110962513 13.540272620214386 180046.3821403308 7.310490257385525 0.2088820094743152
0.44724267422396596 13.480844797979568 155157.94662236553 7.6417489491053505 0.21161311606295527
0.4620837885313597 13.427549147119056 133973.6807344458 7.968076097578793 0.214118260432926
0.47720571807256107 13.379777745520357 115889.10387126038 8.315494026403167 0.21678223233557542
0.49261562378481494 13.337172720041975 100434.67649408276 8.680454618586152 0.21954439618085653
0.5082971492416609 13.299090773413099 87185.18327234634 9.045314807788639 0.22214977855058554
0.5242652893945078 13.265111015490898 75810.02885454033 9.43398789343506 0.22492520331573954
0.5405077321472821 13.235207536064653 66031.37386014035 9.835990307637891 0.2277138809587925
0.5570316286263189 13.208616881609833 57592.07651813424 10.243985315392337 0.23040769804542005
0.5738447066031865 13.185231795877842 50303.87053034127 10.678375424980247 0.23327579073584387
0.5909137265666516 13.1648734703264 44009.202218010076 11.122104286025646 0.23609583108383744
0.6082588772812647 13.147169645967505 38552.655340652935 11.577935604206449 0.23889553932041377
0.6258950333516045 13.131967029130935 33815.79901691276 12.063023306016268 0.24187493976977067
0.6437815143398102 13.118885317728889 29699.993419395145 12.553331542058821 0.24475282018504446
0.661943241362718 13.107956641635798 26117.89096531403 13.062545597304549 0.24767685759546607
0.6803606670725926 13.098758889486689 22996.144511571438 13.604221106283033 0.25078729697993657
0.6990424114371293 13.091405879278067 20272.450529772654 14.146318295083438 0.25373639619965715
0.7179739513967164 13.085466406360842 17891.570947884597 14.71535376500623 0.25679643543032027
0.7371500269657637 13.080943144561036 15808.977444268932 15.320464769899216 0.26005047408300697
0.7565775859577719 13.07772837838818 13983.657617549889 15.919897861490712 0.2630523702868927
0.7762482316007306 13.075582642294835 12381.784659341964 16.555868783840964 0.26623313950530286
0.7961552746092433 13.07447375880176 10976.015091511183 17.22631013396521 0.26956206340262867
0.8162997675611442 13.074248665792517 9739.148952127953 17.895832793364878 0.27270201456180226
0.8366674541206452 13.074857002661021 8650.247797777523 18.60686141835209 0.27603662187328004
0.8572576288660664 13.076112185631166 7690.636808233736 19.348834034768696 0.2794632384892466
0.8780524081237019 13.07802120882301 6844.445088787975 20.098246283986487 0.28277274986619927
0.8990555937326004 13.080357266659243 6096.868523371168 20.894012840155717 0.2862869684739006
0.9202652501973875 13.083295130098412 5436.3909675821 21.715198766687124 0.2898249657269532
0.9416607069232954 13.086355995042364 4851.204787132024 22.55511353819588 0.293325015005061
0.9632373252021663 13.089874758252293 4333.343395619856 23.446934578427093 0.2970413653943457
0.9849746579982669 13.093402605115596 3874.284258152675 24.35574338874552 0.3006788058720406
1.0068957462828052 13.09726192010977 3466.66707005248 25.298138746769588 0.3043615571257284
1.0289637792656803 13.101095812834526 3104.7076658707265 26.298787528641938 0.3082719547359927
1.0511852426853647 13.104980669874948 2782.8150122144007 27.305713333470713 0.31202840851762975
1.0735481175506842 13.10875606283278 2496.3425235750783 28.364526194102194 0.31594590751337526
1.0960143741765287 13.112423590168099 2241.3168362913843 29.481604953754463 0.3200574357625981
1.1186134015533313 13.115969022183846 2013.9210084592235 30.604801372691256 0.32400518466171724
1.1413172192545649 13.119258794147077 1811.0600170159557 31.796736874373874 0.3281945339022025
1.1640858882059306 13.12226042169801 1630.1619793055452 33.03307844821123 0.3324576748312931
1.1869514146724365 13.124894864133562 1468.3140703397971 34.29996374557355 0.33669731862576363
1.2098740388424765 13.127207441083332 1323.6182192923377 35.644714152743646 0.3411975387567735
1.2328459166233012 13.129051469066743 1194.1544084778438 37.01362201340764 0.34559886612046636
1.2558624570123256 13.130508171862076 1078.1649772323306 38.44542863559975 0.35013672668706963
1.2789024862021756 13.131418682477173 974.1421327235887 39.955616464987806 0.35489811071149857
1.3019363025760493 13.13169608378915 880.925887243109 41.4837059059123 0.35953033924304734
1.3249853825959474 13.131494254252374 797.1672187854251 43.10554500294721 0.3644467591447
1.3480086636266486 13.130599637823028 721.9985088790513 44.77869255023686 0.3694040749373414
1.3709913390006867 13.129001227909558 654.3492750616462 46.51354337716644 0.37444637985978135
1.393943960097263 13.126884654144424 593.5729971654453 48.35160712535144 0.3797794224245021
1.4167831531798007 13.12371545457744 538.8160079249055 50.21222638349742 0.38497333589314586
1.4395553975928073 13.11984335818915 489.46185385207093 52.18745081483765 0.3904871693830534
1.4622128155434737 13.115214120757257 445.02704849061575 54.22644986136668 0.39603571916762503
1.4847581950110234 13.109598055879635 404.8752102228064 56.349514567507384 0.4017093012030756
1.5071657586054856 13.103175676466265 368.6448475841566 58.578026547439684 0.40761335812782123
1.5294181761682022 13.095804636385648 335.90647763214474 60.827691632372286 0.413348144829811
1.5515004299295292 13.087499194208103 306.31032719501206 63.21574752013076 0.4194357137041513
1.573404336908578 13.078227433516457 279.54319379140424 65.75281722204758 0.42590314465021567
1.5947475042644021 13.0679257718944 255.63767928506783 68.47267399553903 0.5261135501838021
1.6078833017517637 13.053287914319197 240.56373398234274 71.75668354997715 0.9198331793401213
1.612648836317826 13.029722778567617 232.16594549669048 75.64082856986302 1.3127506062930683
