M[M_sun], R[km], Lambda[1], P_c[MeV/fm^3], rho_c[fm^-3]
0.23848912294887037 16.21570186450063 2784644.0411725277 3.4469561053153734 0.1694538074003404
0.24849010254677859 15.872286736708283 2284689.3210819317 3.6328960992972186 0.17193685017230625
0.258783881488784 15.568413819276067 1883193.9822651302 3.817666291937706 0.1742260555380887
0.2693641526269782 15.29867822717651 1559234.8998515185 4.0140821940087585 0.1766341511283257
0.2802277003569381 15.058683890687739 1296121.3316509346 4.218458773538219 0.1790679799900184
0.2913825206963668 14.844289292891325 1081335.6120668685 4.425707670424432 0.18140406890818897
0.30282214087453424 14.652506382170584 905437.1448063069 4.648006193209986 0.18390979571015187
0.3145368040619838 14.48088253927228 760820.4015969435 4.870779216451476 0.18627759911384179
0.32655040088368265 14.326752587543572 641167.4087215855 5.1047718766016885 0.18872058896096855
0.3388343806015083 14.188588543419769 542138.0190642552 5.352273149367714 0.19127714043573532
0.3514098406134337 14.064210932153097 459592.4327964903 5.598670587763534 0.19366270996300253
0.3642674388989694 13.952215080799641 390679.76915330044 5.862172664368958 0.19621388309375445
0.3774085608031273 13.851504804610984 332986.4492372285 6.13299967116937 0.19873846790348607
0.3908360950773291 13.760767136152879 284459.5842594852 6.409999224911972 0.2012087686554185
0.4045507163422637 13.679162406090038 243589.91762087683 6.705978500556384 0.2038483318507449
0.4185437319435695 13.605682317613155 209058.71964992772 7.003028333090302 0.2063470985174463
0.4328256896526436 13.539580155010388 179775.8720123234 7.313690852526194 0.20890839720902146
0.44740027961610623 13.480214045625745 154908.38879294338 7.6453813789065865 0.21164306411627706
0.46225011781322195 13.427020557433444 133750.44891009718 7.971855650323786 0.2141472417303257
0.4773923984341509 13.379350543496226 115696.94549950202 8.319748514613673 0.2168148553987872
0.492806736726818 13.33663323453037 100253.93217322991 8.684868436197467 0.21957591423332715
0.5085081425335576 13.29865249491437 87028.66281711572 9.050249682021771 0.22218501734808752
0.5244862956778118 13.264676316170108 75662.93500651617 9.439497779185528 0.2249645481377243
0.5407429228809449 13.234776397746456 65896.92038466678 9.841668109923285 0.22775136906653937
0.5572808573704289 13.208209780724326 57475.75062815282 10.25029061853214 0.23044932927377224
0.5741026232235167 13.184954782861094 50202.38494949817 10.685371633163259 0.23332198371562746
0.5911923166873656 13.16463645440883 43917.30461591919 11.129277315228869 0.23613988770772545
0.6085581613743529 13.146876545996975 38465.59315399943 11.585859319867843 0.23894420664781468
0.6262050645102304 13.131708803723761 33737.9042550428 12.071771938945993 0.24192867372506338
0.6441052079790922 13.11865809631628 29629.65673498666 12.562271492208096 0.24480415566648786
0.66228639810024 13.107711604954941 26054.116801864242 13.072379346749589 0.2477333255011843
0.6807253059958558 13.098672990338741 22940.349212564233 13.615035388927742 0.2508493953582006
0.6994095253481448 13.091186587276095 20221.521385367727 14.157344362632097 0.25379568986594375
0.7183675571910423 13.085337409979832 17845.50994314996 14.727440364480533 0.2568614322020711
0.7375632335515876 13.080907270401616 15767.93685459523 15.33350845823509 0.2601195799684539
0.757003647784266 13.077649336620079 13946.150467417001 15.933378740287063 0.263119794068084
0.7766948599532755 13.075527624028819 12348.515124288437 16.570604012543573 0.26630683683993933
0.7966192493855664 13.074489844021185 10945.71420637776 17.24132144349653 0.26963246397548735
0.8167762379397956 13.07423181779384 9711.690277993654 17.912199172222458 0.27277877018693886
0.837162938526239 13.074848999515167 8625.795346612313 18.624707695568354 0.2761203179783266
0.8577769051332444 13.076185876460833 7668.62227770082 19.3670010719256 0.2795434667163927
0.8785904874338472 13.078043079606692 6824.038520973771 20.118011616845266 0.28286003639512064
0.8996169437834024 13.080501501176016 6078.507911118207 20.915522145397528 0.28638195663359833
0.9208334981066102 13.08327096803245 5419.370449801596 21.7370885733387 0.28991618379403294
0.9422410973045547 13.086525500141695 4836.297543299773 22.578887440528554 0.29342408437795436
0.9638446732503351 13.089950364578856 4319.714710468822 23.472762818607627 0.2971489954973814
0.9855977343677573 13.093579440436878 3862.012531306371 24.382018850219453 0.3007814867563005
1.0075352750341304 13.097364648160559 3455.4825169734668 25.32663390123839 0.3044729122644719
1.0296309886268664 13.101213126343646 3094.338697578496 26.329701538917373 0.3083927624300555
1.0518716521690064 13.105112523656818 2773.6194753267628 27.3371605152738 0.3121447598651749
1.0742340923748563 13.108831345146616 2488.027462610505 28.39858829850292 0.3160719338063533
1.0967347036888397 13.11253593981446 2233.682537257881 29.516338297798796 0.32017951460686966
1.1193480773324516 13.11606169780259 2007.018070241392 30.64236885215028 0.32413722476901874
1.1420658818115468 13.119399532554628 1804.894569157937 31.837387924246656 0.3283374119729278
1.164851042819847 13.122288084095981 1624.3611450220506 33.07455703492467 0.33259648331942476
1.1877389573688406 13.12497784223689 1463.0494176486243 34.34478992679601 0.3368473298710163
1.2106805758682009 13.127311676584297 1318.8427782383903 35.693181936435586 0.34135973665960584
1.2336566783368257 13.12912812108444 1189.8043461208617 37.063099632421384 0.34575567677685803
1.2566980660804952 13.130613821283386 1074.2197848041271 38.49886534786908 0.3503060849968145
1.279749837706239 13.13141331103079 970.5683784531956 40.01028725311238 0.35506383895868787
1.302817197905981 13.131706157308725 877.5716087208759 41.5426919205759 0.3597091486064062
1.325875519752017 13.131519464894378 794.1751668712345 43.16922138345577 0.36463978681616865
1.3489018699727353 13.130539420828036 719.2399051746612 44.84390513936484 0.36959361386141537
1.3719038630153972 13.12895202358254 651.8229046482993 46.58388033370391 0.37465081264251576
1.3948376294815013 13.126602858223869 591.255419045847 48.42381491727278 0.3799809902742163
1.4176905772341357 13.123460836468558 536.7111741203244 50.29004999948297 0.3851905803000691
1.4404896213324256 13.119674871507714 487.5313686262342 52.27137639753075 0.3907214474130184
1.4631551855569158 13.114918142047289 443.2332697648863 54.31268281967733 0.39626616422270033
1.4857197686201637 13.109403050511157 403.26853555617413 56.44245021810353 0.40195765822966556
1.508124834969889 13.102893266579466 367.1752835537152 58.680594538278314 0.40789032397528563
1.5303813232720707 13.095502588321207 334.5742549078447 60.97558791168366 0.4138091879693905
1.55244640831623 13.087114770269581 305.1061816579378 63.41346707268292 0.4200965591466791
1.5743360147922056 13.077749873505683 278.4332313969294 65.90399957544993 0.42632935915144204
1.5960044600978887 13.067387632728124 254.2962559919241 68.5378915006217 0.4328976876903939
1.617441976313271 13.055969466107538 232.4481901184181 71.26529824996732 0.43956333622834637
1.6386152208609521 13.043451622017823 212.63246681617088 74.11847312709284 0.4464500039413095
1.6595056288407637 13.029784418745205 194.6685601910415 77.10205473384596 0.45355186874559705
1.680124435419088 13.015036211066214 178.35185990094402 80.20042864946093 0.46077905152952503
1.7004182831258867 12.999078123836805 163.53695093931853 83.46293951788405 0.4683348880358856
1.720383445120491 12.981942276163421 150.0700948737873 86.83602431132017 0.4759838750514917
1.7400134363399413 12.963688740818611 137.8330475445086 90.40234252735678 0.4840360802628526
1.7592388944574222 12.944035580080428 126.69423926132897 94.08407930617564 0.49216487146273313
1.7780743562476673 12.923138281092678 116.55035784973455 97.98313465251778 0.5007433884442565
1.7964926841618665 12.900969367053694 107.30781852453434 102.012069322907 0.5094071736100583
1.814485141989221 12.877530758324788 98.88842487149043 106.2773984479886 0.518539506944663
1.832027980478843 12.852719690348103 91.19507251455391 110.69726484143061 0.5277915738778287
1.849090745420916 12.826564910019181 84.17859377620053 115.36782898954719 0.5375143930782851
1.865654179791672 12.79910840090891 77.77475519261353 120.22889567138147 0.5474623078366139
1.8816978671883076 12.770125225138207 71.9188152251773 125.34919307161053 0.5578538019059376
1.89722481331484 12.73986004668858 66.55909844824603 130.70955745382602 0.5685899001566351
1.9121848387457783 12.708140443731708 61.65688022119123 136.33158875887688 0.579707794186694
1.9265705399357242 12.674971116328802 57.1725201353306 142.25806397949347 0.5913230846124548
1.9403640286237003 12.640311705046507 53.058146879749174 148.44243739197304 0.6032256949244696
1.9535538105321169 12.604261187061654 49.289561938951145 154.9889901415624 0.6157486046327253
1.9661020572286145 12.566719493640647 45.83395304225352 161.8297315135528 0.6286270744966854
1.977994965481993 12.527642793834753 42.66169623435172 169.04782909422175 0.642096500138981
1.9892549348616064 12.487129790211409 39.746695280244204 176.66586605750018 0.6561851271057523
1.9998286023367162 12.445194791069204 37.068502840515684 184.6452200609416 0.6707004371649607
2.0096610236201644 12.401544464298842 34.60978737330164 193.09078989640602 0.6859396565965582
2.0187994075374807 12.35650490939345 32.34748818966354 201.99835080380885 0.7018259937659388
2.0272066600445084 12.309957379790015 30.265312890946095 211.36888789650246 0.7183173296542538
2.0348644844119734 12.261867795780141 28.34828368876575 221.29227498675738 0.7356373833795701
2.041756253502651 12.212269413395907 26.582613503574397 231.79280637276324 0.7537929519633517
2.047895568979832 12.161218246324228 24.95607645832378 242.85103174236173 0.7726201217281843
2.053239176646723 12.108636308473145 23.455033224343182 254.5755438487607 0.7923911379136367
2.0577526812446885 12.054527269647732 22.07456798600647 267.0090830760125 0.8131545915881869
2.06150956621173 11.999018455623546 20.796899123494573 280.1856113537866 0.83492835872872
2.06440019535437 11.941912926183528 19.620101192814467 294.1316351028169 0.85768585107684
2.06648675175624 11.883497157939654 18.533824226659053 308.9497265224277 0.8816118597882069
2.067691035152071 11.823477372733421 17.53140689503541 324.7029836563747 0.9067766865015604
2.0681014776289266 11.762222491413706 16.606225076465286 341.46086906284904 0.9332643900774787
