M[M_sun], R[km], Lambda[1], P_c[MeV/fm^3], rho_c[fm^-3]
0.23848912294887037 16.21570186450063 2784644.0411725277 3.4469561053153734 0.1694538074003404
0.2484781255939724 15.872621262085392 2285143.4646000285 3.632640912753536 0.1719334424110752
0.25875540801915903 15.569268476989054 1884335.0729611411 3.817165118883648 0.17421991106297902
0.2693252883765885 15.299719079378947 1560232.475782711 4.013274527748622 0.17662424898934964
0.28017067626828496 15.059787210132356 1271083.8048587928 4.217400059933915 0.17905604627574684
0.291308601388499 14.84564041698285 1082626.5784434653 4.42428899786773 0.18138807777246754
0.3027251024182296 14.653992682625029 906754.7393679784 4.646179306991361 0.18388920323070224
0.3144288570131145 14.482332699411067 761967.892429227 4.868686567337962 0.18625575090486535
0.326420785836566 14.328314470846125 642345.7524988416 5.102210753481403 0.18869384967018873
0.3386847263115726 14.189983454294465 534550.7211924851 5.349437454686779 0.19124968582068935
0.3512413708804163 14.065794764341415 460613.196635221 5.595302930484249 0.19363010499504488
0.36408092793564556 13.953781483249191 391604.09776052344 5.858209355485773 0.19617551114897927
0.37719940783453976 13.852974845496073 333812.28287829534 6.128747907634006 0.19870055038875892
0.3906037464904537 13.762274326273944 285227.3032295413 6.40508018898359 0.2011649003603672
0.40429371738220204 13.680632224737353 244289.5839514335 6.700315690740847 0.2037978305298714
0.41826038066213106 13.607091035019677 207085.5439106034 6.997066163707621 0.2062979426145503
0.43252395189368753 13.540945079381558 180342.84179017373 7.306904335026478 0.20885244485782076
0.4470682566241998 13.481416532490595 155416.85096001657 7.637679422540964 0.21157956430690947
0.4618949394836725 13.428217146610452 134215.31557430074 7.963841800507826 0.21408579219369986
0.4770063114838431 13.380442765832823 116108.28483847146 8.310727907592915 0.2167456861313016
0.4923949052534074 13.337751987902463 100633.74062819548 8.675510064064948 0.2195090882586525
0.5080668774813498 13.299613630408343 87364.47950487651 9.039786838826066 0.22211030460055833
0.524017545190167 13.265611344180806 75973.02614270171 9.427816145407292 0.22488113228804782
0.5402404661020562 13.235675187539282 66179.5404452822 9.829630517539767 0.22767188997628518
0.5567514617414537 13.20901901115291 57724.127312555385 10.236923039635402 0.2303610688496139
0.5735411781402383 13.185737718251 50429.302183076106 10.670539740038942 0.23322405504893806
0.5906009893020753 13.165241568270762 44118.716712050234 11.114070590870258 0.23604648826424696
0.6079387519612124 13.147516123549602 38646.25292740599 11.569061648155971 0.2388410356326358
0.6255461197678187 13.132238049049427 33900.904668895564 12.05322606986302 0.24181476531123763
0.6434122298254488 13.119131591424248 29778.40541321708 12.543320061797424 0.24469533170349833
0.661557281782831 13.108133142525656 26188.923228360945 13.051533819978143 0.2476136251522019
0.6799585955763963 13.098918687145725 23058.970880654408 13.592112046553213 0.2507177636603232
0.6986154959458353 13.091569551060225 20330.11753844206 14.133972067534003 0.25367000325466715
0.717532350816836 13.085614335491892 17943.05019389958 14.701820821719252 0.2567236608151102
0.7366946726873926 13.081027552240503 15854.811324253738 15.305631911208817 0.2599707090562299
0.7560961838832845 13.077785850922439 14026.079823714752 15.90480463032271 0.26297688242507644
0.7757472947755162 13.07562518590908 12420.090661575501 16.539372170159165 0.266150632712676
0.7956383169799853 13.074505312613937 11009.706225509275 17.209504346678752 0.2694832470242282
0.815757251494253 13.074224830491124 9770.134763988843 17.877511048074414 0.2726160885896859
0.8361060707821085 13.07475805739862 8677.685194750344 18.586884193403204 0.275942931973835
0.8566712404461214 13.07606050641378 7716.38633661487 19.32849760464888 0.2793734299133681
0.8774556759486702 13.077942252198515 6867.036812703099 20.076122059036653 0.2826750461333684
0.8984464112761941 13.080347097628787 6117.195865358821 20.86993802581808 0.28618065066013176
0.9196202593081072 13.083165055912342 5455.010082421066 21.69069786134227 0.2897228668248096
0.9409963902198896 13.086313641209555 4868.3746502867225 22.528505471477185 0.29321413524931705
0.9625601457533891 13.089710787937111 4348.635278312155 23.418029137392733 0.2969209121394947
0.9842719276690303 13.093376501867363 3888.2438018095 24.326337155875915 0.3005638903643986
1.006172882707572 13.09708121952568 3479.1491369638456 25.266250401722274 0.30423694186558187
1.028225745123227 13.100985806650337 3116.141078486734 26.264194585020007 0.3081367702771478
1.0504159118076692 13.104833719236307 2793.3494362047913 27.27052338300991 0.31189820930989787
1.072755998801542 13.10862150885789 2505.9405217059084 28.326412629319023 0.31580489123248756
1.0952331065704657 13.112461641372592 2250.0156437627697 29.442739929394783 0.3199208351159584
1.117786752979563 13.11579380852311 2021.840499478219 30.562767878043285 0.3238574476502516
1.140467359884488 13.119128267086104 1818.299906119195 31.751256338875717 0.3280346814214457
1.1632306945521023 13.12226726581666 1636.678015725777 32.986671604283444 0.33230237388314177
1.1860724094458102 13.12474652135168 1474.0833395989919 34.249815000283014 0.3365294953688246
1.2089868032818882 13.127159752989398 1328.942793968499 35.590495217697956 0.341016094570794
1.2319257483994075 13.128950853183628 1199.0008137557343 36.9582728591698 0.34542344666052127
1.2549269440491315 13.130473911300156 1082.6519308223521 38.38565478048428 0.34994728391188046
1.2779551361473098 13.131349452301608 978.1979555054504 39.89446165491584 0.35471272689267874
1.3009739215291607 13.131700787645585 884.6304080276957 41.41772876564761 0.3593303370812765
1.3240100457076556 13.131492658306081 800.5758961707038 43.03432677358039 0.3642308692201941
1.3470071741632652 13.130616769732685 725.0626262759886 44.7057555921473 0.36919208530855374
1.3699830526529606 13.129081544614538 657.2307198815608 46.43488084919569 0.37421774899086657
1.3929008559458536 13.126833230334183 596.1274862070752 48.27083547292515 0.3795539098255083
1.4157332810635344 13.123800084789831 541.1647035753688 50.125196982631095 0.38473039356340877
1.4385006482903497 13.120023809629293 491.6154175921339 52.0936047705408 0.39022519841219605
1.4611572415899787 13.115349033380557 446.9607151758495 54.130023245476664 0.3957780330433771
1.4836949015251817 13.109970527217666 406.70619205223403 56.24560090565145 0.4014316070360356
1.5060840027478264 13.103518873747372 370.3158584867944 58.477893761149176 0.4073675519510917
1.5283310575737552 13.096264197223729 337.464968415901 60.75725550685159 0.41324610145912777
1.5503965031471867 13.087992463538539 307.7337809649731 63.178148876537044 0.4194896657175016
1.5722604314141762 13.078716522045283 280.8707987171899 65.66139030215147 0.4257243466988082
1.5939306079738653 13.06846961942301 256.5265865674262 68.27651426721773 0.4322458722057902
1.6153527714300737 13.057116631094948 234.48925357200284 70.99522210214657 0.43891145726286485
1.6365342702669594 13.04475803739979 214.50874198521623 73.82759261579457 0.4457479097789264
1.6574232628673093 13.031245075575551 196.39897753180136 76.80088980723853 0.45284937962324456
1.6780462664394298 13.016624233023716 179.93712288490764 79.8761322229478 0.4600226064991905
1.6983421333390878 13.000785421556042 165.00228522185884 83.12651227215613 0.4675719876666815
1.7183130715618513 12.98379549501372 151.42394971122047 86.47379870551732 0.4751624729447621
1.73792611244341 12.96556731040977 139.07000335265636 90.02580797912461 0.4832047414393578
1.7571878135219723 12.946125359035422 127.83583900083677 93.67867828685176 0.49126979926277003
1.7760582015826514 12.925506233969482 117.60276674997101 97.56091353015097 0.49983544791011614
1.7945005155653122 12.903444050734484 108.27498912584338 101.55744554173523 0.5084295546875464
1.8125185771815402 12.880162785812841 99.77812009234536 105.80306931786743 0.5175465980036273
1.8300793121020527 12.855574588502947 92.02520492572769 110.18645144833036 0.5267222927542333
1.8471736838627701 12.829617893800268 84.94702090059425 114.83393106119874 0.5364217993270604
1.863764109889038 12.802285079050382 78.48183205157856 119.65378807501793 0.5462853806887368
1.8798685290163806 12.773661320150763 72.57296284492531 124.74701819490029 0.556647725568681
1.8954182952648322 12.743441727292971 67.16441195639266 130.0606829857196 0.567290290737344
1.910437960814769 12.711995333123104 62.218848747513654 135.6510029952956 0.5783739151085981
1.9248701433611766 12.679013786005934 57.691692938925435 141.5243851830746 0.5898851485741866
1.938752984632637 12.644797000732027 53.5423216678567 147.67162469716735 0.6017473172976683
1.9519745150476875 12.608788385902288 49.735226953926436 154.1776202392836 0.614221108961305
1.9645785649533618 12.571445533100507 46.24725176290461 160.95482076665914 0.6269799559937612
1.9765551796503127 12.532648187534578 43.044265868354294 168.12537559111368 0.6403905352871265
1.9878714444556815 12.492446289658286 40.10408985037534 175.67051487373317 0.6543443469157081
1.998491306947681 12.450580495730076 37.40252043009106 183.5940877637631 0.6687918459205816
2.008426660703216 12.407317975334918 34.916340204790735 191.97891729723793 0.6839566689770068
2.0176451550323513 12.362508892855752 32.63272952747102 200.7977742486542 0.6996848056055537
2.0261476828395084 12.316273253540178 30.531775011003482 210.09692646815645 0.7160843343638414
2.0338872526290195 12.268389399408631 28.5954677905074 219.942585064507 0.7333037502471638
2.040892788068612 12.219134518502914 26.81313531211448 230.33404597594424 0.7512707344242424
2.047095990227082 12.168231680120643 25.170416935289406 241.30068625119895 0.7699822536457999
2.0525544094573003 12.115901483496442 23.653325792827065 252.92550073342062 0.7896264917817628
2.0571891528989146 12.062126570824224 22.258754512064346 265.25049408112574 0.8102485827774173
2.0610211842714055 12.006827681405559 20.969184505512196 278.2821882762654 0.8317830164969751
2.064026702898451 11.950084803880685 19.78235091306311 292.09973130510565 0.8543731181028877
2.066222714972 11.891914365469523 18.684344600113793 306.77778649079187 0.8781218606836402
2.0675903462343865 11.83228345751004 17.671257784910434 322.37836694728963 0.9030918833890071
2.0680891160529837 11.771257483310675 16.736742988832614 338.96969929269704 0.9293647501203112
