M[M_sun], R[km], Lambda[1], P_c[MeV/fm^3], rho_c[fm^-3]
0.23848912294887037 16.21570186450063 2784644.0411725277 3.4469561053153734 0.1694538074003404
0.248476026339853 15.87278519563034 2285312.5879229447 3.632645108204898 0.17193349843713476
0.25875592881778964 15.569253201561374 1884196.4115632107 3.8171733581679974 0.17422001207814172
0.26932560604449024 15.299762044213091 1560213.2353809862 4.013287805137497 0.17662441177261343
0.2801682569934973 15.059929409366779 1297291.4188387992 4.217417463670105 0.1790562424489273
0.2913103093707194 14.84557302045836 1082593.6858291253 4.424312317687727 0.18138834063115528
0.30272636667884595 14.653975021639637 906738.2404551402 4.646209335442418 0.1838895417084109
0.3144298413883544 14.482387737776557 762022.8325618416 4.868720963019682 0.1862561100114338
0.32642335920252336 14.328339557699127 642339.4249562803 5.102252847118828 0.18869428914691758
0.3386876716515907 14.189940284086864 543137.907155579 5.349484059777433 0.19125013704163063
0.35124585253859925 14.065693237540993 460566.8989547374 5.5953582757334095 0.1936306408364105
0.36408518786274807 13.953714194238962 391590.7739272656 5.858274486574144 0.19617614173483564
0.37720244052308893 13.853041890704121 333806.026965441 6.12881777747263 0.1987011734927046
0.39060796441699536 13.762217164703529 285215.10358802875 6.405161020118712 0.20116562121789627
0.4042980009457005 13.680610058039525 244271.02472478803 6.700408738963835 0.20379866034021626
0.41826622188719775 13.607021468724644 209664.87148690844 6.9971641291333855 0.2062987503036056
0.4325282955973963 13.540972324513636 180337.95790131815 7.307015839687389 0.20885336417291103
0.44707380134739283 13.48140867163923 155411.031780679 7.6378059614254 0.21158060757366634
0.4618987719183347 13.42823608053143 134204.9897880624 7.963973461916332 0.21408680176247516
0.4770099466443229 13.380407720684932 116102.79130332255 8.310876101404201 0.2167468224691721
0.49240179362075653 13.33771234336645 100628.33315135865 8.675663805149203 0.21951018608823838
0.5080726971190036 13.299610266308113 87361.37742145985 9.039958715303483 0.22211153193079958
0.5240262529104064 13.265595870356812 75963.42085947697 9.428008032953548 0.22488250251271133
0.540251228202304 13.23560474710469 66167.85926685932 9.829828250837712 0.22767319552494747
0.5567588564825829 13.209012430548766 57717.257216520244 10.237142607866378 0.23036251856502965
0.5735506808701818 13.185666417730973 50422.61579523007 10.670783346763349 0.23322566348027704
0.5906099620015578 13.165255085558746 44113.28229044401 11.114320353173852 0.2360480223000858
0.6079493518354713 13.14749747076433 38643.58329583464 11.569337525695097 0.23884273006780904
0.6255569436867707 13.132229685860061 33898.7212558601 12.053530641767965 0.24181663598671976
0.6434235726472461 13.119157132878556 29774.854972372 12.543631293956548 0.2446971188781987
0.6615722130671552 13.108077995338228 26185.414829593083 13.05187613884194 0.24761559083471543
0.6799715242037105 13.09892461242161 23057.591208593094 13.592488464858823 0.25071992515055747
0.6986317678554965 13.09152884380716 20328.191779191744 14.134355858780058 0.25367206712648427
0.7175472552197327 13.085624720104379 17941.022774939425 14.702241490219405 0.25672592299766583
0.7367078764769931 13.081063291067617 15853.903403885619 15.306092973060986 0.2599731884576556
0.7561111791139782 13.077752009438003 14024.217652367432 15.905273786683956 0.2629792288815889
0.7757617496533361 13.075561763613708 12418.820128873256 16.539884933332708 0.26615319726596204
0.7956528281409219 13.074506962977365 11008.794636714416 17.210026721329346 0.2694856968754269
0.8157749041087223 13.074221766116624 9768.791578571925 17.87808052579495 0.27261875934653573
0.8361246952200284 13.07479184492539 8677.120650240618 18.587505107294987 0.27594584395786853
0.8566896226004171 13.07606907233016 7715.4380956957875 19.32912968533202 0.27937622127181494
0.8774737819836772 13.077927857355782 6866.279728210555 20.076809684899168 0.28267808278724943
0.8984676220575677 13.08033372784364 6116.682048528549 20.87068625228983 0.2861839549349463
0.9196398561506115 13.083116544551334 5454.199394523078 21.69145933366332 0.2897260399927762
0.9410171730177964 13.086304242188582 4867.784684527456 22.529332406336888 0.2932175812093798
0.9625752644109212 13.08972641068274 4348.286213657721 23.4189274411369 0.2969246555042716
0.9842979553324018 13.093325583992634 3887.678662786551 24.32725102747835 0.3005674616487443
1.0061936917499301 13.09710676471102 3478.9240686325675 25.267241378312328 0.30424081446559875
1.0282476002815832 13.100977230613882 3115.7890706816484 26.26526957444072 0.308140971187735
1.050443531056035 13.104869060852726 2792.99498435032 27.27161693078448 0.3119022553245129
1.072785055335164 13.10862345829335 2505.525761200773 28.32759698981802 0.31580927324486946
1.095259039033366 13.112461732105698 2249.6785139668805 29.443947647191987 0.31992507993594177
1.1178145432409266 13.11580864039228 2021.522871050051 30.564074010495112 0.3238620383726416
1.1404947280573312 13.119121663946501 1818.047571065468 31.752669533950364 0.32803964844164457
1.163253989532503 13.122107498743604 1636.3277594932028 32.988113589380994 0.3323071995000964
1.186095830768469 13.124776468680498 1474.0147936742424 34.2513732016277 0.3365347099045646
1.2090146538847117 13.127162820146854 1328.722972059263 35.592179825724294 0.34102173212770615
1.2319467618999975 13.128981923249995 1198.8768608811256 36.95999259251866 0.34542889705446966
1.254953262957071 13.13039801225418 1082.341905370532 38.38751192496293 0.349953169806362
1.2779737343759587 13.131340387667509 978.101942260616 39.89636171339862 0.35471848670285727
1.3010023970250955 13.131677947220437 884.5195950323128 41.41977857766961 0.35933655085219746
1.3240434980812448 13.131564181263315 800.5190311105717 43.036539335965344 0.36423757635024356
1.347035504212223 13.13060963204303 725.0067282812626 44.708021559989646 0.36919867129314
1.3700120332631476 13.129103271616335 657.1248601984121 46.43732460424978 0.3742248517099864
1.3929309428031456 13.126872674983126 596.0871206587616 48.273360639660524 0.37956099757797596
1.4157665557639378 13.12379652625061 541.1027216834159 50.12790057082935 0.38473794062232214
1.4385388825929 13.12005965052651 491.56332436503396 52.09652000596194 0.3902333362837417
1.4611877117312537 13.115392693826442 446.9140912525935 54.13301865102026 0.3957860378295864
1.4837285765358785 13.10995228581875 406.6411842009196 56.2488287626424 0.4014402330149725
1.506114034170643 13.103511049888166 370.2589329981099 58.481217576055634 0.40737612417992725
1.528358167962478 13.096287754439752 337.42550105079886 60.7608353698929 0.4132553340445917
1.5504302013410567 13.087953779615404 307.6935789449233 63.1820069428535 0.4194996157984352
1.5722969939440554 13.078706927286394 280.82751071596493 65.6653679086553 0.4257342659464683
1.5939666460160558 13.068438547454369 256.4876861410251 68.28079923611966 0.43225655794549656
1.615384405872525 13.057138479260026 234.47264717511595 70.99964966938306 0.4389221440190742
1.6365689389628917 13.044742251939768 214.47889485671283 73.83236086043505 0.44575941882335135
1.657459156714102 13.031226865616848 196.3688583201205 76.80582661429645 0.45286089508520894
1.678074853242312 13.016568809802013 179.91716220503238 79.88144777417686 0.4600350054095145
1.6983795189029816 13.000756767446356 164.9775325101112 83.13202661705714 0.46758449228934307
1.7183416834133984 12.983759168164973 151.40295796866445 86.47973541297944 0.47517593533929825
1.7379747152526448 12.965568946039049 139.05335264890232 90.03197913578137 0.48321836654265504
1.7572251268464907 12.946143409703899 127.82004856367281 93.68532198049736 0.49128446766566936
1.7760904026485358 12.925441501251434 117.584511072123 97.56783277289617 0.4998503269879764
1.794532824550169 12.903439702699945 108.26548631946238 101.56489514249364 0.5084455742425459
1.8125494033268585 12.880136787668762 99.76058892754934 105.81084168184472 0.5175628678238766
1.8301226569066305 12.855661148207066 92.01792466385523 110.19482089979901 0.5267398124524072
1.8472077800914242 12.82959200444202 84.93411640372331 114.8426785620892 0.5364397006229903
1.8637980318447391 12.802237751026945 78.46856796398986 119.66320990639983 0.5463046619661989
1.8798950607579252 12.773538975950476 72.55991230968324 124.75688322321325 0.5566674839107754
1.8954489684035527 12.74341071930864 67.15612708486233 130.07131207009334 0.567311579382297
1.9104653766128958 12.711903388017848 62.20731726476494 135.66215122552865 0.5783957645093076
1.9249026613987577 12.678936789788034 57.68028274567274 141.53640194410818 0.589908700207187
1.938783920000912 12.644704428746964 53.5324612227784 147.6842492680061 0.6017715305510328
1.9520046143824905 12.608738623729337 49.72881085361612 154.19090860127653 0.6142461258067258
1.9646065444729113 12.571398741306874 46.24085205271656 160.96914836418796 0.6270069293176984
1.9765731038312488 12.532520661371146 43.03657464286933 168.14048116279383 0.6404184711931279
1.987889033640662 12.492279646801691 40.09826867468057 175.68681251631278 0.6543744874109365
1.9985087527849037 12.450467645945642 37.39553233565276 183.61129801139168 0.6688230953912959
2.0084449707823686 12.407234360694986 34.91476927399523 191.99712120212087 0.6839891350329536
2.0176634855538373 12.362412367963175 32.629511660114346 200.81742836172018 0.699719858059326
2.02616063522109 12.316116895330671 30.527697031365502 210.11774813330632 0.7161208878938323
2.0339185442937286 12.26833654636597 28.59121168471651 219.96467792265364 0.7333419491141113
2.040901471765496 12.218944818131725 26.80809974879349 230.35792155772782 0.7513120156457935
2.047118319380088 12.168120299605414 25.165961782027097 241.3260593140362 0.7700254251794949
2.052563827794247 12.115865930260865 23.652459018473017 252.95250376861088 0.7896717353490936
2.0572165813313203 12.062075927966308 22.254493518940254 265.27927157677095 0.8102961366152611
2.0610256651594407 12.006680367385917 20.966942661158573 278.31333219573673 0.8318344807701218
2.0640341715691353 11.949931456961615 19.77912536339655 292.13297507541694 0.8544273173884114
2.066226497575729 11.891781052216395 18.681716736449395 306.8133187315175 0.8781789559470956
2.067592759264867 11.832139646102354 17.66835166158193 322.4163939591895 0.9031521608752965
2.0680803455400985 11.771023997145011 16.73377876989776 339.0104475160431 0.9294285367806375
