M[M_sun], R[km], Lambda[1], P_c[MeV/fm^3], rho_c[fm^-3]
0.23848912294887037 16.21570186450063 2784644.0411725277 3.4469561053153734 0.1694538074003404
0.24847713288439202 15.872800211994834 2285361.2361669266 3.632645699449403 0.1719335063326142
0.25875644754942545 15.569217881514055 1884266.1956514323 3.8171745192911426 0.17422002631372804
0.26932573031536056 15.299618579511092 1560072.349171861 4.013289676258462 0.17662443471290543
0.2801716494304978 15.059772727019636 1297298.8501811968 4.217419916299902 0.17905627009472602
0.291311915507088 14.845494499490087 1082501.3287315972 4.42431560404748 0.181388377674675
0.30272659971548554 14.653978773688554 906706.0710688728 4.646213567224075 0.18388958940863215
0.3144275315893871 14.482479757746233 762041.3812663883 4.868725810259509 0.18625616061882325
0.32642186906574944 14.328377264375055 642344.3970416492 5.10225877920503 0.18869435108059684
0.33868812460037734 14.189926490882385 534497.4308363266 5.349490627647977 0.19125020063040787
0.3512464743463144 14.06565777832412 460572.8465325671 5.595366075327172 0.19363071635047965
0.3640846822425622 13.953802529325623 391603.008146477 5.858283665257596 0.19617623060096867
0.3772028410464904 13.852975252649019 333790.78637083573 6.128827623974847 0.19870126130447724
0.39060795252798713 13.762215461455023 285211.56450551096 6.405172411367549 0.20116572280582373
0.4042985756126633 13.680606901258868 244275.94473578667 6.700421851937112 0.20379877728259868
0.41826632909659495 13.60707903576545 209673.8649374489 6.997177935076093 0.20629886412854673
0.4325315095954452 13.540862655316104 178168.20599540282 7.307031553685132 0.2088534937290671
0.44707266561775755 13.481515920420325 155424.02180152034 7.637823794166606 0.21158075459808628
0.4619014538339436 13.428222496645882 134208.5569905391 7.963992016563906 0.21408694403797593
0.47700965752217045 13.380428617860886 114854.47467186404 8.310896985934813 0.21674698261002304
0.492404020951748 13.337683097247552 100624.23306310496 8.675685471445599 0.2195103408022585
0.5080748771707622 13.299598361297104 87363.56188177507 9.039982937393937 0.22211170489515494
0.5240273144199554 13.265576914632986 75962.77518026062 9.428035075178112 0.22488269561499327
0.5402531317270931 13.23560442818774 66170.83112337187 9.829856116892936 0.22767337951262936
0.5567604799633978 13.209000354400944 57720.26776923713 10.237173551095468 0.23036272286997864
0.5735524561481185 13.1856532695612 50420.80204446819 10.670817677716455 0.23322589015292333
0.5906107759994476 13.165242396510784 44112.42063701014 11.114355551621259 0.23604823848835368
0.6079517621642482 13.14748739985339 38642.77636082595 11.569376404545638 0.23884296886105064
0.6255584671772826 13.13222848970404 33898.33979097982 12.053573564502438 0.24181689961742797
0.6434261582086751 13.119137454271266 29775.003322926685 12.543675155308224 0.2446973707413039
0.6615719287972107 13.108129362889162 25980.481077915356 13.051924381235207 0.24761586785488254
0.6799717670019184 13.098925794704837 23057.07158436521 13.592541512884809 0.2507202297658974
0.6986341401207008 13.091520587214896 20326.94883728104 14.134409945860488 0.253672357984606
0.7175505104539013 13.085598966296159 17940.94714380576 14.702300774416983 0.25672624180375075
0.7367104319260108 13.081052864232905 15853.104402670593 15.306157949908082 0.2599735378764734
0.7561141109248621 13.077740105473216 14023.831280243863 15.905339904273804 0.2629795595646236
0.7757642427614494 13.075583047352406 12418.539454552607 16.539957196454722 0.2661535586854956
0.7956565783888955 13.07449728561486 11008.906122381199 17.21010033897825 0.26948604213009264
0.8157786694527097 13.074222807682125 9768.740490535334 17.878160781714637 0.2726191357335997
0.8361270961310906 13.074789696450637 8677.06720683043 18.587592612163238 0.2759462543413091
0.8566912979080679 13.076075005479488 7715.224799906544 19.329218763914824 0.27937661465554137
0.8774709561409091 13.077979146381299 6866.710869439372 20.076906591527557 0.28267851074074163
0.8984685476663988 13.080312814841816 6116.494882142254 20.87079169944394 0.2861844206046182
0.9196410433866146 13.083121479715398 5454.107587681312 21.691566647530962 0.28972648718556016
0.941013422892674 13.086266028143026 4867.680048786765 22.529448945941116 0.29321806684717483
0.9625783568523736 13.089727755396773 4348.099524167124 23.41905403888321 0.2969251830558347
0.9842999620834496 13.093332295950354 3887.65803602161 24.327379819175775 0.3005679649489581
1.006196004487192 13.097100207704404 3478.7812149354454 25.267381036565684 0.3042413602308163
1.0282514798883262 13.10096868289608 3115.7167880241204 26.265421072803974 0.3081415632224712
1.0504448704127585 13.104811964793713 2792.785732892226 27.27177104454682 0.3119028255296281
1.072788403541859 13.108608338962021 2505.426091449469 28.327763902031393 0.3158098908029409
1.0952623993694073 13.112463366774197 2249.6720245071087 29.444117851123764 0.3199256781593451
1.1178201717362644 13.115820855119905 2021.5448113855218 30.564258084255215 0.32386268534495344
1.1404988181812472 13.119115876046733 1818.0084529471922 31.752868696342773 0.32804034844665003
1.163257274101542 13.122126838589054 1636.3338563503921 32.98831680913029 0.33230787957693586
1.1861047373842182 13.124881254295847 1474.0343193910985 34.25159280007835 0.33653544479288516
1.2090165308099754 13.12716854647239 1328.7435117370514 35.592417239073185 0.3410225266337545
1.2319495463399994 13.129003962211481 1198.907516434025 36.96023495606562 0.3454296651833255
1.2549513610143703 13.130416736837741 1082.4513894783372 38.387773654328576 0.3499539993117917
1.277974817288899 13.131373990528274 978.1272152381459 39.89662949063754 0.3547192984389592
1.3010051565279863 13.131725012789769 884.5282246947693 41.42006746021688 0.35933742656663004
1.324045258594211 13.13154927821959 800.4570650191566 43.03685115554841 0.36423852159567927
1.3470398176680742 13.130607465230542 724.9638859941589 44.70834090603337 0.36919959946523595
1.3700175035580529 13.129100331040778 657.114575653507 46.43766900656976 0.37422585270758596
1.3929347990864362 13.126877860965365 596.066209971197 48.2737142054203 0.37956198455580803
1.4157724324207182 13.123825466604893 541.0850379855801 50.128281592339995 0.3847390042428062
1.438541157892063 13.120017860964428 491.56026780355506 52.096930855878185 0.3902344831701367
1.4611934645727571 13.115384379131692 446.92783424058405 54.133440799434 0.3957871659599017
1.4837358069237392 13.109942359519334 406.6352343217881 56.249283671551574 0.40144144869295323
1.5061180835533452 13.103498859972504 370.26412159228073 58.48168600850117 0.4073773322827339
1.5283459631890455 13.09617723521005 337.4109746823118 60.76133988849201 0.4132566352147847
1.5504375341162173 13.087941129992899 307.6834461141049 63.18255067011219 0.4195010180890611
1.5723002484597213 13.07866648477782 280.81181641534175 65.66592848301543 0.42573566389166595
1.5939710004600813 13.068432710064815 256.48007596438634 68.28140312877001 0.43225806391667626
1.6153777453742517 13.057123342148067 234.46444488629083 71.00027365884229 0.4389236501335772
1.6365701557354504 13.044740000573926 214.47852973512843 73.83303286354729 0.44576104082772733
1.6574644891844121 13.031180147629527 196.3542180152708 76.80652237348434 0.4528625179941803
1.6780785106391687 13.016531753415391 179.90556298656355 79.88219691209893 0.46003675282827045
1.6983803814522742 13.00077409981776 164.98045315016896 83.13280377173281 0.46758625460674313
1.718349944191323 12.98373403082731 151.39746741876993 86.48057209392317 0.4751778326416392
1.737977607116439 12.965557992677171 139.05021031540514 90.03284885865148 0.4832202867765114
1.7572267459827184 12.946157074669431 127.81827201120026 93.68625830118911 0.49128653493876806
1.7760944049947152 12.925437608893622 117.58352350188007 97.56880792802004 0.4998524239528536
1.794538968504716 12.903459499295836 108.26192765274322 101.56594504472119 0.508447831942928
1.8125529286744797 12.880131594923288 99.76183034064984 105.81193707275284 0.5175651607959029
1.8301157461289104 12.855528945691512 92.01063615051203 110.19600044267496 0.5267422815789978
1.8472052890117479 12.829546449040219 84.93287965886644 114.84391138558391 0.5364422235307882
1.8637976787216337 12.802208610511357 78.47183873619458 119.6645377685354 0.5463073793655271
1.8798995350832848 12.773572399280445 72.55957084023048 124.75827354777645 0.556670268546305
1.8954560624691559 12.743391815235018 67.1536974420816 130.07281007931002 0.5673145796958922
1.9104646414731374 12.711885743558497 62.209159639852835 135.6637224013613 0.5783988438546059
1.924904383698268 12.678962246652969 57.68080854941723 141.53809552941732 0.5899120194626457
1.9387869150506298 12.64469568923321 53.53059124882145 147.68602851621378 0.6017749430541747
1.9520055692850002 12.608797153220296 49.73032500204944 154.19278140236506 0.6142496515667375
1.964601933744086 12.571339147200987 46.23902608164065 160.97116763418754 0.6270107308220124
1.9765773016491641 12.532567750529745 43.03854901330865 168.14261007870556 0.6404224083625416
1.9878885065901064 12.492265711769992 40.09824425065058 175.6891094421476 0.6543787352941397
1.998514185042639 12.450505662645448 37.39733554506443 183.6137235581913 0.6688274995727649
2.008447096616226 12.407225888094118 34.913275321563766 191.99968679346335 0.6839937106793657
2.017668024644599 12.36237094168119 32.62772128959076 200.82019834563906 0.6997247982330668
2.026175297000858 12.316181674164863 30.526769002021844 210.12068267088597 0.7161260396291357
2.0339356477692214 12.26839020945129 28.589866951820426 219.9677916212491 0.7333473327434079
2.040902875987478 12.218946425069607 26.8079523086035 230.36128651489778 0.7513178337047502
2.04713550093529 12.168213441133021 25.165650980941614 241.32963532597168 0.7700315096605351
2.0525623795765218 12.115850870267925 23.652129239709616 252.95630950902927 0.7896781118646093
2.057193167219009 12.061998813324234 22.255303344304377 265.28332741030675 0.8103028387429466
2.061027905752119 12.006687591042496 20.96633011064276 278.31772155730897 0.8318417340416023
2.0640324302065403 11.949914943826307 19.777732087248445 292.13766039207707 0.8544349561373575
2.066231885869846 11.891753035537299 18.682071379014783 306.8183265881416 0.8781870028613195
2.067574849021163 11.832058875075107 17.66833483892536 322.40825535627766 0.9031227619045132
2.068102557621789 11.771074420307212 16.732989296644025 338.9682675471134 0.9293121555689337
