M[M_sun], R[km], Lambda[1], P_c[MeV/fm^3], rho_c[fm^-3]
0.23848912294887037 16.21570186450063 2784644.0411725277 3.4469561053153734 0.1694538074003404
0.2484806470449125 15.872447605677463 2285068.5841557463 3.6326865243222564 0.17193405150798655
0.2587622838139786 15.569019735733933 1884007.1186300626 3.8172546943274304 0.17422100927462528
0.2693319662845355 15.299444174380787 1559898.1119931955 4.013418877361946 0.17662601874252967
0.2801812060043651 15.05954129661657 1297075.3949701476 4.217589271727563 0.17905817905223428
0.2913223771925734 14.845360147503735 1082383.3078879092 4.424542530791867 0.18139093557032976
0.3027422104255505 14.65370706196481 906562.7824945796 4.6465057787849915 0.1838928831882347
0.31444563767219613 14.48214214301289 761881.0392177665 4.869060522001198 0.18625965516171247
0.3264466511785746 14.32806444536425 642117.2705783871 5.102668405135578 0.18869862776170643
0.33871000947262825 14.189743846751433 543004.7290112469 5.34994415822345 0.19125459162053984
0.3512719844501338 14.065448551328483 460388.96156704944 5.595904664359085 0.19363593085916375
0.3641126926965466 13.953608776398267 391467.83065553923 5.858917490528345 0.19618236716740928
0.3772334618917487 13.852843720693043 333698.56920754013 6.1295075673624835 0.19870732508558825
0.3906462588280247 13.761981286243527 285084.86207995925 6.405959032723043 0.20117273794826604
0.40433918256736123 13.680377515791367 244160.68264003305 6.701327374535338 0.2038068527943642
0.4183100835958497 13.606864669218952 209572.38336506914 6.99813131375649 0.2063067243865885
0.4325791712159757 13.540732700854322 180248.79495181763 7.308116703654424 0.20886244039312415
0.44712614787218335 13.481304083693818 155334.68179381193 7.639055267447742 0.2115909076442581
0.4619567322387448 13.428025512634086 134140.53027294963 7.965273345188839 0.21409676915974335
0.4770777488337868 13.380251388351422 116036.8443578427 8.312339221929086 0.21675804155617107
0.4924682937370266 13.33755366584463 100568.69510749808 8.677181696981688 0.21952102500335313
0.5081444833474502 13.299434188466563 87303.98631348334 9.04165567484796 0.22212364952710129
0.5241005225224363 13.265455014224061 75917.73204257282 9.429902583109698 0.22489603105794997
0.5403322751353915 13.235415959213174 66125.76122722749 9.831780519922996 0.22768608552536335
0.5568458010799108 13.208905869518263 57682.74862990255 10.239310479815753 0.23037683209923437
0.5736459872689891 13.18551978571299 50384.09330761857 10.67318858315315 0.23324154423068105
0.5907076408309062 13.165119980788477 44078.575483058725 11.116786367817928 0.23606316852026676
0.6080518270961984 13.147417162417856 38613.314826638634 11.572061415008415 0.23885946014984125
0.6256638156611322 13.132128089578648 33872.257174383194 12.056537877138434 0.24183510637543643
0.6435377062908918 13.119027777816429 29750.25621001743 12.546704290552475 0.24471476481101617
0.6616893802866485 13.10804827069239 26164.769154931986 13.055256109246745 0.24763499948969647
0.6800949164069607 13.098871872549685 23037.1772738658 13.596205163689563 0.2507412673863273
0.6987523475980458 13.091449601882692 20310.15583318373 14.138145355494371 0.25369244548464154
0.7176784777167677 13.085632478300314 17926.443835093414 14.706395150933988 0.2567482596803672
0.7368516703427981 13.08100122248894 15839.16806460605 15.310645524818904 0.25999767021268705
0.7562582143232185 13.077750886488264 14010.960797782145 15.909906260174356 0.26300239791112395
0.7759204202798142 13.075601394322016 12406.952001064648 16.544948037035535 0.26617852006585996
0.7958132266341722 13.074548551713349 10998.555898480705 17.215184725247983 0.26950988706549134
0.8159401235468418 13.074274087129526 9759.542706091906 17.883703692575487 0.27264513107391924
0.8362952441491216 13.074810972715843 8668.857803234729 18.59363623519917 0.27597459793937984
0.8568730401323902 13.076070755525738 7707.139436553995 19.33537107022647 0.2794037841176821
0.8776508348923024 13.077916770811738 6859.373781929818 20.08359961677298 0.2827080680948135
0.8986592501488752 13.080380970898302 6110.34889905585 20.878074665445602 0.2862165832212095
0.919843572702228 13.083196084804962 5448.747497276838 21.698978532580597 0.28975737360856085
0.941218879825118 13.086337263701914 4862.503659936779 22.53749811047609 0.2932516089081978
0.9627810002172174 13.089804951483345 4343.567320925772 23.427797991449935 0.2969616204015121
0.984511558768493 13.09339963664817 3883.405831207669 24.336275291129606 0.300602727228092
1.006417934414481 13.097207225392806 3475.0613094253263 25.277027148296632 0.30427905590680615
1.0284696792199122 13.100986443872555 3112.258378365392 26.275885086354123 0.3081824551461127
1.05068000497466 13.104859573818155 2789.6896611415277 27.28241568517155 0.311942209608258
1.0730271762715653 13.108658929608278 2502.6225775718444 28.33929265606644 0.31585254601051704
1.0954907543983585 13.112385981877555 2246.946330662562 29.455873947984966 0.31996699784097804
1.1180685619082764 13.115796502423269 2019.0631695177274 30.57697231648647 0.32390737262800373
1.1407476025819103 13.119163205346274 1815.899874436154 31.766625273799114 0.3280886993072772
1.1635229439467043 13.122166550256562 1634.3667394077906 33.002353614549406 0.3323548538808553
1.1863738886493715 13.124878192835315 1472.1954885363175 34.26676108459154 0.3365862056024415
1.209291238378113 13.127191498425304 1327.0975701709528 35.60881623571294 0.3410774060332424
1.2322359628358028 13.129005624988524 1197.3661237589683 36.97697585336629 0.3454827225281742
1.2552425032685428 13.130456200617013 1081.0995615617396 38.40585242343196 0.3500112968072324
1.2782673787570247 13.13132299613784 976.8447382215304 39.91512598633714 0.35477536845215263
1.3013095027196004 13.13173530268245 883.3443101386173 41.44002201790946 0.35939791652814834
1.3243409779433726 13.131478616710886 799.4614462686993 43.05839034308365 0.3643038151814963
1.3473436005532289 13.130624702370689 724.0621659816861 44.7303999618178 0.3692637136149021
1.3703300053395486 13.129063090360546 656.2325026336584 46.4614591257122 0.37429499815398126
1.3932437354370413 13.126796633208924 595.2727403298645 48.29813728097817 0.3796301615030961
1.4160814744312196 13.123767942599727 540.3848898729823 50.154601530572464 0.3848124762769588
1.4388602919836457 13.119965760421172 490.8944198807099 52.12531160946444 0.39031370796460046
1.4615156544934342 13.115340359459294 446.31406596961165 54.162602010162786 0.3958650950596811
1.484050447865356 13.109820512162909 406.0838973255928 56.280708306260415 0.40152542646453926
1.5064493969788308 13.103439975698876 369.7711119360561 58.514044822324244 0.4074607867363496
1.5286903244073535 13.096110433702277 336.9491457171171 60.796191934415546 0.41334651979664366
1.5507671998948973 13.087884077478167 307.27778530407886 63.220111727600646 0.4195978893015557
1.5726377098277124 13.078555823136403 280.42311963622143 65.70465334640669 0.42583223490999395
1.594305593728798 13.068250618806365 256.1258041345567 68.32312099562563 0.4323620988061997
1.615707130796834 13.056880193105656 234.12432675288775 71.04337986132116 0.43902769496280225
1.6368975657821183 13.044528820681984 214.18306686964948 73.87945654392946 0.44587309300629097
1.6577982632203214 13.030934274194406 196.07844566513845 76.85458722288719 0.45297463275552846
1.6784079948399129 13.01630710450337 179.65482361270472 79.93395000218888 0.4601574706796015
1.6987068234477518 13.00052265775987 164.75120864352627 83.1864924267586 0.4677080018649137
1.718683311605147 12.983486085428067 151.18422301347584 86.53837383396683 0.4753089069508098
1.7383047975113237 12.965204343293376 138.84815324344518 90.09293339428567 0.48335294553889824
1.7575495524106304 12.945775803469155 127.63345345043075 93.75094463415712 0.49142935386520736
1.7764088096601014 12.925064767931012 117.41781702685573 97.63448654765278 0.4999904042220176
1.7948516880624907 12.903017563874434 108.10733158164356 101.59763978160593 0.5084389364001675
1.8128740705574304 12.879692451924285 99.61624473002934 105.81350705675257 0.517426196854227
1.8304421417126697 12.855096541537224 91.87305131513268 110.3021419742103 0.5269949352545542
1.8437348067014314 12.830142767276541 86.0141072411589 115.35002156630298 0.9273705873903999
1.8498229168197242 12.800561628269943 82.29165349440146 121.45680022823369 1.2880013633937908
1.850076633215703 12.765452781072241 80.05682123113303 128.24006816644052 1.6585881264560087
