M[M_sun], R[km], Lambda[1], P_c[MeV/fm^3], rho_c[fm^-3]
0.23848912294887037 16.21570186450063 2784644.0411725277 3.4469561053153734 0.1694538074003404
0.2484881061555978 15.872437677563228 2284900.68756568 3.6328402706461635 0.17193610463647235
0.2587754383475974 15.568733383471631 1883625.54968186 3.8175566435420487 0.1742247112283089
0.26935626337366203 15.298917226996151 1559415.6695463269 4.013905483155569 0.17663198462030968
0.280214660677104 15.058937532847365 1296307.74477732 4.218227128464162 0.17906536890982164
0.2913672916853193 14.844559719781543 1081690.7163386163 4.4253972549243255 0.18140056993559744
0.3027963510809081 14.653023966592233 905849.2981889241 4.647606441912975 0.18390528975335788
0.3145135787253338 14.481198190057691 761125.645361834 4.870321300414803 0.1862728182620505
0.32652286756037835 14.32719574016419 641449.6754787143 5.104211426468192 0.18871473760654967
0.338800910576496 14.188831943754973 542345.936369507 5.351652601044356 0.19127113241397975
0.3513761032171427 14.064488591749893 459788.81589501986 5.597933598700597 0.1936555745858577
0.36422828158098086 13.95249750600235 390858.9509580375 5.86130528601197 0.19620548531417317
0.3773604567726501 13.851868644650754 333172.14243385114 6.132069147278336 0.1987301694285006
0.39078303213393545 13.76117965801043 284651.14920770284 6.408922621250048 0.20119916743115784
0.4044907663768734 13.679497183650726 243741.46402356212 6.704739059836033 0.2038372784345856
0.4184889455199841 13.605932452602337 209159.02715105313 6.99142876745107 0.2061613269381952
0.43279821454400225 13.539858192124793 179847.9950265296 7.286997814066976 0.20847230866488686
0.4474026614880107 13.480449749036897 154923.01011240826 7.601934137769888 0.21093471837078098
0.46228842687943866 13.427134254004386 133727.92047356896 7.9378137687837125 0.21356087864882115
0.477458897870653 13.379536808482124 115659.57166624915 8.29636429717544 0.21636429710111157
0.4928777305839167 13.337055061581587 100242.96376431051 8.679481555486099 0.21935979677630826
0.5052448636212675 13.303120301325933 89479.14236829424 9.100616805366528 0.4024672805252471
0.5110259554457846 13.274120872596349 84245.46056033559 9.618739361744161 0.6320499906997642
0.5121603594791918 13.243526649903409 82087.32733145951 10.257812937664905 0.8968253817891765
