M[M_sun], R[km], Lambda[1], P_c[MeV/fm^3], rho_c[fm^-3]
0.23848912294887037 16.21570186450063 2784644.0411725277 3.4469561053153734 0.1694538074003404
0.24855798257234477 15.870144963457436 2281749.8021972664 3.634167559380385 0.17195382925088823
0.2589218040785795 15.564709459272592 1878502.2856824056 3.820164042704504 0.174256678428311
0.2695773640683377 15.293648812141114 1553388.1063511465 4.01810863499082 0.17668351604568228
0.2805234685804503 15.052451149263012 1289705.307304511 4.22373799294966 0.17912748682527274
0.2917563146928638 14.83756602538678 1074981.9846374367 4.432783884836516 0.18148383129206183
0.3032805636959601 14.645366975189209 899176.3061195188 4.657121299250679 0.1840125402773343
0.31508516605704545 14.473415266604299 754780.3349683892 4.881222363186003 0.1863866303177613
0.327183332032122 14.319189351235332 635570.5733207923 5.117556747103605 0.18885406882658895
0.3395730444258381 14.180857492772178 536782.9122860958 5.366431056988194 0.19141421439725528
0.35224917545079926 14.056379481681722 454649.77813001524 5.615489501759084 0.19382554724317366
0.36520970695924304 13.944544786398957 386193.83796616696 5.881972528160028 0.19640558131923738
0.3784574933731539 13.843954508593342 328831.4678502323 6.154243507042439 0.19892792186838285
0.391999801522245 13.753480811657411 280689.3874399778 6.434584638922985 0.2014280230401184
0.40582520782914805 13.672096779728252 240165.45923984752 6.734290269673882 0.20410081812227326
0.41993986997138544 13.598810429039158 205940.8363232182 7.032839953156096 0.20659288440628445
0.4343517483642244 13.533099311274903 176971.58316317835 7.347635018172865 0.20918825442261552
0.4490470459750798 13.473967390813147 152367.57113355855 7.681024202339394 0.2119171702758703
0.4640214116793719 13.421060802702751 131467.56548400348 8.01195474445219 0.21445471826281567
0.4793016174495487 13.37369633290249 113627.83935963674 8.364899708985712 0.21716107101749518
0.4948588945364615 13.33145657091466 98401.94301150396 8.731713335907102 0.21991042284628923
0.5106999398101563 13.293724409776964 85353.94565144982 9.102640032139297 0.22255912474204156
0.526828722570634 13.260240932962146 74159.32206035194 9.498010268304908 0.2253823723127701
0.5432300183841408 13.230525042253399 64537.78911086379 9.901966137194561 0.22814949123241415
0.5599229400654075 13.204361612182248 56253.10701132923 10.317272767181334 0.23089158384331546
0.5769025166887016 13.181460896510538 49104.38916761788 10.759716267063174 0.2338128496362693
0.594156636105834 13.161538683622693 42927.281975416096 11.205502363395704 0.23660806066266374
0.6116847670713291 13.144017860913452 37571.965905915014 11.670087471129854 0.2394615345264277
0.6294852018375949 13.129125934315807 32935.91076429825 12.16479817351652 0.24250003928235814
0.6475553072632104 13.116400286242891 28908.577844424493 12.657332276729734 0.24535001901676629
0.6659106430457328 13.105760075432242 25405.175304859735 13.176976969847296 0.24833395181899337
0.6845203179163951 13.096952820882505 22354.431204240547 13.727783386846694 0.2514856872257857
0.7033873631426597 13.089807728042683 19692.45988870057 14.274660659287283 0.25442656876389663
0.7225211723863458 13.084317527137781 17370.441075207964 14.856081965928837 0.2575532139414072
0.7418949980514186 13.080032151513647 15337.62349184876 15.464776432533649 0.26077610861990375
0.7615152486421657 13.077055447736315 13559.37384212315 16.07690376031798 0.2638376255753783
0.7814024223143246 13.075195058836508 11998.98622599921 16.72753519126859 0.2670917184204567
0.8015065171442294 13.074358582317663 10630.174834900365 17.40118816749523 0.27038221261847295
0.8218742300623496 13.074498233087231 9427.001396436786 18.086554316265943 0.2735964671370885
0.8424314848915935 13.075065733650963 8367.767088551815 18.814892665022217 0.27701225420619
0.863223512217374 13.07655522810878 7435.635282853204 19.56059681281995 0.2803984131196416
0.8842493571362267 13.078688387463716 6613.358342721742 20.32871041403038 0.28379051233426117
0.9054818937175756 13.081372415324893 5888.2115546040595 21.144890940311402 0.28739488194550467
0.9268798094977995 13.084139512520254 5247.034510664121 21.970504226254178 0.29088886139799786
0.9484911696004544 13.087435006747796 4680.059825514076 22.832481182406003 0.2944808470678121
0.9702725992726512 13.090944521050424 4177.9426205593445 23.74836760724638 0.29829748147981666
0.9922439981939539 13.094797440000232 3733.475362311221 24.662380775523246 0.30187710254335587
1.0143759701054627 13.098590223660196 3321.2076350198927 25.63078800327628 0.30566150460107133
1.036661198085964 13.102619820940447 2989.0076610787796 26.646847763935494 0.3095906734815761
1.0590765548284025 13.106281764028232 2677.683731548776 27.672926237686028 0.3133870586030002
1.0816351528746746 13.110032663793504 2400.8685714263047 28.762406381019296 0.3174180233996001
1.1043161087445938 13.113691322687611 2154.5878105738666 29.88730605053089 0.32148337162846086
1.1271146484302783 13.117178605672386 1935.1288161452176 31.043753026080406 0.32554798775227006
1.1500123233329833 13.120439298073027 1739.4583827823055 32.27188077015426 0.3298645434925694
1.1729851000339078 13.123315855525872 1564.8907086333747 33.5178709970586 0.33408003774418316
1.1960532048591994 13.125945938919589 1408.9399639123674 34.82406247078539 0.33845122003472344
1.2191465259921968 13.128028333659508 1269.6103592107343 36.19991981179727 0.34301997936549883
1.2423119517554155 13.129736264998515 1144.880811207167 37.59227934281452 0.34743281927865977
1.2654975448547359 13.130960438443232 1033.2911363772432 39.07061052700419 0.35211813130413677
1.2887090275602624 13.131611731643732 933.2371844824215 40.59520878869743 0.3568369617571905
1.31192670611779 13.131669243794585 843.5191711798129 42.17402830711303 0.3616229727219324
1.33513104789135 13.131177668657942 763.0800124554302 43.85103225250529 0.3667066185579157
1.358303486517762 13.129955347734123 690.8570306351193 45.54213498780575 0.3716230032170519
1.3814293949266787 13.128088667654104 625.9146433208332 47.33728050967389 0.3768405533146772
1.4044880246692297 13.12540405649372 567.5721141771353 49.19723050268559 0.38213997772333974
1.4274623585435449 13.121931635597107 515.033499953742 51.12395603639738 0.38751842667581227
1.4503646759879112 13.117731621596151 467.70641984249863 53.16414605230092 0.393196866545812
1.4731315569592611 13.112620620615552 425.0810922782897 55.237060065942835 0.3987364281403389
1.4957777748115184 13.106593887020022 386.6386874232038 57.43909778463787 0.4046210540803947
1.518265122021258 13.099704817197772 351.95913749550846 59.70685336073363 0.41053707950114154
1.5405779486273294 13.091758226305913 320.61483113256423 62.081506284108784 0.4166613881155083
1.562716900392161 13.082903410880327 292.3040065042651 64.56582973269381 0.4229922673428757
1.5846436266166015 13.072960892814182 266.6925025574608 67.13347378309116 0.4293953887211361
1.6063255197035442 13.062031779874829 243.5435376533101 69.8511243153346 0.43614996467014705
1.6277963884806197 13.049980336830494 222.54655499090558 72.63465251356165 0.4428685271825735
1.6489737600557555 13.036850156714351 203.5319269872437 75.59404002600039 0.45001155882618266
1.6698687616635957 13.02255366209121 186.29679717755192 78.62983864370133 0.45711553596962784
1.6904669905664358 13.007076709339342 170.65392434343835 81.84638393506971 0.4646183620928229
1.7107251776549117 12.99041502603918 156.45867048141793 85.17054629521851 0.4722071482568588
1.7306409332052946 12.97251439538788 143.54464242167774 88.67551760142038 0.4801552081643299
1.750179843935537 12.953426905503813 131.83236572874793 92.31463012312504 0.4882581600892949
1.7693494642149763 12.933050985081206 121.16016609694125 96.1440450580597 0.49671300525988704
1.7880805641812418 12.911297766907582 111.44783235815638 100.12875544129393 0.5053573122434822
1.8064016809604417 12.888299866727783 102.59884681351555 104.32358479403948 0.514377835853977
1.8242522989874053 12.863962349127318 94.54489041432426 108.68936168483653 0.523588448093826
1.8416398820629842 12.838239854355166 87.19081107459292 113.29616791157528 0.5332318345140926
1.8585341376800908 12.811191398539068 80.48037388845547 118.08452566970992 0.5430739685310324
1.8749250069927255 12.782631750079867 74.34955428044134 123.15691986005417 0.5534543538104103
1.8907648612125123 12.752764987180889 68.75328716428884 128.41548067108238 0.5639951689074135
1.9060666833633113 12.72144632436818 63.63518986734313 133.98877108591162 0.5751161091339276
1.920792537024535 12.688646861080267 58.951403077717195 139.79972670368142 0.586504992853006
1.9349326588491 12.654532652993288 54.668086624013085 145.9284004269478 0.5984039061460923
1.9484358424202497 12.618726221880324 50.7354300841291 152.37342872283827 0.61076512658389
1.9613339742203295 12.581534650421968 47.1386537668598 159.12770636272393 0.623540206336592
1.9735521700906546 12.54271280680929 43.83581257178248 166.27618823880312 0.6369706896072017
1.9851186689340108 12.502462834884929 40.80873463463768 173.7571595509963 0.6508058304282106
1.9960111841000097 12.460723831303277 38.02787161426557 181.65793504934624 0.6652762807263277
2.006188054964665 12.41745915552094 35.474998215685375 190.01626695043885 0.6804529041892932
2.015648444952524 12.372642204632601 33.12793854326933 198.77383251522267 0.6960751731682663
2.0243761852590128 12.326330702340389 30.9692500328602 208.0488534573682 0.7124888343073206
2.0323566922272374 12.278514538973047 28.98508570847443 217.86947203746547 0.7297193082450624
2.03954510637416 12.229039798632845 27.15719769750138 228.19981522483454 0.747580619005224
2.0459863524150013 12.178173581898688 25.47382705057633 239.14307938494593 0.7663111478701745
2.0515996879099356 12.125665243793918 23.92476944803699 250.74466038950627 0.7859724952498026
2.056439092584381 12.071728653588403 22.49558976939128 263.03229785102934 0.806560423566371
2.0604410889496245 12.016253326787963 21.178915039358916 276.0258134881025 0.8280544335058013
2.063641816149943 11.959447507819561 19.965565471911543 289.82551996384154 0.8506653368051571
2.0659326836620133 11.900823279511771 18.846301913703233 304.4879645210694 0.8744424420498165
2.0674486590007612 11.841045159024148 17.81302893382807 320.07590711306227 0.8994422016455473
2.0680554767908754 11.779568146481948 16.858767758418495 336.6468795961168 0.9257092291279507
