M[M_sun], R[km], Lambda[1], P_c[MeV/fm^3], rho_c[fm^-3]
0.23848912294887037 16.21570186450063 2784644.0411725277 3.4469561053153734 0.1694538074003404
0.24856430814024258 15.869893305041417 2281428.8105844012 3.6342766482056357 0.1719552860231148
0.25893315384261834 15.56436009237587 1878189.6083913466 3.820378396859518 0.17425930645022775
0.26959545640172144 15.293173177823034 1552931.1826147046 4.018454271713646 0.1766877536163641
0.2805445031700144 15.052112638739626 1289266.592910992 4.224191266429505 0.1791325960787794
0.2917890516599397 14.836945588390146 1074383.1736088465 4.433391609602454 0.18149068150507786
0.3033179190100423 14.644839952960117 898719.7576208207 4.657904343797804 0.1840213666774573
0.31513295134976255 14.472799892840515 754264.7975730483 4.882119652987601 0.1863959984315894
0.32724611826951483 14.318511318416526 624512.7625288666 5.1186555404388825 0.1888655407290001
0.3396372057253916 14.180195560168395 536348.072405746 5.367648042500366 0.1914259970017006
0.35232101429667273 14.055748421677654 454247.4103521778 5.6169356146458105 0.1938395482119257
0.3652923539491542 13.94385927232912 385752.1509102942 5.883675422710483 0.1964220683954593
0.3785491537571419 13.843351313942192 328487.12499735627 6.156070817441996 0.19894421794609504
0.3920990336807418 13.752887571331334 280356.9959173197 6.436699967030719 0.20144688767922886
0.4059370939048418 13.67144329203641 239861.87168774553 6.736726910276874 0.20412254824794474
0.42006133937876916 13.598255950362892 205666.40421675835 7.035405924771075 0.2066140399024544
0.4344820547856806 13.53253555463758 176719.1679734725 7.350557522144931 0.20921234939748845
0.4491900382791669 13.473463914749495 152149.82559654614 7.6840839264054415 0.21194063198658106
0.46417948946964205 13.420630766375604 131272.28307254016 8.015408430529371 0.2144812008415971
0.47946651930895773 13.37327169890384 113452.59253305798 8.36878966004068 0.2171908988399918
0.4950383454035462 13.330924865803413 98235.22619113687 8.735749446029121 0.21993924377678642
0.5108881127831998 13.293257384428118 85210.3554653553 9.107155243649574 0.22259136682493416
0.5270312028559251 13.259740370464815 73304.9185607227 9.503054614900647 0.22541839282713774
0.5434437343871212 13.230179400824566 64425.88195141867 9.907164614883891 0.22818381456421433
0.5601477811975839 13.204004084335939 56152.62849588681 10.323049219536975 0.23092972329541647
0.5771399104405306 13.181130829192561 49010.69759097521 10.766129607249287 0.2338551941871764
0.5944049014577464 13.161138658569552 42840.51650837287 11.212078041190733 0.236648448364319
0.6119507615197846 13.143772513436835 37498.23012104688 11.677355758484032 0.23950617622426565
0.6297686197837425 13.128876730980837 32867.01269415069 12.172828178283833 0.24254935943564757
0.64785570156339 13.116189373648128 28846.184683451247 12.665537923935412 0.2453971379428033
0.6662230869075555 13.105635802032593 25349.807192918463 13.186008645179093 0.2483858140099068
0.6848449295349617 13.096831176564846 22304.012992981825 13.737020289078977 0.25153535949525674
0.7037245312424237 13.089783665159022 19650.640220408066 14.28479367213988 0.2544810599485287
0.7228771660938637 13.084233784921233 17330.5194071226 14.867196721559308 0.25761298453580106
0.7422634639755343 13.079963418020094 15301.463411734423 15.476117924873584 0.26083283239210453
0.7619082394200318 13.07698326921035 13526.373741395772 16.089308194039823 0.2638996655831328
0.7818079426304677 13.075176810962445 11968.97049494047 16.74110269885635 0.26715957547018815
0.801930031694911 13.074331768348337 10603.18995848501 17.415009064799264 0.2704470303537674
0.8223079893555367 13.074533329096365 9403.184154240484 18.10163267805804 0.2736671821740224
0.8428892780868312 13.075161600442787 8346.47635898055 18.83134549026059 0.2770894152506351
0.8637012069079529 13.076620013503648 7416.0179253189735 19.577344061434545 0.28047237135808845
0.8847338596766775 13.078729872552906 6595.825451763132 20.346943259705682 0.28387103118121043
0.9059824465458804 13.081447670151558 5872.0222864616735 21.164746183201192 0.2874825655299464
0.9273899983443658 13.084132636940462 5232.338037607396 21.99070887135995 0.29097305714727595
0.9490264305249386 13.087560480146156 4666.918058552778 22.854439963324868 0.2945723525608815
0.9708266622973177 13.091048744648178 4166.295079896983 23.772240701749062 0.29839696420117684
0.9928078438239938 13.094811195513293 3722.589967531521 24.68666465412334 0.3019720005960653
1.014955874873658 13.098665481569004 3329.234359901097 25.657141912629733 0.305764492048839
1.0372480270865745 13.102528053786502 2980.061558445067 26.673707036414008 0.3096900500351422
1.059702994805318 13.106569501700267 2669.8106847892823 27.702027937881297 0.31349473190914184
1.082278349509999 13.110184646151877 2393.5385680945383 28.793950816532686 0.31753473457589937
1.1049652976136484 13.113837229236948 2148.022919404349 29.9194686933523 0.32159641511368775
1.1277818347659219 13.117318241336026 1929.1292581616215 31.07856532642774 0.32567034410780593
1.150701947740779 13.120577231156133 1734.0266376173095 32.309578569736374 0.3299970416418605
1.1736976388411007 13.123416613728795 1559.8460518106397 33.556332098843995 0.3342087481900715
1.1967655922089973 13.125966305430447 1404.3282929338236 34.86565874286195 0.3385904223580511
1.2198881300373698 13.128184299641958 1265.49000344215 36.242448150787986 0.3431547654947693
1.2430612482051902 13.129792724774862 1141.1312785983039 37.63822210707127 0.3475784268313908
1.2662674842762374 13.130998130100101 1029.765529846155 39.12026780941543 0.3522755113722312
1.2894797590713083 13.13160749789972 930.085468775498 40.646008105069 0.35699095408013803
1.312716219721866 13.131653929706568 840.6600691970463 42.228879825034504 0.36178924883084973
1.3359217102847767 13.131192267272912 760.5355138005289 43.90778383356743 0.36687279833367503
1.3590957145762168 13.129899904719359 688.4851419815325 45.602819765666936 0.37179938215948133
1.382243529690112 13.127973519839086 623.7679522408636 47.40278638171671 0.37703094465894904
1.4053173251216295 13.12530208998534 565.5503970245716 49.26447463535829 0.38232768953210816
1.4283193056872916 13.121837767668733 513.1930178704948 51.1964886618746 0.3877209012974915
1.4512067204661308 13.117537229901822 466.04856626217764 53.23876159853038 0.39339626575462006
1.473995518538732 13.112444838122226 423.55999197138857 55.31749299406966 0.3989513734572475
1.496647130700121 13.106381441015301 385.23441060941343 57.52585535371153 0.4048529010815304
1.5191389874021526 13.099382532475557 350.6609424632096 59.796187441871645 0.4107674750580183
1.5414554658001698 13.091449765447395 319.4491870385282 62.1778152450792 0.4169097721187055
1.5635991593360294 13.082509940428784 291.2240898740563 64.66522750272469 0.42324014281694605
1.585531288759299 13.072591917302429 265.69862155478245 67.24058868396767 0.4296625089676619
1.6072260985767342 13.06157070510308 242.62108928712334 69.96191422855959 0.43641737671153485
1.6286726673521903 13.049486657477795 221.721764681103 72.75400802940452 0.44315661389745004
1.649869161943269 13.036266552305449 202.77068528689273 75.72271054702362 0.45032212903687846
1.6707530875463183 13.021886850147101 185.59799458218225 78.76306622887955 0.45742629901378196
1.6913414931500028 13.006385460603623 170.0162170174108 81.9899814728897 0.46495331380666116
1.711597281337209 12.989671376094517 155.87491865642068 85.31952895654396 0.47254498928719585
1.7315055441612586 12.971710815469743 143.0156844418911 88.83608094338832 0.48051931016386606
1.7510517709648972 12.952495416427181 131.32626212290307 92.48155763927863 0.4886267141185057
1.7701925609940488 12.932065238232958 120.70276319665089 96.3239483139684 0.4971102080180727
1.7889422027951616 12.91028257058879 111.01985168108929 100.31615398239133 0.5057602923941372
1.807238033887778 12.887194335866756 102.20956512472719 104.52556959211722 0.5148121821614922
1.8250832342853271 12.86279263102014 94.1848044835305 108.90014407442685 0.5240296769915401
1.8424622970013496 12.83697781715815 86.853024389325 113.52339865128734 0.533707494596535
1.8593397625080326 12.809803366948497 80.17082904283048 118.32208270661857 0.5435601163887114
1.8757124558456948 12.781242573601086 74.0618095223877 123.41142876464953 0.5539727172439971
1.891543617965551 12.751274928194857 68.49099552188788 128.68377807970282 0.5645325329994729
1.9068224632262747 12.719829793076533 63.386035232904064 134.27037249120824 0.5756680193309777
1.9215184058531212 12.686953296083976 58.723645621048455 140.10338913630554 0.5871001404263987
1.9356217370671802 12.652591733700323 54.45410502469258 146.24764276557352 0.5990161959204205
1.9491141744417886 12.616778485373157 50.54195208860487 152.71786006896505 0.6114257275308053
1.961973908601427 12.579431325283307 46.95683471151559 159.49040883651395 0.6242230347939598
1.974185411226368 12.54063307860878 43.665340046023516 166.65883657280966 0.637678350867348
1.9857172648089836 12.500272828638584 40.653676862741506 174.1701834657958 0.6515696676072653
1.9965614878461777 12.458404699902792 37.885696092693614 182.09436909375435 0.6660687349189562
2.00672754534601 12.415050411806748 35.34088048245893 190.4803420296779 0.6812840100727754
2.0161465296282928 12.370176330332782 33.005062239003585 199.27278248965771 0.6969650337717388
2.0248373643299216 12.323722101892594 30.854576761822198 208.5777760824184 0.7134173858375862
2.032772946990204 12.27572325838266 28.87732193274431 218.43103388499367 0.7306902566915782
2.0399263910667096 12.226185895416288 27.057857322884768 228.80697983670987 0.748630415281938
2.046316210563015 12.175141373594192 25.381285107772822 239.78872499247564 0.7674096952264524
2.05190921654876 12.12263482955529 23.839156656801478 251.4322039741013 0.7871244740641584
2.0566902695069915 12.068544207602947 22.41682144064571 263.77658973203944 0.8078074841132681
2.060650055760671 12.012983943686743 21.105572379270427 276.8196795079385 0.8293662702424816
2.0637848172017543 11.955902029669053 19.89482615440623 290.6734327309564 0.8520477391540382
2.066063878785137 11.897289260970071 18.780753219285177 305.3948030376928 0.8758996027287043
2.067482571117292 11.837238346621932 17.75231076479364 321.04701188024626 0.9009815220224292
2.0680933401264325 11.775860202298285 16.803657433078413 337.69962534632873 0.9273765953308793
