M[M_sun], R[km], Lambda[1], P_c[MeV/fm^3], rho_c[fm^-3]
0.23848912294887037 16.21570186450063 2784644.0411725277 3.4469561053153734 0.1694538074003404
0.2484899064960059 15.87240364286562 2284682.484513084 3.6329050027389873 0.17193696906887207
0.25878576137561343 15.56832717339859 1883188.95912539 3.8176837786436493 0.17422626992836476
0.2693656317410774 15.298672068739597 1559068.977862135 4.0141103761752515 0.17663449664694278
0.2802310867772902 15.05857775080305 1295973.409788327 4.218495717080797 0.17906839641394975
0.2913858254724548 14.844216312833616 1081344.7004602677 4.4257571771584265 0.18140462694316237
0.30282485305741946 14.652509691244282 905437.4677911393 4.6480699485151105 0.18391051435359948
0.31454206101468607 14.480742738502467 760803.9083295828 4.870852248905045 0.18627836160588945
0.32655205537950277 14.326880440702402 641209.3881808373 5.1048612632312915 0.18872152219805577
0.3388398565748211 14.188467689049173 542042.9290634833 5.352372121816392 0.19127809866671022
0.35141683388480455 14.064006678785445 459506.12856574 5.598788133066132 0.19366384801254466
0.3642752622997199 13.952188247930938 390686.507866431 5.862311007787209 0.19621522250639215
0.3774160610320934 13.851484347703968 332949.67602130363 6.133148086912464 0.19873979148511936
0.3908455022620247 13.760686724768915 284441.9583943956 6.410170942175003 0.20121030004158233
0.404558763957365 13.679133862369504 243556.6343069731 6.706176192826215 0.20385009488377587
0.41855210892526395 13.605660775954496 206439.18240138624 7.003236480017271 0.20634881461262466
0.43283472198713163 13.53955409629501 179755.82412647197 7.313927791392388 0.2089103506831936
0.4474114096964702 13.48017913546896 154892.31074873224 7.645650293694903 0.2116452812202158
0.462262886632032 13.426992576048805 133734.471404659 7.972135458741353 0.21414938727809593
0.47740528393047355 13.379317631902666 115681.96893943223 8.320063492109433 0.21681727062013606
0.4928200799749816 13.336598764861495 100243.65639665374 8.685195211324222 0.21957824765905928
0.5085224783030824 13.298625102373197 87018.65857724776 9.05061504327352 0.2221876263084292
0.5245030546683314 13.264640218356687 75655.54386249857 9.439905723703292 0.22496746117533667
0.5407612584466184 13.234739099146683 65888.23345918894 9.842088488263522 0.2277541446454907
0.557299136807628 13.208189446937576 57467.16973184169 10.250757469321899 0.23045241169049413
0.5741242150105172 13.184899600769816 50193.632133738385 10.685889654009703 0.23332540398641718
0.5912149041302045 13.164575025517053 43907.99504592028 11.129808429374402 0.23614314980181267
0.6085789959358017 13.146866074457845 38459.29357632116 11.586446033916921 0.23894781023556788
0.6262276397499005 13.131688889940344 33732.63823939788 12.072419753148694 0.24193265258892535
0.6441275040934195 13.118620932299514 29624.721568670615 12.562933473110864 0.24480795693022897
0.6623124012225982 13.107772899819267 26050.933890516386 13.073107532406988 0.24773750692956797
0.6807498280978864 13.098686097121433 22935.924684916463 13.615836206604857 0.25085399385822765
0.6994361981488499 13.091234424751809 20219.210630967624 14.15816086249669 0.253800080667132
0.7183939582385563 13.085340883293293 17842.420199101165 14.728335425227963 0.2568662454714466
0.7375927260375735 13.080903305531779 15764.743926623349 15.334421806426775 0.26012414802292266
0.7570326603681442 13.077656062824612 13944.061350321324 15.93437708103395 0.2631247872075587
0.7767293940379396 13.075542706122171 12345.980225235888 16.571695278709093 0.2663122947401457
0.7966548830714301 13.07447727677096 10943.012100282642 17.242433152686708 0.2696376777087514
0.8168132861934854 13.07423257708047 9709.581676951915 17.9134112720922 0.2727844547359793
0.8371953032361099 13.0748174233126 8623.529986239739 18.62602943841791 0.27612651673490984
0.8578149336564898 13.076184927767887 7666.482746906377 19.368346566267228 0.2795494086113055
0.87862872291563 13.078052993542356 6822.44713533747 20.119475530348595 0.282866501245941
0.8996567310677477 13.080511789186353 6077.128291629437 20.917115276544834 0.28638899212796404
0.9208746538573542 13.083267748444536 5418.121982264192 21.738709880225425 0.28992294002001084
0.9422886932925894 13.086443035430955 4834.977512851906 22.580648352448538 0.293431422358787
0.9638889794283371 13.089937162131301 4318.705565828134 23.47467595612498 0.297156967824829
0.9856475958978879 13.093592377616769 3861.0544889565904 24.38396510445218 0.3007890924497651
1.007584862386246 13.097350695395704 3454.650352431723 25.32874463984018 0.30448116074019466
1.0296797263753465 13.101199715822846 3093.634427320221 26.331991527764583 0.3084017113910475
1.0519066385451787 13.105088167280138 2772.978926986083 27.339489986478146 0.3121533786697276
1.0742844156161822 13.108827798125168 2487.4144519468823 28.401111556697245 0.3160812696028947
1.0967878685959151 13.112574434002816 2233.135843006958 29.518911267445297 0.32018855793884454
1.1194037450537346 13.116085018820126 2006.4675038249848 30.645151862122766 0.32414700633916077
1.1421204051216678 13.119344276130182 1804.3625956674043 31.84039947011893 0.32834799678846094
1.164911986110885 13.122272145934472 1623.8508519410104 33.07762987176101 0.33260676659735977
1.187804933754652 13.12501385060821 1462.6184891264868 34.348110876996664 0.3368584434627039
1.210741014842198 13.127258110711535 1318.4067807794884 35.696772802722414 0.34137175352806376
1.233717895758644 13.129135641674347 1189.4859763182214 37.06676529638718 0.34576729445741833
1.2567517765927299 13.130489714378609 1073.8698046904394 38.50282447199653 0.3503186327480106
1.279809961435083 13.13146290368419 970.333922650462 40.01433779217269 0.3550761177050104
1.3028825243793407 13.13180562088743 877.3828792943409 41.547062330488224 0.3597223970046663
1.3259380733769373 13.13144022016349 793.957319336273 43.17393948744467 0.36465408920929226
1.3489696923115528 13.130487689331355 719.0176700876224 44.84873704964728 0.36960765770001164
1.3719663281579246 13.128945885783669 651.6788577945767 46.5890921264553 0.3746659606009668
1.3949091709598256 13.126608014879452 591.073903253031 48.42916531906774 0.3799959259059012
1.4177830371968787 13.12355453543994 536.5153716408475 50.295816735034336 0.38520667812627357
1.4405599580529653 13.119658886644357 487.4044875070628 52.2775955284861 0.3907388080997311
1.463217459590153 13.114892527274076 443.13100668114475 54.29552076559378 0.3961824551963208
1.4857825881000044 13.109342118584445 403.1467937307039 56.38587737382021 0.40170643109402115
1.5082355895683492 13.102927520859676 367.00907594927287 58.60506278140145 0.40757084994761006
1.5305018558864787 13.095495645089905 334.40734755816777 60.962983583754955 0.41380189092388553
1.5496010869032475 13.086663479161285 308.4357982846664 63.623568482576765 0.8609513668106894
1.5510055496560686 13.066931872713479 302.3448952662505 67.5739051842865 1.5306347113264798
