M[M_sun], R[km], Lambda[1], P_c[MeV/fm^3], rho_c[fm^-3]
0.23848912294887037 16.21570186450063 2784644.0411725277 3.4469561053153734 0.1694538074003404
0.2484791862902322 15.872678636602604 2285558.607403131 3.6327010536283395 0.17193424553234718
0.258761160796865 15.569166103728604 1884154.4081656183 3.8172832283775087 0.17422135910740072
0.2693321366738644 15.299549113411299 1560066.9787159672 4.013464860130701 0.17662658249985022
0.2801841986492105 15.059545565281207 1297020.5221552115 4.217649545962394 0.17905885845740438
0.29132648946329365 14.845332173063536 1061624.860463844 4.424623295735284 0.1813918459447256
0.3027481467246706 14.653705536460668 906463.5488316364 4.64660978022845 0.18389405548214405
0.3144537330547619 14.482015072091453 761755.8185865065 4.869179650588243 0.18626089891836906
0.32645292299679585 14.328043853576546 642091.6306963622 5.1028141983216715 0.18870014990891046
0.3387188620483383 14.189629030625555 542931.1382494151 5.350105578849552 0.19125615446197686
0.35128130428874815 14.065291680014113 460342.0097276359 5.596096361081088 0.1936377868275596
0.364127294774876 13.953497873247025 391403.99375630583 5.859143086631168 0.1961845513426664
0.3772461529450931 13.85273457412327 333632.0601248497 6.129749579391512 0.1987094833652288
0.39065681476716524 13.761942617230758 285049.67854919337 6.406239017727162 0.2011752348734663
0.40435361575281603 13.680296732322116 244118.20313012274 6.70164968418585 0.20380972717362314
0.4183289390323567 13.606771837775298 209528.0298626441 6.998470658498843 0.20630952215970308
0.4325952069663445 13.540695204531822 180216.75815525814 7.308502955356165 0.20886562489693905
0.44714315419011 13.481272505207846 155317.49641841138 7.6394936070707375 0.21159452159390638
0.46197713743101465 13.427952397663272 134109.82012510233 7.965729431996239 0.2141002663956062
0.4770991664519197 13.380159392622753 116005.1891369917 8.312852589440778 0.21676197801573005
0.49249167752380657 13.337429656166972 100544.45463511531 8.677714283469674 0.2195248280804967
0.5081696835878775 13.299369490653966 87286.05578254271 9.042251098265586 0.22212790130825122
0.5241250707062369 13.265426311628834 75900.13797736587 9.43056734447465 0.22490077796537253
0.5403596706154964 13.235367178548344 66109.681784184 9.832465534817855 0.22769060838665647
0.5568756518990287 13.208860882368871 57666.79750180686 10.240071154886516 0.2303818545124111
0.5736757030672928 13.185511673981264 50375.12382723661 10.674032556407658 0.2332471166262507
0.5907386618451637 13.16513095602755 44068.937415910055 11.117651668201521 0.23606848318056858
0.6080895190919272 13.147341084094608 38601.966846508025 11.57301721283632 0.2388653306439134
0.6256978273118781 13.132117570248093 33864.1057706399 12.057593112862204 0.24184158761538097
0.6435831686741955 13.119046672307336 29502.210084774306 12.547782601919739 0.24472095675082123
0.6617306453330645 13.108045699121828 26155.475320642236 13.056442152322433 0.24764181005253927
0.6801368830791042 13.09884213460174 23030.803983143498 13.59750938274451 0.2507487565458836
0.6988009087426834 13.091375800125267 20303.791200559855 14.139475119282606 0.2536995964085726
0.7177269091122362 13.085600430795607 17920.902629812714 14.707852721447368 0.2567560978964155
0.7368996816278817 13.081047474230264 15834.362894842177 15.312243092189101 0.260006261274378
0.756309841466255 13.077722212894136 14006.751156437427 15.911531871742561 0.2630105283068001
0.7759705954184357 13.075571869536914 12403.480051749024 16.546724787263667 0.2661874063721923
0.7958673889388689 13.074562666613028 10995.441266436486 17.216994775813824 0.26951837590495414
0.8159995767789684 13.074256875697564 9756.422081173285 17.88567700436683 0.2726543855816788
0.8363528106619069 13.074797847228675 8665.874775871407 18.595787832430926 0.2759846885765332
0.8569276037375942 13.07608395196884 7704.887604577984 19.33756135653667 0.279413456734416
0.8777153719560354 13.07794920157424 6857.0091990184665 20.085982436498384 0.282718590966569
0.8987110555597116 13.080362951933326 6108.34131820903 20.880667548562702 0.2862280337628628
0.9199089278872473 13.083173150183802 5446.446208465493 21.701617308682536 0.2897683697794868
0.9412928734595833 13.086300236849677 4860.456998158379 22.540363809685008 0.29326355070132687
0.962857026966752 13.089821797818203 4342.158048962649 23.43091109578226 0.2969745931684411
0.9845868127653015 13.093448952300887 3882.165664557509 24.339442334088098 0.3006151035957455
1.0064940717764592 13.09717771802687 3473.5963231002333 25.2804614886598 0.3042924768358996
1.028551739884914 13.101025598546203 3111.0641333508647 26.27961068083423 0.30819701425617785
1.0507663976543395 13.104949845293621 2788.606285083949 27.28620558089739 0.3119562318337636
1.073100104855488 13.108607801075928 2501.5562361025354 28.343397388763318 0.31586773310052674
1.0955777113431955 13.112364468993013 2246.0561201017877 29.460059615625596 0.3199817093950231
1.1181537228161733 13.115854497259509 2018.2896535594773 30.581499186152477 0.32392328342013155
1.1408360543737075 13.119112243290976 1815.0134868809967 31.77152334026054 0.32810591476145323
1.1636153560593652 13.122232147940794 1633.719660628494 33.007351446247114 0.33237157917255067
1.1864632311759284 13.124929472578497 1471.6190892731431 34.272161861817104 0.33660427935520926
1.2093866251992162 13.127207674852206 1326.5753386215263 35.61465530578909 0.341096946537237
1.2323322663988059 13.129022723350245 1196.864519056393 36.98293664846938 0.3455016142252963
1.2553440210848876 13.130463131659786 1080.6133821131025 38.41228968217403 0.35003169857249167
1.2783734152611943 13.131401471279245 976.4401566230755 39.92171197152674 0.354795333113701
1.3014103717639776 13.131752686225175 882.9707818530242 41.4471272797609 0.35941945531756136
1.3244457058572887 13.131498820224133 799.0662467978948 43.06605996853573 0.36432706477467713
1.3474566971142192 13.130628145146684 723.7194083522013 44.73825468744208 0.369286543198325
1.3704255686097326 13.129054355499099 655.9708960142483 46.4699303782086 0.37431961965889615
1.393355534342815 13.126792927682718 594.9894970332837 48.30683390778477 0.3796544381125662
1.4161971928548802 13.123742263550866 540.1126340026867 50.163973747248555 0.3848386387936649
1.4389716475915242 13.119968923552817 490.6646784047622 52.13541782430477 0.39034191943513447
1.4616208292594666 13.11529616340706 446.1210921754211 54.148621014567816 0.3957815126874665
1.484183350055919 13.109788821363532 405.8589797066265 56.221311569776844 0.4012353229319818
1.5066184494685944 13.103429874430056 369.50524685089573 58.4212157600832 0.40702386670659024
1.5288701281969255 13.096063875224146 336.7017912304301 60.75807765130132 0.41317278328765583
1.5509190193346043 13.087833679238889 307.10021652139324 63.2360068969367 0.44419195580341697
1.568743641885421 13.0768284716436 284.33654095803917 66.03880794724687 0.6792202828978602
1.5803773091566857 13.05928090930632 268.4249505503288 69.0921435939128 0.9267537395417819
1.586335108624449 13.034103812957873 257.56209693934653 72.58827154781223 1.1640270622290987
1.5882677564396745 13.001028940734143 249.51986237479426 76.64920574538726 1.383817308384101
