M[M_sun], R[km], Lambda[1], P_c[MeV/fm^3], rho_c[fm^-3]
0.23848912294887037 16.21570186450063 2784644.0411725277 3.4469561053153734 0.1694538074003404
0.2484977715064547 15.871910594074453 2284035.538925361 3.633007277592288 0.17193833484731383
0.2587961223121284 15.568183847174588 1882848.2505801124 3.817884654355236 0.17422873270205141
0.26938262494456017 15.298283600153962 1558599.463064426 4.014434121211976 0.1766384658214703
0.280253767837213 15.058045975133938 1295413.0627916325 4.21892011641591 0.17907318020097363
0.2914151783741269 14.843686197609658 1080850.0665016214 4.426325911853468 0.18141103766398367
0.30286004103952563 14.652036300639807 904971.4711559226 4.648802387312732 0.1839187703307558
0.3145850149264505 14.480260908413866 760306.4343046859 4.871691278097861 0.18628712145245122
0.32660712098354716 14.326168207593769 640725.3200061639 5.1058881989761495 0.18873224387452514
0.3388984981409091 14.187870067351543 541642.2915450318 5.353509200162921 0.19128910762634574
0.3514838432891215 14.063449163603234 459162.80029985466 5.6001386214277 0.19367692316423155
0.3643545042803003 13.951442281788617 390238.1190149137 5.863900483279345 0.1962306114825238
0.3775004691346015 13.850869187360441 332625.1818993388 6.13485330384648 0.1987549987250495
0.39094037938448034 13.760157402909527 280325.7601644128 6.412143925207011 0.20122789523768161
0.4046615261096684 13.678525340664486 243280.36379495353 6.708447673690903 0.20387035210373247
0.41866241622479955 13.60513840706982 208780.12000936488 7.005628103232182 0.2063685326700917
0.43296174090059125 13.539010412069993 179523.2333375144 7.3166502984829 0.20893279675702767
0.4475413011128612 13.479729720335339 154690.52574617293 7.648587072721611 0.21166844505263044
0.46240451372433944 13.426514264972658 132068.96514084615 7.9753506456771355 0.2141740410652153
0.4775584304417416 13.378815666821998 115506.51112850723 8.32368288031796 0.21684502378913606
0.4929878991890787 13.33611859775782 99040.73341026541 8.688950183347803 0.21960506104730657
0.5086973896250007 13.298163248817986 86879.17150459341 9.054813506446173 0.2222176065645758
0.5246906961212567 13.264278789546925 75531.03296741883 9.444593635017002 0.22500093646765149
0.5409589271075255 13.234439038101403 65776.6172923041 9.846919298290203 0.22778604042447034
0.5575178913390907 13.20793970729591 57366.09892845393 10.256122449333283 0.23048783436613818
0.5743523151627125 13.184539674636579 50098.848857880825 10.691842818882396 0.23336471019592656
0.5914491562645735 13.16434041269739 43825.64084307252 11.13591207334966 0.236180638279741
0.6088405513426686 13.146708523973626 38387.34895296324 11.593188805255792 0.23898922422293964
0.6264910946076867 13.131445491954569 33665.72896001597 12.079864900772096 0.24197838055954166
0.6444074857674317 13.118509368901039 29567.076730117886 12.570541436079427 0.2448516438004322
0.6626048404205328 13.10758547940217 26000.75777606849 13.081476577607898 0.24778556412870628
0.6810557731372221 13.09849422024741 22888.06331473326 13.62504024869355 0.2509068458231669
0.6997496476520229 13.091063194261755 20175.02598233284 14.167545136087545 0.2538505454392897
0.7187221200656813 13.085232042082954 17803.95606389708 14.738622885550992 0.2569215672111909
0.737942010173911 13.080846025553283 15729.423000158768 15.344919441216774 0.2601766512937998
0.7573969968103929 13.077644825920787 13911.937206697707 15.945851877050242 0.2631821776898488
0.7771115321809049 13.075510167951599 12316.89100021214 16.584238475818943 0.2663750287643996
0.797054004324725 13.074538297406999 10917.735569172064 17.25521129514649 0.2696976050953236
0.8172320088161679 13.074450272021478 9686.851247168206 17.927343683515595 0.27284979545415333
0.8376223395389204 13.074835627965383 8602.573869534737 18.64122254228035 0.27619776989328254
0.858252067893831 13.076286837421764 7647.842556154399 19.38381263968093 0.2796177089973385
0.8790811204057981 13.078104760852925 6805.315527264283 20.136303249097207 0.28294081485197664
0.9001253783059466 13.080503818643304 6061.07347933536 20.935428858378778 0.2864698675173048
0.9213639379627236 13.08337503927175 5404.054958349105 21.75734728361419 0.29000060484088247
0.9427930522980986 13.086576185037263 4822.335788240902 22.600891113308137 0.2935157769420577
0.9644071332414588 13.090034847729235 4306.785327851401 23.496669263303136 0.2972486171939356
0.9861764345903014 13.09370233074969 3850.546287333074 24.406339023749375 0.30087652664459646
1.0081417094138074 13.097526502774063 3445.12209771585 25.353010137124585 0.3045759869612542
1.0302504898325815 13.101367487344223 3085.063496581232 26.358318485134625 0.30850459351417636
1.0524998089398019 13.105181433670385 2764.9961092636936 27.3662707268136 0.3122524646624184
1.0748870594150353 13.108959307895697 2480.2310201586033 28.430121007086637 0.3161886015942154
1.097395287045862 13.112639138256673 2226.7448646871294 29.548492115378814 0.32029252707362427
1.120024745177878 13.11622031908299 2000.67579615941 30.677148425015453 0.32425946609580314
1.1427503762279518 13.119395894109429 1799.0193572432815 31.875024565507356 0.3284696951663199
1.1655572075651024 13.122257694405414 1618.9565839636166 33.112959505177834 0.3327249975543284
1.1884680728935968 13.125120514714979 1458.2335585440462 34.386294310242846 0.3369862246881635
1.211422985490676 13.127387645714592 1314.3869500074672 35.73806092723288 0.341509924632607
1.234420975521674 13.12920427462157 1185.8027040818822 37.10891326676891 0.34590087507493555
1.2574649441482335 13.130555370450784 1070.4927642116243 38.54834806286733 0.35046291180403744
1.280542236634379 13.131550449353588 967.2641639950373 40.06091233322648 0.35521730310433014
1.3036043061472231 13.131735273014632 870.9082228137664 41.59731641836363 0.3598747365297288
1.3266882715607924 13.131492277007238 791.3909576088084 43.22819333377963 0.36481855354508863
1.3497158713938695 13.130464414273426 716.7168198356218 44.90429937392859 0.3697691483462833
1.37272655769135 13.128835662257003 649.5360969010355 46.649024653596236 0.37484015314359126
1.3956843097431935 13.126547651552427 589.1334160707689 48.490691617784286 0.3801676763971318
1.418551829382019 13.123379187645355 534.7687757527952 50.36213275747618 0.3853917991179217
1.4413506744267246 13.119454541634827 485.75539914909365 52.349116355717676 0.3909384582894302
1.4640227735410172 13.114705140750049 441.6232163908216 54.39255975249579 0.39647962372291007
1.4865917108832047 13.109121832609814 401.7788371077106 56.528541803971116 0.4021877254874222
1.5090153243283617 13.102623066964588 365.79528968489893 58.76924494176308 0.40811895630482925
1.5312720324326519 13.095186256545476 333.32158164827666 61.0710853999416 0.41405547915756014
1.5533718626898854 13.086788821927716 303.93524628697946 63.51640582998226 0.420362041614401
1.5752480182842288 13.077368655257592 277.3797739466682 66.01012769300829 0.426594018584383
1.596906785647058 13.066879400427444 253.33856616726786 68.65224281514033 0.43318285390979766
1.6183542867423035 13.05546396245099 231.5579093202653 71.38345569090635 0.4398485311668287
1.6395230666248586 13.042886106506543 211.81692635882436 74.24574738705729 0.4467572040165014
1.6604187460851714 13.02916808824119 193.91634614756893 77.23382987259652 0.4538592438526905
1.681034916793437 13.014326527690486 177.66196425663796 80.34234198782863 0.4611100747254963
1.701319225583714 12.998298347463525 162.90614148498304 83.61016302201386 0.46866873990752317
1.7212956084157454 12.981156915317849 149.48911320870369 86.99455671558145 0.4763433715883434
1.7408930366478046 12.962790155382653 137.29895526051703 90.5671400510205 0.48439993154842703
1.7601117595405253 12.943012135626827 126.19921082930904 94.2615328341519 0.4925566655434235
1.7789392657451524 12.922121903472318 116.09662830078733 98.16795455539945 0.5011408235143011
1.7973719217484458 12.899862036473841 106.8848535405378 102.21109816817253 0.5098351634630215
1.8153568438623031 12.876368400377123 98.49029410798929 106.48505930486017 0.5189742015657549
1.832882532699815 12.851566974604065 90.84100249529232 110.92092748429664 0.5282597648949409
1.8499024133618098 12.825209702505669 83.85436294810788 115.6016063716877 0.5379928060732456
1.8664732872508316 12.79767474798887 77.46680598220988 120.48075093731572 0.5479777162605125
1.8825002648208664 12.76867215300094 71.6376602497835 125.61291115923778 0.5583819942259682
1.8979863499601475 12.738193920851653 66.2975908469437 130.99376598035724 0.569159132105614
1.9129458318357242 12.706418668288627 61.41335464992303 136.62969902714008 0.580292060080987
1.9273087749531899 12.67317238460537 56.94549298002508 142.57947498526013 0.5919530175893157
1.9410748261284516 12.638437558948263 52.848823624338905 148.78013160178205 0.6038733744033447
1.9542342965494293 12.6022603756112 49.09749846542502 155.34447068894636 0.6164178369962603
1.96676341260955 12.564613989607693 45.65324859538373 162.2131061043519 0.6293488205539812
1.9786557788813197 12.52560658348084 42.49586955524641 169.45205931249288 0.6428440744525962
1.9898599191953643 12.484889660140857 39.593853185203656 177.10210571425623 0.6569918989581041
2.000390733708152 12.442743868101866 36.92642216341116 185.1059362656569 0.6715369816387853
2.0101853871303406 12.39902935451681 34.47864926105621 193.578161944579 0.6868088683555003
2.019298142630616 12.353896649632206 32.22448659734044 202.52468604605895 0.7027646950792875
2.027670833425428 12.307199608957538 30.149597161208973 211.92655976621336 0.7192963519979415
2.0353026422171014 12.259051557882245 28.241033760509094 221.88407266039567 0.736660610000823
2.0421543720806996 12.209364562604627 26.48365433552197 232.42808061054214 0.7548843902306173
2.048237501760018 12.15812911753984 24.86314920657758 243.47667600375078 0.7736079177911829
2.0535342238536676 12.105497269871341 23.37065658030471 255.30952940077415 0.7936604899792714
