M[M_sun], R[km], Lambda[1], P_c[MeV/fm^3]
0.2416277750616976 15.618515526848569 2160321.870080337 3.5677787854173952
0.2522362128583887 15.314202097092828 1768166.2824040065 3.759328569333835
0.2631418049598065 15.045966336162579 1454339.4308342244 3.9581977715981798
0.2743437957877025 14.808873035106055 1201649.879087667 4.164720498541288
0.285842907652626 14.59870277813616 997111.1035419521 4.379192485902628
0.29763821779177807 14.411964273791313 830669.5413857689 4.601762775481726
0.30973294008676533 14.245701447213888 694481.9791279627 4.832844312318505
0.32212440680525667 14.097494029193564 582667.6302140256 5.0727340285027545
0.33481749697023583 13.96515118211655 490450.93333979213 5.32174163046898
0.3478066440664243 13.847044547621277 414129.05123939423 5.580123228029731
0.3610975903118419 13.741360444847086 350630.0282212041 5.848274260393919
0.37468954747929806 13.646900070243237 297710.2876289407 6.1265615168021235
0.38858412895557315 13.56244970711886 253443.54210899724 6.41535120376219
0.4027792137110859 13.487056764436515 216277.1815327795 6.715024911210084
0.41727747548248384 13.419688659630944 184986.24343798074 7.0259802191048495
0.43207796757328926 13.359643799963736 158584.64955341368 7.348631334409405
0.4471796968772514 13.306240988362575 136230.77727818792 7.68340976008774
0.46258637280753173 13.258736498872716 117276.54377010149 8.030764997889428
0.47829254227229073 13.21669520247802 101142.37940999554 8.39116528686053
0.4943023691229804 13.179553758380147 87400.94885274212 8.765098379718582
0.5106121189724736 13.146884713600057 75649.92612022057 9.153072359456795
0.5272208613378211 13.118297504316713 65597.10238630902 9.555616498804685
0.5441329047161457 13.0933697001239 56971.895342451564 9.973282165465198
0.5613401025277981 13.07184728084535 49561.26000877579 10.40664377637933
0.5788437030556025 13.053372249590076 43182.880548983485 10.856299804633263
0.5966420330197536 13.037678744641127 37678.70164006353 11.322873843027374
0.6147320745728747 13.024547041792351 32922.782952026864 11.807015728767423
0.63311152034427 13.013739905264202 28805.760363299072 12.309402734220512
0.6517785707811213 13.005001998563321 25036.088013935696 12.830682032056796
0.6707299465448203 12.998172815170625 22143.04945387763 13.371609307914714
0.6899605168772146 12.993080993329029 19448.409199887927 13.932984481071225
0.7094682753884554 12.98955754153975 17104.161621852996 14.515608892331644
0.7292454222018087 12.9874198473132 15060.452449964734 15.120318604983959
0.749293718617173 12.986547591551101 13277.296831518144 15.747986135133466
0.7696040843330996 12.98678681253102 11718.200424056338 16.399522299696223
0.7901707411844748 12.988043621319425 10352.497826417393 17.07587819238567
0.8109893894755731 12.990175612803593 9156.958359734617 17.778047298923763
0.832053409286792 12.99306885987762 8107.753621968129 18.507067763659187
0.8533545129195593 12.996626680813073 7185.317650831466 19.264024820787405
0.8748878620136403 13.000761139972349 6375.392235312731 20.050006683020623
0.8966440004248576 13.005357290785545 5661.35529090706 20.866227306993604
0.9186175451689211 13.010347503716577 5032.480877080542 21.713961704494906
0.9407971276137357 13.01562402747099 4477.805600899005 22.59451430705535
0.9631752285272522 13.021123041102296 3988.360373185001 23.509252007214812
0.9857411428199863 13.026770796510139 3555.184962280872 24.459607925873588
1.008486550853725 13.032481892576982 3172.2898495482077 25.447085470958974
1.0313985129511076 13.038201782165846 2832.8866871411687 26.473262711571913
1.0544683562670294 13.043855274323171 2532.0805528016263 27.539797093651337
1.0776833294572168 13.049373363711116 2265.4788244154447 28.648398664980224
1.1010312326007392 13.05470009859886 2028.451806360309 29.800807677150395
1.1245008655862063 13.05977542677883 1808.8833565127206 30.99903114672051
1.1480784750051625 13.064542892632701 1630.5672919335593 32.24509424881038
1.1717494270897653 13.068942626885768 1456.7415818427585 33.54113103058587
1.1955002627591664 13.072931242889142 1314.9827419899868 34.8893918404975
1.2193184526711462 13.076445430414806 1182.4502345204803 36.29225134894512
1.2431861966653481 13.079446588121916 1064.091434494639 37.7518015369688
1.2670881398003093 13.08187045491251 958.4023255116878 39.270987345808
1.291008542606715 13.083687216796903 863.8294140665043 40.85264891121769
1.314931645431751 13.084831068142888 779.2854156688409 42.499364022517845
1.3388401345507985 13.0852733803156 703.5625605890639 44.214262652554694
1.3627146061233588 13.084965330587934 635.7267800214079 46.00088355087508
1.3865395190022418 13.083854154925481 574.93093796532 47.86192879480148
1.4102959003415945 13.081918877614779 520.3164686974332 49.80183246183526
1.4339637156410392 13.079106159687393 471.3135277642215 51.82351215091656
1.457525045942028 13.075385549411383 427.2202175989682 53.931714994915026
1.480959830217178 13.070707907834427 387.57786808940665 56.1303414219386
1.5042468986689235 13.065040363909349 351.9100935667957 58.423761260756464
1.527367400506221 13.058348233671836 319.76778901175703 60.81705904194173
1.5503010404067987 13.05059674712478 290.8262350075225 63.31520639590131
1.5730252652513697 13.041750338127466 264.72402070805066 65.92349516989432
1.5955133809746467 13.031761688604591 241.13737459104348 68.64747367345736
1.6177616075553065 13.020635594049557 219.83388572262783 71.49332740293492
1.639729986447577 13.008306699997139 200.5761816464163 74.46749096396077
1.6614023615656994 12.994751111016178 183.17011509245376 77.57662189443964
1.6827571314423269 12.979940785867832 167.42398377894918 80.82814415141797
1.7036563612135176 12.963865568473524 153.21625719224932 84.23719833821694
1.722698029122484 12.945881640053253 141.02712644267052 87.89489089796244
1.7395213126074263 12.924839084376517 130.60974200932466 91.83850846494008
1.7542505297967035 12.900188497842557 121.57139564204138 96.08235757214729
1.7670456607656158 12.871696425027652 113.64207845041068 100.64186293377544
1.7780684858851104 12.839335819430227 106.60824101696085 105.53365927736668
1.787443902149977 12.803035074799917 100.29925211796296 110.77573096979941
1.7953178190454464 12.762952618838899 94.60501258297552 116.3876104891379
1.8018104654696037 12.719196587153894 89.41931030786603 122.39052543223335
1.8070195705599328 12.671780918965522 84.6658934377391 128.80754190535512
1.811038935281902 12.620921440410207 80.27167568526335 135.66376086230778
1.813953705448615 12.566718071968287 76.2115112988577 142.98634156297925
1.8158391213155618 12.509317540801392 72.43260250859193 150.80502548171236
1.8167630106419264 12.44884904315736 68.90803893548375 159.15204156036427
1.8167848548205021 12.385459801566569 65.6012400755217 168.0623367275051
