M[M_sun], R[km], Lambda[1], P_c[MeV/fm^3]
0.2416277750616976 15.618515526848569 2160321.870080337 3.5677787854173952
0.2522402720841988 15.314106352364261 1768025.2740638866 3.7594043247293185
0.26314967101968284 15.045820034776268 1454140.236120299 3.9583543371203325
0.274356344674612 14.80862258738422 1201384.0336823303 4.164965080771494
0.28586000104861686 14.598411395965972 996833.0768672006 4.37952922163886
0.2976609429633341 14.41163902343802 830351.9248223823 4.602200780555184
0.3097597697162464 14.245356092626496 694243.0875654061 4.833391047649337
0.32215991755172124 14.097062029615646 582414.704108369 5.073397297049873
0.334856154746679 13.964798343040439 490208.53590884776 5.322529595281705
0.3478527127194914 13.846598272640012 413871.7764085235 5.581037224208314
0.3611493597845363 13.740980654066211 350421.52552820556 5.849329364445812
0.37474884707352796 13.646505780736081 297513.0645153837 6.127767032831303
0.38864962931734076 13.5620700155989 253258.4845980887 6.416716878756723
0.40285194583519934 13.486657025280106 213328.293458189 6.7165609594920666
0.41735678553919753 13.419369749530308 184827.9878932275 7.02769734834795
0.4321641850884077 13.359325900052916 158443.8543414576 7.350540773335548
0.4472749896940365 13.305915593023471 136104.60759668343 7.685523287963765
0.46268753109615035 13.258462607927992 117143.3515129857 8.033094975954302
0.4784043849344798 13.216402655751908 101043.78511879407 8.39372469182434
0.4944211974760627 13.179307086493449 87308.36290486086 8.767900839484833
0.5107392962041016 13.146649944367121 75563.50645790351 9.156132191231954
0.5273590045241365 13.118071454559118 65524.16687226168 9.558948749770426
0.5442781922865632 13.093170030480367 56906.64736365525 9.976902656202538
0.5614949719473221 13.071644813823294 49500.9087541558 10.410569147247895
0.5790079353801175 13.053212252435783 43128.180149452885 10.860547565323737
0.5968154103883363 13.037539818603522 37629.024243723965 11.327462425521329
0.614915464900011 13.024418943577967 32879.09220227527 11.811964543956815
0.6333057722626523 13.013609489786022 28529.386494501232 12.314732232457047
0.651982845076537 13.00491842118083 25203.149833682524 12.836453319380615
0.6709425256259538 12.998113997892291 22110.215365211236 13.37780811201105
0.6901856008344343 12.993029968512893 19420.335232513098 13.939634883705088
0.7097031152946334 12.989515491103054 17078.15253948747 14.52273630634882
0.7294936156206426 12.987399052295531 15038.076871640902 15.127949859582877
0.7495521227269636 12.986533513434157 13256.066175749265 15.756149567202678
0.7698730130622281 12.986808401168267 11699.137961681337 16.408247851674556
0.7904522622392026 12.9880662165798 10335.459673239708 17.08519751713842
0.8112809643190191 12.990203584826443 9141.024881472431 17.78799387216797
0.8323555876483177 12.9931219198165 8092.736436924393 18.517677004515342
0.8536702465971746 12.996691785741387 7172.866117169877 19.275334221081753
0.875214755192603 13.00081957666663 6363.1789967836 20.06210266743311
0.8969830642667489 13.005430802598674 5651.0233860535645 20.87913814299422
0.9189664937440465 13.01042059653673 5022.960821231778 21.7277032722357
0.9411596885514306 13.015713510262136 4469.323553515099 22.609134059479835
0.9635487246391036 13.021219627816922 3980.6143651731845 23.52480028225107
0.9861267093085587 13.026867125063166 3548.289452777075 24.476138145294616
1.0088748821738585 13.032585721165336 3165.8725774620043 25.465097477844303
1.0297229946545257 13.03624248050665 2853.1543760542 26.5284247434016
1.0475237946554135 13.034796144513669 2605.508349757819 27.696537885803796
1.062876754667401 13.027768828028414 2401.928269287768 28.970483400632666
1.0762611415083858 13.015208515035352 2228.834186441213 30.35128869756915
1.0880590086451611 12.997341778210286 2078.0914135678745 31.84012042144061
1.0985913539945613 12.974499971444033 1944.1006636943102 33.43841700011691
1.10811497003353 12.947023908394586 1821.9726204646638 35.1477109775046
1.116839078584423 12.915205903928028 1709.8519451729412 36.970066454999035
1.1249393356175428 12.879337801372538 1605.5044040547084 38.907368344855044
1.1325730676256087 12.839751969938128 1507.2146876375516 40.96238242718938
1.1398596365990583 12.796658216644941 1414.221505840007 43.13782429382443
1.1469017524950855 12.750333449265481 1325.790479636868 45.4365226462518
1.1538273541832074 12.701121372311135 1241.391366036144 47.86184777523621
1.1606791521352713 12.649224692909122 1160.7761475954455 50.41835407964522
1.167521665374321 12.594880415108282 1083.7287237758007 53.11095361395118
1.1744062947550116 12.538355314114227 1010.3268748200213 55.94446554881678
1.1813640775824645 12.479823994892408 940.1394429063021 58.925182002342204
1.1884240093585479 12.419488378514778 873.5075778603464 62.059006388827314
1.1956277229957342 12.357606743134326 810.3313044169777 65.35219132953104
1.2029691947450407 12.294284489648366 750.4840189433207 68.81218488787673
1.2104877951179152 12.22977059916474 693.9486213563893 72.4465576656909
1.2181636062340582 12.16415987123273 640.7775987885876 76.26297859551526
1.2260165194383328 12.097637801608357 590.7668617726333 80.27079941001257
1.2340301547220436 12.030317476712755 543.997388154802 84.47915396224059
1.2422069116106318 11.962356656318823 500.31391649035845 88.89849533469683
1.250526884131813 11.89384242298154 459.6187744963317 93.53931551624805
1.258978252637799 11.824926797934708 421.9333637129642 98.41479222832638
1.267514428318875 11.755746598091552 387.02120203077055 103.54099000149263
1.27601909405695 11.686554370058879 355.02355229176334 108.94416955486096
1.2846041131950705 11.616683689322063 325.3784670341511 114.614255415648
1.29339748959866 11.546221243108873 297.78018241729023 120.54955044787533
1.3023911989283494 11.47547852304381 272.17546504382506 126.76607379576325
1.3115713982060413 11.404673034699115 248.53728581945856 133.28043640133768
1.3208782455964612 11.333941449500175 226.81590938113334 140.1107514781156
1.3303083836013803 11.263437951717009 206.87173813289309 147.2767249710126
1.3397988976799498 11.1931939340135 188.63439195752176 154.7995359597015
1.3493097570511488 11.123279137813487 172.00506713021446 162.70119063757076
1.3587974864780843 11.053687802491266 156.8482410274044 171.00627484191568
1.368207951025841 10.984465251543549 143.08297589208001 179.74104785485358
1.3775119939986233 10.915586166083923 130.5828209269705 188.93352904573678
1.386651853522687 10.84701287352235 119.2295690655521 198.61416039376223
1.3955854234948766 10.778721116306523 108.9611523248271 208.81598542719783
1.4042722105465073 10.710716194951381 99.66630496743537 219.57458119356397
1.4126673339854736 10.642879834133371 91.24076322526177 230.92842799698778
1.4207337621557197 10.5752083481935 83.62157821459084 242.91941934113254
1.4284323984694463 10.507649946712808 76.73244522010172 255.59230820708865
1.4357246615423938 10.440160834566077 70.4942788327615 268.9966490979874
1.4425698975061814 10.372650890138063 64.85039236494369 283.18579220345873
1.4489595186485915 10.30517028870178 59.74187749084036 298.21759643730456
1.4548249310158141 10.237543382158481 55.120702873496285 314.15541917920393
1.4601699636992767 10.169845081707033 50.92965478625354 331.0679288031819
1.464955106411818 10.101964881237718 47.13635029331722 349.0304801513491
1.4691458464906815 10.033873211256566 43.693165562058546 368.12477497487396
1.4727231151469504 9.965503464399108 40.567412655057495 388.44097049722996
1.4756675320230082 9.896943863360809 37.743270856264196 410.0770309561632
1.4779705905093297 9.827966441514045 35.16749201650487 433.1406702680619
1.4795979544350433 9.758800942081955 32.835300151867 457.74979312678806
1.4805444918408308 9.689200837998845 30.71120707462359 484.03421951682617
1.4807936281882195 9.619202441809254 28.724423065298144 512.136522591954
