M[M_sun], R[km], Lambda[1], P_c[MeV/fm^3]
0.2416277750616976 15.618515526848569 2160321.870080337 3.5677787854173952
0.2522383775472324 15.314130787663533 1768201.402958077 3.7593725312661412
0.26314544162521863 15.045919435405565 1454243.790233878 3.9582886282592122
0.2743503794696242 14.808745858904679 1201439.586345406 4.164862431416968
0.2858519149165286 14.598549755750557 996894.5412977028 4.379387895036998
0.2976514030048996 14.411758201597504 830515.4709215128 4.602016950189837
0.309749741902616 14.245462532534283 694296.2250708026 4.833161581510957
0.32214498961755034 14.097275756138371 582546.0421121708 5.073118919512951
0.3348391606816336 13.965033281652394 490351.6310235884 5.3221988795248745
0.347832360130275 13.846832561831983 413998.33387449634 5.580653609260197
0.36113005047855135 13.741126530449959 350513.6358190314 5.848886521609996
0.37472454276034534 13.646651091665666 297592.303551707 6.1272610561768115
0.3886222811290791 13.56223063838175 253339.03474235733 6.416143676391896
0.40282176686294074 13.486805988423976 216170.00382137395 6.715916243297701
0.41732326980869616 13.419485539636895 184887.558472074 7.026976623052232
0.43212810498627546 13.359459714955598 158502.5227470091 7.3497393248837595
0.4472347469739687 13.30603524644323 136148.13410676242 7.684636171132097
0.4626444836994581 13.258577813183157 117198.93405000762 8.032117001152896
0.47835660884557757 13.216533414328756 101082.5600034698 8.392650411030136
0.49437222174212364 13.179395201801851 87348.73232642701 8.766724531240898
0.5106862586090222 13.146746579249927 75598.43101212286 9.154847844644037
0.527301507624084 13.118155626094776 65554.92274288795 9.557550047427348
0.5442172580825495 13.093257901871755 56933.67282886265 9.975382955940773
0.5614295322622567 13.071746118373637 49526.40037307415 10.408921462675048
0.57893928337264 13.053265840654936 43151.55120613167 10.858764545009343
0.596742169929934 13.037622717982213 37649.283272057706 11.325536330756536
0.6148387687152985 13.024484010004898 32898.00296619059 11.809887224977057
0.6332244587012421 13.013652136916717 28782.398329695854 12.312495103013996
0.6518973305459247 13.00493733728966 25219.46449558748 12.83403072500334
0.6708539656781157 12.998132702960852 21950.93630476141 13.37520604335236
0.6900913465241058 12.993051538532555 19432.785598066228 13.936843229603307
0.7096046875059405 12.989523568596862 16962.623675841067 14.519744396687573
0.7293906418396701 12.98741233531436 15047.783887319547 15.124746429479286
0.7494433231243706 12.986545783789452 13265.190842927524 15.752722718647709
0.7697598131098061 12.986806875853043 11707.204798276169 16.404585012433625
0.7903335011698917 12.988052722454 10343.001093593934 17.08128539670495
0.8111586686760232 12.99019605405979 9147.910942552788 17.783818414546058
0.8322290665404066 12.99309603070729 8099.3937257115285 18.513223337588723
0.853537348031165 12.996656757126953 7178.289092162107 19.270586602307276
0.8750773393927403 13.000794219866002 6367.82704357707 20.057041558615165
0.8968420435129573 13.005402219113535 5655.516464912127 20.87371817392504
0.9188207680883131 13.010383087282364 5026.992674090534 21.721934523822448
0.9410078380012865 13.015675546621948 4472.916156363143 22.602996605918182
0.9633922374612951 13.021172888524129 3983.8867986901046 23.51827298614117
0.9859651213657081 13.026830700896232 3551.2024620113602 24.46919857411446
1.0087166696024183 13.032549601021715 3168.651954589586 25.457278690495755
1.031635970327098 13.03826046560542 2829.6281593156405 26.48409345050535
1.0547124944047792 13.043914404533306 2529.1201951266185 27.551302489741975
1.077934142829368 13.049433538201354 2262.743907179339 28.660549217335088
1.1012904617866328 13.054753917120115 2026.027292287914 29.81371092647648
1.124765507928531 13.059826676403128 1815.5041744783666 31.012731620565475
1.1483492119453802 13.0645941607839 1628.4212897466755 32.259639349211945
1.1720270399605548 13.068995243161927 1461.7326505575588 33.55657124199663
1.1957850955317968 13.072975601779243 1313.380783198979 34.90578095418888
1.2196071842769354 13.076492022210644 1180.8953864450482 36.30960047698974
1.2434802061701813 13.079484320048508 1062.7072300263007 37.7701693869065
1.2673889874521094 13.081900023787881 957.0631793142882 39.29048318013956
1.2913137472203693 13.083705739854041 862.6576921473918 40.87334214528109
1.3152432649049433 13.08484584700086 778.226275199143 42.52122114083827
1.3391562791241964 13.08527530199493 702.6124551983212 44.237465205101564
1.363037014773377 13.08495307227677 634.890303935756 46.025399463144936
1.3868653990759359 13.083834436881945 574.1289876830343 47.88795901776229
1.4106255322154888 13.081889823354041 519.5883533161912 49.82934714343867
1.4342976669626613 13.079060850212151 470.65187201002345 51.852734162439894
1.4578625151276376 13.075325825682947 426.6206543717479 53.962617652750495
1.4813009349343322 13.070634578640439 387.040496667466 56.16317245514113
1.5045906022713285 13.06495001388182 351.41085538046843 58.45849830099105
1.5277140494133647 13.058238271867198 319.3307428379285 60.85382469323565
1.5506497653850773 13.05046949533863 290.40524102829335 63.35413216486916
1.5733755576816357 13.041605001600567 264.33868861808395 65.96472217997162
1.5958697444904681 13.03160553676963 240.7736978101525 68.69124308501449
1.6181077775855817 13.020435816433741 219.5154802283555 71.53971826539127
1.640083040460777 13.008095960536016 200.2885032709498 74.51657670987458
1.6617543379658684 12.994519314607741 182.89879447931733 77.62868620849261
1.683108703030067 12.979684677588791 167.17413626570686 80.88338943476947
1.7041216973648239 12.963566741927288 152.9185013719532 84.28854319170709
1.7247722740499651 12.94613454078921 139.99429384006064 87.85241918630035
1.7450352537901905 12.927364763316318 128.27693972014288 91.58333254452118
1.7648904336696756 12.907221420260097 117.64915318985877 95.49158523322227
1.784311517479715 12.885685775946838 107.98500891477221 99.58618398275662
1.8032794072063827 12.862736583088772 99.21561588210734 103.87875194889163
1.8217684527578857 12.838341028147243 91.23180246696064 108.38061070355977
1.8395740594388859 12.812520340838093 84.02287718799093 113.12062669579305
1.8548102515843021 12.785148713282126 78.01287399693325 118.28999452615467
1.8669646886800746 12.754469012750242 73.02692005693598 123.96010477144875
1.8762659402426383 12.719675580437746 68.82387762646559 130.1568051806877
1.8829767492446414 12.680514758860063 65.22428291856868 136.90806104889424
1.887351947221162 12.63683190265679 62.09414757533928 144.24378756681492
1.8896237831349445 12.588719742675524 59.33325036010051 152.196681482789
1.8900020494898253 12.536270859416058 56.87020712866039 160.80223120021768
