M[M_sun], R[km], Lambda[1], P_c[MeV/fm^3]
0.2416277750616976 15.618515526848569 2160321.870080337 3.5677787854173952
0.2522414706556361 15.314064102180089 1768083.4668017977 3.759422793345995
0.26315144408175045 15.045797548297251 1454157.5276975236 3.958392507327739
0.27435969418677286 14.808575949759662 1201323.0156600098 4.165024710223599
0.28586419012794095 14.5983339649038 996721.4407188743 4.379611319602346
0.2976663396477377 14.411538995161015 830297.162866928 4.60230757031424
0.3097669597425279 14.245276428582283 694164.1905684018 4.833524349077709
0.3221671686098123 14.097041812523342 582364.1246635398 5.073559013491529
0.3348662512235536 13.964690101946267 490140.5402294928 5.322721717956496
0.3478636720773126 13.846556405932793 413825.339671904 5.5812600794118294
0.3611631224592738 13.740864419137742 350376.57499292755 5.84958662934071
0.37476323904671444 13.646403622013052 297433.45265687216 6.12806097709871
0.3886664724707958 13.561957222285022 253200.24572676484 6.417049880159998
0.40286952635230416 13.486569808648035 213287.13059067662 6.716935509844398
0.4173762517716283 13.41927888061457 184784.6895711426 7.028116059862521
0.4321857085426459 13.359233699676267 158406.47690983364 7.351006385385846
0.4472972555886025 13.305841812158308 136071.63239553606 7.686038674283087
0.46271464145255975 13.258354609422899 117125.34627005932 8.033663152306843
0.4784314092629289 13.216333111626632 101016.3014983187 8.394348824181927
0.4944497730579481 13.17925000709529 87282.51903486263 8.768584252746559
0.510770735876032 13.146591592456925 75543.68500162708 9.156878378526532
0.5273925129968173 13.118004410238663 65505.10645613612 9.559761382384488
0.5443139523772318 13.093124288805233 56890.715225534164 9.977785594180672
0.5615319583143621 13.071629085469535 49485.90141321038 10.411526450714288
0.5790481117865054 13.053156564073062 43115.36519660786 10.861583506578427
0.5968582529298434 13.037503275648746 37617.444293032226 11.328581501968904
0.6149603997748687 13.024386437655744 32867.32837018545 11.8131714919283
0.6333536799528666 13.013602185135388 28756.264828423275 12.316032041991598
0.652032426878437 13.00488492703959 25195.07111374785 12.837860899063585
0.6709959699315357 12.998090264350578 22102.41878364422 13.379319981403192
0.6902401094814541 12.993020477717632 19412.117568121383 13.941256919230112
0.7097618434395632 12.9894982815951 17073.473512535737 14.524474709335642
0.7295534241682143 12.987403384033717 15032.040541351924 15.129811177084678
0.7496140745349228 12.986537597588516 13250.379112547032 15.758140714297507
0.769938522019089 12.986809448006797 11694.457727153776 16.410376135358874
0.7905203905345893 12.988070647006346 10262.406011906916 17.087470661934283
0.8113521447687632 12.990221159336024 9137.463373793262 17.790420047573917
0.8324294596372768 12.993120814075212 8088.951839447538 18.520264854442196
0.8537480964300411 12.996704601333454 7169.89934157052 19.27809289542599
0.8752938073003534 13.000847003995057 6360.272711789329 20.065041855952998
0.8970638338291462 13.005460959289021 5648.449744953044 20.882287547720395
0.9190525364032229 13.010449517706851 5020.803890507335 21.73105536903054
0.9412480703085229 13.015742449152654 4467.215839191048 22.612700430078444
0.9636395832252724 13.02123668241387 3978.7549093693397 23.528593212734034
0.9862210337147702 13.02689127103904 3546.5017208933605 24.480170674653166
1.0089800448308723 13.032612709020855 3164.179488507767 25.468940326555515
1.031902861827799 13.038347409140963 2825.7227821856345 26.496484626500568
1.0549913094192744 13.043978216491457 2525.8570080317513 27.5644086588967
1.0782210479992476 13.049504934292292 2259.703100650889 28.674450732723123
1.1015853413509302 13.054823293755659 2023.2258904832263 29.828473826724874
1.1250674013502207 13.05989187448055 1812.9713149478582 31.028406879180626
1.148657930469463 13.064658843362391 1626.1061221925206 32.2762812313873
1.1723425520569952 13.069046520731955 1459.7246366424035 33.57423754279739
1.1961078865811756 13.07302461113763 1311.4296811071515 34.92453325562153
1.2199379167296298 13.076537289113169 1179.1003864675279 36.32940086516062
1.243817927253129 13.079521933037984 1061.1456150519327 37.79118634938988
1.2677330717649984 13.081930180932373 955.63525550856 39.31279116857255
1.2916648774842625 13.083720640849023 861.3598589497362 40.89702063515418
1.3155989942060289 13.084857668153195 777.0736787104876 42.54623176305602
1.3395186897249787 13.085275527609864 701.5444167082816 44.26401582019658
1.363403946213377 13.084940663554184 633.8974920667025 46.053453349477145
1.387237890159626 13.083812360784181 573.2331980932556 47.917746259721866
1.4110029236174215 13.081850175705226 518.759666146429 49.86083356169588
1.434679967834014 13.079008401886801 469.91442330934956 51.8861749524214
1.4582477543211718 13.07525830732645 425.9261588179278 53.99798226079549
1.481690854480803 13.070546999994306 386.4115040958519 56.20073430997926
1.5049838768329749 13.06484258013665 350.83469360412033 58.498252276741724
1.5281107277595096 13.058115314025665 318.8104963749372 60.89590094115483
1.5510477098108844 13.050325731411515 289.9237858564769 63.398681278719096
1.5737748412068049 13.041439535814883 263.90214742188755 66.01190577024396
1.5962737968367717 13.03141429655555 240.3909614313207 68.74123467085691
1.618512345533961 13.020219617333362 219.1591687704079 71.59270424727706
1.6404852109806407 13.007855683943179 199.95849784701014 74.57275743114457
1.6621574727433845 12.99425109357551 182.59077172843212 77.68827711478843
1.6835109793739127 12.97938928287553 166.8907909226648 80.94662234137655
1.7045256816885417 12.963240619167246 152.65313169640507 84.35566766994661
1.7251711864388257 12.945781673857855 139.75192308450428 87.92346481291231
1.745431569180714 12.926977608243929 128.06417740028408 91.65881871202998
1.7652823403110833 12.906804908564835 117.44092196947457 95.57156875404989
1.7847010024283518 12.88523780653234 107.80342951663654 99.67124593454517
1.8036635708498885 12.862249621470703 99.04420989138839 103.9689821894831
1.8221475705208616 12.837817117138332 91.0749638437673 108.47638176445349
1.840130604934813 12.811920584042879 83.82496692727815 113.20565058173919
1.857588918069973 12.784535705162728 77.22478836305588 118.16993575828899
1.8745031747404928 12.755644695112363 71.20695647086838 123.38340889293043
1.890846825816011 12.725218415034059 65.72444332085409 128.86135730668227
1.9065998961128268 12.69324913068061 60.71993758018122 134.62028412003917
1.921738882681301 12.659718146881145 56.1502419609785 140.67801815893375
1.9362454147814758 12.62460608976888 51.9794869061518 147.05270349179526
1.950087175555299 12.587878303337561 48.162549977991866 153.7656670704745
1.9632607809977851 12.549565766183159 44.6766104539216 160.83835681220532
1.9757433976766536 12.509662361278327 41.48462169321722 168.29457312491076
1.987502539079562 12.468104421371988 38.55948988566853 176.16017751162454
1.9985252888551404 12.424908365545043 35.88334263026889 184.46295161440398
2.0087771570758717 12.380037880463883 33.427241342821695 193.23240183421518
2.0182821574771372 12.333594687444027 31.1745746286666 202.5017430729057
2.026982094708995 12.285464973365952 29.10764936014943 212.30588788833217
2.0348735169072047 12.235689217190087 27.211238967333962 222.68379263755966
2.0401676183006665 12.187559332334073 25.68819220255668 234.31875840215008
2.040657405803055 12.139957805584572 24.653753181343525 247.94617838728652
