M[M_sun], R[km], Lambda[1], P_c[MeV/fm^3]
0.2416277750616976 15.618515526848569 2160321.870080337 3.5677787854173952
0.25224111857482584 15.314058558267934 1768115.299517126 3.7594187059861977
0.2631511168250712 15.045781640565448 1454141.1070493052 3.958384059711429
0.2743584949109773 14.808590237997262 1201343.7241048515 4.165011513332649
0.2858607699420474 14.598471494259373 996780.2836408728 4.379593150046919
0.2976651798835225 14.411574530520573 830339.0173777919 4.602283936020101
0.30976589542611443 14.245293717558003 694174.6705172792 4.833494847249393
0.32216462926322864 14.097055557848998 582377.7084612427 5.0735232228576495
0.33486368289870083 13.96478480287778 490166.5743510366 5.322679197794513
0.34786108565979906 13.846583167762486 413833.29853198346 5.581210757480729
0.36115957611481425 13.740893334107247 350389.3932985493 5.849529691778936
0.3747599146029351 13.646427100545704 297475.6069248264 6.127995921546912
0.38866283695601767 13.561977549078117 253228.76560061844 6.416976180335049
0.4028656018042616 13.486596058310525 216083.2721027197 6.71685261421836
0.4173712218688653 13.419288552363756 184799.56066875145 7.028023390257091
0.4321814574743787 13.359268994134595 158422.67091083064 7.350903335475922
0.4472930970701757 13.305841073135399 136081.43154085593 7.6859246080031145
0.4627075167147394 13.25839615808718 117132.57866353885 8.033537402152797
0.4784248243068942 13.216357042783276 101018.2629412711 8.394210689401314
0.4944432556398941 13.17925700571317 87290.35010714647 8.768432997408334
0.5107639182777916 13.146604451922515 75551.6931867212 9.156713229461955
0.5273850195814332 13.118017560400363 65511.949179492636 9.559581526989392
0.5443039990553412 13.093160422383967 56891.977594800854 9.977590178069073
0.5615239161706521 13.07163369299129 49490.01434654341 10.411314575212302
0.579039175175444 13.053172217582242 43117.139907776516 10.861354226046643
0.5968488542054247 13.037510940472425 37619.77752531723 11.328333820940431
0.6149505871357481 13.02441735581488 32870.322940991326 11.812904362049286
0.6333425410782112 13.013604868692392 28758.69067527195 12.31574435874911
0.6520210103033829 13.004892247814043 25197.3915671988 12.837549362597427
0.6709849288930428 12.998093420751985 22104.307268919005 13.378985362014767
0.6902281280197372 12.99304093603044 19413.583143016407 13.940897916201067
0.7097477333272322 12.989508238282808 17074.714992545054 14.524089950028191
0.7295409615820949 12.987388006052136 15033.501841938041 15.129399212333025
0.7496003287150717 12.986550394134834 13251.949144668984 15.757700013471272
0.7699239516163688 12.986798105318103 11695.48709461277 16.409905081073937
0.7905040615256363 12.988071081090878 10331.859831937849 17.086967544384216
0.8113363995421812 12.990217542892516 9138.295365335855 17.789883058453317
0.832413202370214 12.993126889251377 8090.02908541211 18.519692080430545
0.8537310345670477 12.996688070203493 7170.546822536259 19.277482311198334
0.8752769424699379 13.00083319528872 6360.979916622415 20.064391316680833
0.8970455205106295 13.005450174781258 5648.957166025099 20.881590478922373
0.9190344503636129 13.010442514454194 5021.254692025439 21.73031343607989
0.9412283921303497 13.015730408178108 4467.582496432707 22.611911069336152
0.9636194405329621 13.021231134616617 3979.206008854548 23.52775370464565
0.9861991718265892 13.026882342445576 3546.9548372479067 24.479278132997784
1.0089593263271388 13.03260756445111 3164.5852313490323 25.467991686885934
1.0318805617504045 13.038331709007 2826.0281064713586 26.495476633708307
1.054968945683979 13.043971445307967 2526.1336304291203 27.563343972098203
1.0781973120400399 13.049495975405154 2259.9295791884515 28.673319862489116
1.1015609626881389 13.054817707166494 2023.4812014155314 29.827272875179013
1.124658631162636 13.059614759266251 1816.3095381166302 31.03515229094897
1.1443321686472177 13.060251980278148 1654.6059296389951 32.365521707522085
1.1605288510681326 13.05459000269481 1527.056931660802 33.83726683183986
1.1739314183774883 13.042415774815781 1422.4434465252195 35.45125130672844
1.1851256954981093 13.024105077983542 1333.5045931477387 37.20898453318524
1.194542041925932 12.99995424338085 1255.8135967067221 39.11179984717078
1.2025341361428343 12.970374884269516 1186.200204057827 41.161606963424816
1.2093824979138494 12.935704946845014 1122.5813348400407 43.360565737228946
1.2153288554023287 12.896317043258717 1063.507249859084 45.71123465971955
1.220571329394672 12.852534023592645 1007.6078242638538 48.21664871851169
1.2252694934663546 12.804647522113772 954.4599832518737 50.88024872324278
1.229580576689384 12.752967108760966 903.4064981987772 53.70507988993896
1.23361382941747 12.69777416136143 854.1779971548274 56.696846648978635
1.2374610399100412 12.639393317585963 806.404958275984 59.86087434828699
1.241195835838554 12.5780399029149 760.2546026392538 63.20428076714281
1.244895080510319 12.514037204618962 715.5062551558109 66.73412552239763
1.2485835999349382 12.447530805736015 672.2001862303944 70.45816117641684
1.2523278271968443 12.378802799067026 630.3112108264588 74.38467188819443
1.2561616157557327 12.30809346481347 590.0022522146173 78.52239918355824
1.2601171984529336 12.235608039955773 551.2102783434915 82.8818102840575
1.2641843884766188 12.161480275869293 514.1127296225026 87.47287785193058
1.268403615102336 12.085981061186061 478.64909490585876 92.30767105397975
1.2727682494915693 12.009306735982397 444.9160705075681 97.39993674853336
1.2772426290931542 11.931676801235307 413.0486490926937 102.76797651265899
1.2817376624476884 11.853648691220203 383.1920118642507 108.44625276248493
1.2863562297237834 11.774221095829512 354.8512075723168 114.41374473511985
1.29126799748131 11.693279709422663 327.80830221395047 120.66061713920881
1.296529200178282 11.61153141614029 302.0973166840657 127.20306647342909
1.3021280144612646 11.529301708510769 277.85391258548253 134.05862173587641
1.308049397555324 11.446872771002328 255.08744008236576 141.2466261766958
1.3142511548740339 11.364503674410859 233.80295685820332 148.78732644131412
1.3207104477531897 11.282362049522156 214.0876566220352 156.70346298523307
1.3273788379676374 11.200584376088056 195.8218717330873 165.01776337489383
1.334207421523408 11.11931764349717 179.0066185202957 173.7564262645308
1.3411436451393466 11.038581183020579 163.5705762625748 182.94680324191552
1.3481421804691538 10.958423978123971 149.4312408577942 192.61870662988622
1.3551525048990618 10.878910734643656 136.5147331401812 202.80336434914906
1.3621164871011004 10.799974461326613 124.74332217595013 213.53625812589374
1.3689911206492467 10.721658298348423 114.03264917517 224.85440184228787
1.3757255449199037 10.643916937042746 104.24982096191569 236.79823388299494
1.3822720655836866 10.566804293868485 95.48358897493166 249.41191897037783
1.388587269049443 10.490123312719772 87.48357627509253 262.74237364195477
1.3946269075285749 10.41395146812907 80.23112096088197 276.8417580281071
1.4003457432179058 10.338201954247337 73.66127290941347 291.766006026896
1.405701098952488 10.26278653906074 67.71402765643455 307.5761702726917
1.4106705442899723 10.187767533738116 62.332340522431984 324.3382881034827
1.4151973050174957 10.112961574665164 57.457418897959656 342.12502387510295
1.419262210706559 10.03840292843308 53.0412533795078 361.0154063647145
1.4228374427477712 9.964056546009544 49.04662713797876 381.0951613172578
1.4258846696740544 9.889833868137773 45.424981121723995 402.45911413076
1.428374006929564 9.815665268762267 42.141399211338914 425.21006603318386
1.4302964494235426 9.741595008677038 39.16680280212609 449.46118786585066
1.43161512482583 9.66755354999147 36.471178450314106 475.336528095434
1.432319094433712 9.593479084103523 34.02339569157566 502.972270865639
1.4323875339490029 9.519411517878035 31.74467339934401 532.5181930074451
