M[M_sun], R[km], Lambda[1], P_c[MeV/fm^3]
0.2416277750616976 15.618515526848569 2160321.870080337 3.5677787854173952
0.2522419709294452 15.314060331765678 1768075.8596173844 3.759437907353636
0.2631541423144978 15.045702897716716 1454062.0051745025 3.958423744556333
0.2743626900660527 14.808519823768792 1201203.8705312088 4.165073509286069
0.28586885383889493 14.59821892347942 996645.3731509786 4.379678506661254
0.29767088723752105 14.411487680371044 830176.8105073912 4.60239496508571
0.3097736310742131 14.24517846300715 681882.1458949237 4.833633441155358
0.32217381255542243 14.096957740923722 582312.6996590188 5.073691360802248
0.3348734370307457 13.964632390493577 490078.34381680354 5.322878950367171
0.34787269286460004 13.846474299414648 413773.4547587884 5.581442464186009
0.36117332005368186 13.740837644192029 350330.1046974811 5.849797176199679
0.37477544182169675 13.64631692423907 297432.3843872596 6.128301543873294
0.38867975845513947 13.561891124590984 253178.4693963548 6.417322413163567
0.40288366585128726 13.48652336215606 216032.9320010278 6.717242048758476
0.41739217708256615 13.41920925871038 184760.11577703222 7.0284587429357535
0.4322023191587534 13.359183643510924 158373.77018254876 7.351387454968605
0.4473166958293252 13.305779680296759 136049.15844762567 7.686460482721885
0.4627328144593036 13.258326664501764 117092.81433413191 8.034128168224706
0.47845271317128624 13.216286647781633 100994.26099144765 8.394859639172743
0.4944738123738039 13.179182275871762 87259.82288313263 8.769143588514124
0.5107961369783856 13.14655283521949 75528.64286095448 9.15748909450074
0.5274172555360148 13.117987467036704 65488.73278858928 9.560426483849708
0.5443422218661985 13.09310324873235 56874.89339540119 9.97850824095449
0.5615627257875113 13.071595726316046 49473.04667183738 10.412309966416977
0.5790800471907119 13.053133078881396 43102.22456555357 10.862431388536882
0.5968922664030136 13.037506921935528 37607.43406672608 11.329497431801661
0.6149969963189055 13.024363440398817 32582.89583909969 11.814159346862604
0.6333917381124842 13.013568566222933 28748.151690412622 12.317095906965951
0.6520724504997186 13.004894215822885 24985.82703953674 12.839012978012397
0.6710381355964791 12.998087796351253 22095.961410364805 13.380557425790759
0.6902841437151817 12.993025105913192 19261.050912782997 13.942584539691106
0.7098071506804817 12.989499112683088 17067.687806518235 14.525897582510641
0.7296026562443313 12.987401047512362 15027.594547351879 15.131334662666694
0.74966559572087 12.986540054627389 13246.586294953833 15.759770473291487
0.7699921166557571 12.986806484234313 11690.597643062543 16.412118149645988
0.7905761823537003 12.988074812617786 10327.781063218526 17.089331255238882
0.8114103579593083 12.990228061300567 9134.221863883342 17.79240590794114
0.8324905170098926 12.99312798784132 8034.498257571719 18.52238305834042
0.8538089363558955 12.996718292862278 7167.141692377596 19.280350933599752
0.8753594621460958 13.000847609052261 6358.104400341989 20.06744766116205
0.8971331051765339 13.005458908934122 5646.410818461438 20.884864087791108
0.919122492005395 13.010464941405914 5018.889642070826 21.733799180795007
0.9413199425300316 13.015751327141814 4465.584099277102 22.615619647478457
0.9637162142511305 13.021250458332547 3977.1214876696645 23.531697894331153
0.9862975973052254 13.026906415741342 3545.147465212462 24.483471495480895
1.0090601566535802 13.032630051383014 3162.9959286628023 25.472448620880172
1.031984950709524 13.038358908505453 2824.479530237724 26.50021243381936
1.0550749699292599 13.043999417164857 2524.860604806407 27.568346144446142
1.0783084146940582 13.049520207166633 2258.7428337743654 28.6786329942349
1.1016723476442147 13.054845057473528 2022.3948748288356 29.832915281223276
1.1251578245400433 13.05990987340927 1812.2337501573825 31.033122868126448
1.1487506997647243 13.06467819345893 1625.3689245307255 32.28128808716294
1.1724373932712984 13.069067915698671 1458.9940541506228 33.579552660426565
1.1962050357599856 13.073040556941747 1310.8548315756098 34.9301751701767
1.2200375440368885 13.076543024627544 1178.6855842422867 36.33535816624344
1.2439197031242037 13.079525180999978 1060.6724351094924 37.797509748090356
1.2678366281010458 13.081932192715298 955.2421684190432 39.319503074426784
1.2916864334839149 13.083684241252389 861.2741219260615 40.906163457329235
1.3115673303844357 13.081543995201493 788.8604761898376 42.66857128055107
1.3261557931629786 13.071602900514574 735.6586118057883 44.672480009069176
1.336671760110328 13.053712223900302 694.4420816766071 46.918745338181886
1.3440102733956134 13.02827024591752 660.9907590901122 49.408565584401146
1.348837738105128 12.995777362959217 632.8889048114386 52.14359493614904
1.3516731624389942 12.956748074179949 608.2830901586667 55.12555218793157
1.3529290244856733 12.911630707714295 586.1301356516209 58.35712479775326
