M[M_sun], R[km], Lambda[1], P_c[MeV/fm^3]
0.2416277750616976 15.618515526848569 2160321.870080337 3.5677787854173952
0.25224214141099355 15.314049570828315 1767942.4264605327 3.7594411709321918
0.26315375773406297 15.045714961896884 1454022.3242445514 3.9584304896565854
0.27436323200971696 14.808491478419397 1201278.240382957 4.1650840465743135
0.28586902824758337 14.598261015637444 977271.2666411402 4.379693014557056
0.29767189862162025 14.411457405023453 830217.0721034455 4.602413836553087
0.30977424647148116 14.24518776030994 694120.4162074381 4.833656997876248
0.3221745048620647 14.09696108442667 582297.0894308649 5.0737199392167565
0.33487560315279064 13.964602163150788 490075.21668202156 5.322912902452503
0.347874946971323 13.846457820734287 413770.6667496622 5.581481847680425
0.36117631061904854 13.740755576835678 350310.8456364729 5.849842641050304
0.37477725959396624 13.64636821660812 297424.1124938066 6.128353491291416
0.3886825823150449 13.561866077224558 253169.97304321887 6.417381263470384
0.4028867995333161 13.486486181084775 216020.92290937202 6.717308242440285
0.4173954223061634 13.419174035722023 184746.67447821872 7.028532741766823
0.4322070319955936 13.359153550604399 158368.86628687507 7.351469743206519
0.44732094863492894 13.305745524527664 136032.94123332412 7.6865515683806525
0.46273777557854245 13.258306578366332 117094.25109770862 8.034228584431167
0.47845757514211074 13.216285505163324 100996.26036992199 8.394969945612475
0.4944791486369226 13.17917079190379 87260.92355852615 8.769264372973351
0.5108016932192303 13.146540418820367 75526.40117215613 9.157620974511207
0.5274233716961475 13.117977833682007 65488.027026475 9.560570108444427
0.5443494932422722 13.093085496063587 56872.45213687055 9.978664292542135
0.5615690765787533 13.07159171403023 49016.85209809245 10.412479162783956
0.5790878004159736 13.053121801452688 43102.113151524194 10.862614484986452
0.596900197248094 13.037471809734413 37605.74755031293 11.329695223440176
0.6150045649471946 13.02436058320472 32857.455056186176 11.8143726710438
0.6334000577817364 13.013558717622535 28746.49440670141 12.317325645905068
0.6520813809043815 13.004867502643368 25186.242531998243 12.839261759905126
0.6710477511660816 12.998083646975184 22094.675860263083 13.380824650319996
0.6902945080469571 12.993020561603927 19407.43264464993 13.942871238408092
0.709817380377702 12.98950656802919 17066.682682902167 14.526204851820243
0.7296138292605345 12.987397296974867 15026.72923126265 15.13166366010829
0.7496781191297232 12.986535082416228 13152.529016206088 15.76012242148281
0.7700037464013598 12.986815988824073 11689.817136338588 16.412494340508946
0.790587862930036 12.988065897152925 10257.66674306571 17.089733054528423
0.8114229196614109 12.99023121740169 9133.657570019142 17.79283476010013
0.8325034090188093 12.993143767592668 8085.912519532226 18.52284049170578
0.853822792484071 12.996712113436098 7166.625737712269 19.280838565986762
0.8753735921349234 13.000859084598055 6357.710478960932 20.067967205855737
0.8971470694361465 13.005465104280841 5645.9243560047435 20.885417359977033
0.9191375768845711 13.01046845401761 5018.490828357645 21.734391723100906
0.9413335274153604 13.015757109580164 4464.992373921587 22.616250071415863
0.9637300447535476 13.021264033498365 3976.859707690707 23.532368372337665
0.9863143785222269 13.026915221228116 3544.8872019723044 24.484184333147
1.0090770840371388 13.032630654866356 3162.715739219505 25.473206266185827
1.0320021335856568 13.038361223527822 2824.2989442211865 26.501017487069916
1.0550627211768975 13.04398804303019 2525.01459318645 27.570663636017954
1.0751089530857676 13.04637714108316 2289.47280952391 28.741015623365705
1.090876950659666 13.041752215923243 2112.230177880289 30.055998621555243
1.103341930557688 13.029808479610026 1971.8621176640656 31.515388385363497
1.1132312108868685 13.010898425794014 1855.8131005046937 33.11970953591591
1.121102981030027 12.985464166103622 1755.9966721470691 34.86999084139822
1.1273953843126752 12.954005372898228 1667.729234243944 36.76696170896316
1.1324381119613938 12.916866689200102 1587.4225759464043 38.81202389007927
1.136519418624101 12.874551482683982 1512.86110414174 41.00696110466404
1.1398659346287074 12.827376646487616 1441.788001958123 43.35386253043247
1.1426677607979625 12.775658135519299 1373.657314806936 45.854682505709604
1.1450904502394124 12.719766604147352 1307.5798878242706 48.51322485681484
1.1472509907953194 12.660046569759665 1242.6943543387215 51.334700042690955
1.1492367763548228 12.596773482493466 1179.3772386453404 54.32488849684272
1.1511471986632331 12.530256524732396 1117.0063697907776 57.48959193444719
1.153047323744456 12.460794939400538 1055.9262740074894 60.836694380913826
1.1549716990827192 12.3886028285245 995.9983587731801 64.3739793772409
1.1569836078270566 12.314030617247928 937.5726811358878 68.11086926000948
1.159086959027805 12.23736728713812 880.9336039453267 72.05987113885989
1.161252214896421 12.158944952830081 826.4035750889901 76.23860415705064
1.1634052999781093 12.079592809455978 774.4013000605306 80.68030648095814
1.1654678956453794 11.998380591970184 725.1791486206928 85.38717436615418
1.1678576590296506 11.913812062609583 676.277297244916 90.30308506387819
1.170729905137539 11.826981480461326 628.1021757627913 95.4366704957395
1.1741587908789177 11.738650713285322 581.1771215866814 100.80134298945877
1.178153796469051 11.649410273443815 535.9283228933232 106.4099450609075
1.182703424641914 11.559734014945 492.5429019060761 112.27645381824571
1.1878061929934096 11.469970690802198 451.50787623412725 118.41609976138508
1.1934159085007099 11.380465125548142 412.87049948928967 124.84444978636247
1.1994907014726157 11.291450724833343 376.7492978546009 131.5794185534388
1.2059886409962703 11.203136936556351 343.1812677882888 138.6387546394591
1.2128576427448299 11.115675511036656 312.1736045900493 146.042909549619
1.220043986722152 11.029198758791562 283.71105611497364 153.81314218740386
1.2274839578931132 10.943711087553307 257.63502440918126 161.97215451772107
1.23513478725402 10.859350718307292 233.85584423509096 170.5445393617817
1.242927373782645 10.776084282586668 212.21592459142803 179.55708333423865
1.2508082154800733 10.693903528001151 192.59482158806853 189.03835400416276
1.2587285401303923 10.612798558296367 174.85302160025876 199.01906013068734
1.2666266393111922 10.532769204862522 158.80720684553754 209.53269058862028
1.2744502765983294 10.453704571500209 144.32562105419035 220.61495248541235
1.2821530540090489 10.375575724967824 131.2799601639846 232.3050922459741
1.2896720352651412 10.298258188709726 119.52036149733878 244.6447898692455
1.2969942146988103 10.221876573673612 108.93937700106851 257.679604496831
1.304038800721197 10.146134217943965 99.40712762980905 271.4593014482052
1.3107856655984214 10.071113882054028 90.83147780864022 286.03737304349875
1.3171826230617085 9.996623933470039 83.11232715295141 301.4721289427397
1.3231974482076674 9.92270177222704 76.16888183873155 317.82678914458234
1.3287898829314782 9.849180225132471 69.90821062246177 335.17059127533486
1.3339327809113737 9.776056519837265 64.27054157216747 353.57814180095227
1.3385989454911258 9.703224126150232 59.18337725534063 373.13184521429434
1.34275323081088 9.630692180345495 54.60029141601564 393.9210760216113
1.3463696427394947 9.55833684032915 50.4555748485977 416.0435002615546
1.349424056231629 9.48610327188083 46.716223694374314 439.606304470019
1.3519005201433716 9.414041766318368 43.34254270135437 464.726306770983
1.3537711122245737 9.342013922751727 40.28611523341337 491.5321632772488
1.3550257009451592 9.269992304721978 37.5173294229625 520.165331906447
1.3556441744294083 9.197992650702762 35.01540415640395 550.7805211520491
