M[M_sun], R[km], Lambda[1], P_c[MeV/fm^3]
0.2416277750616976 15.618515526848569 2160321.870080337 3.5677787854173952
0.2522414373493982 15.314061271114886 1767981.4513901586 3.759423833320959
0.26315136956936186 15.045793854481479 1454103.5169279063 3.958394656714684
0.27435892501995823 14.808599930229924 1201263.9194401978 4.165028068005361
0.28586440431144144 14.59833780265871 977350.5543566988 4.379615942619812
0.29766672564881863 14.411552514661443 830313.4064259464 4.602313583772008
0.3097675253286692 14.24528291659003 694133.6502180367 4.83353185546472
0.32216728593975197 14.097047570081534 582370.4266506735 5.073568119997948
0.3348666988456267 13.964676672809363 490125.6776339935 5.322732536721816
0.3478642216175051 13.846555902815103 413824.13128239097 5.581272628819338
0.36116332513425736 13.740857066926813 350377.1079481277 5.849601116471697
0.37476351826898957 13.646408861984662 297471.2746823176 6.128077529776235
0.3886673673800444 13.561952735791573 253197.56103642183 6.417068632294565
0.402870566289506 13.486567067339973 213284.94146485062 6.71695660177001
0.4173766775236811 13.419268069925849 184789.69429713767 7.028139638694477
0.43218731494862267 13.359231282714932 158404.3075861242 7.351032605401369
0.44729822083043735 13.30585050767628 136066.62530601313 7.68606769732694
0.4627139044320686 13.258378173931375 117120.17175868881 8.03369514822338
0.4784330391355201 13.216328720757673 101016.6362284104 8.394383971275536
0.4944523319491098 13.179225401379824 87286.53885821975 8.768622738272946
0.5107724769948248 13.14658518174471 75541.63185595816 9.156920399216622
0.5273939239052481 13.11800452141102 65503.368833450426 9.559807145003576
0.544314074965126 13.093129542627631 56349.07745954241 9.977835316125548
0.5615340239162881 13.07162639765629 49486.37813588021 10.411580360650877
0.5790498924664907 13.053157739906863 43114.863605403654 10.861641845123199
0.5968588697387894 13.03751299464846 37616.95855172309 11.328644522417006
0.614962954125721 13.024403961769604 32866.9563210764 11.813239461032161
0.6333553141489089 13.013584036096072 28755.195077044216 12.316105240793506
0.6520351039669995 13.004897175542476 25194.42405821672 12.837940167204449
0.670999003257918 12.998090243791427 22101.810178250456 13.379405122887013
0.6902432080508668 12.993029937867263 19412.08754511968 13.941348265024343
0.7097642879787132 12.989500118391552 17072.54548330612 14.524572608707864
0.7295571018746232 12.987401121667562 15031.741184408493 15.129915998775422
0.7496186481537714 12.986532207976836 13250.797138036238 15.758252847776173
0.769942215883062 12.986810503360092 11694.202158963057 16.410495992169892
0.7905239253756867 12.988072557721928 10262.171466524456 17.08759867713921
0.8113561483625611 12.990221284657007 9137.236505318855 17.79055668129796
0.8324337507316122 12.993133437216793 8089.071845742383 18.520410593532212
0.8537516290999563 12.996692869431117 7169.4347840364 19.27824825522884
0.8752977550442197 13.000838748597504 6360.045766705412 20.06520738222397
0.897069960426461 13.005445364624805 5648.24095189654 20.882464913341654
0.9190573353037034 13.010450640340512 5020.676137640679 21.731244150253694
0.9412528351908341 13.015731188594444 4467.111090125994 22.612901279227664
0.9636448326776624 13.02124218674282 3978.5664400939204 23.528806821807365
0.9862259882541005 13.026890889670929 3546.5112453436404 24.480397778058077
1.0089858425604061 13.032608423205065 3164.105388678918 25.469181704050367
1.0319083887121991 13.038344645848962 2825.6238852707384 26.49674110635901
1.0549970557457542 13.043976550323729 2525.7621984696507 27.564679564504104
1.0782268663691754 13.04950110868632 2259.5582466868864 28.67473847869165
1.1015903067789752 13.054825548134213 2023.153198131183 29.828779404885548
1.1250736518905298 13.05989628272498 1812.9161773802048 31.028731344958754
1.1486653633386268 13.064659526405704 1626.0357815896655 32.27662570837591
1.1723496629771946 13.06904826151421 1459.6897949547597 33.574603227690666
1.19611444019582 13.073025509504667 1311.3790484954761 34.92492142353968
1.2199450903145395 13.076538628826272 1179.0631029613014 36.32981073111059
1.2438248046287195 13.079518787999726 1061.1253086906304 37.79162140205014
1.2677394990068562 13.081925122944094 955.6170559609116 39.313252949593235
1.2916723618268218 13.0837209027282 861.3449454187618 40.897510790232616
1.3156063105663387 13.084858001784248 777.0488021048556 42.546749497725735
1.3395259960198698 13.085269557679183 701.5094612132111 44.26456543861101
1.363411654726224 13.084942772658904 633.8731990921268 46.054034091257066
1.3872455509611505 13.083810711071681 573.2116793340132 47.9183628893351
1.4110106452259747 13.081846289614028 518.7411509987874 49.86148537138156
1.434688074555403 13.079006961757075 469.8936136652901 51.88686722677775
1.458255872028164 13.075257487367464 425.90492557673696 53.998714367116214
1.4816987378199715 13.070544819422286 386.3960075249952 56.20150877394469
1.5049925901217425 13.064842673454697 350.83316993030337 58.49907526549934
1.5281196867596913 13.0581121325962 318.8019454692784 60.89677201333338
1.551055995764128 13.050323697930887 289.9176950625625 63.399603552979656
1.573783197940991 13.04143548974145 263.8882264698075 66.01288259344054
1.5962821232957294 13.03141059162989 240.37973532859976 68.74226963651499
1.6185195232048186 13.020217140839394 219.14616789177472 71.59380121574588
1.6404943055106567 13.007850045513894 199.94931714408037 74.57392055159087
1.6621645322210257 12.994247730184881 182.58195553584773 77.68951084921886
1.6835203076846545 12.979383545094135 166.88870689143235 80.94793149089604
1.7045320904418384 12.963234958809625 152.64645669447265 84.3570574034847
1.72517965990304 12.945774873153626 139.7506687648731 87.92493574280613
1.7454393580951697 12.926969474952083 128.05998743614435 91.66038159595102
1.7652902130719932 12.90679449912574 117.43694802180185 95.57322476842842
1.7847090960126502 12.885228248324989 107.80087933281384 99.67300711507383
1.8036716365591197 12.86224054619314 99.04319623036702 103.970850397056
1.8221557621281852 12.837807428610475 91.07278574469034 108.47836471517682
1.8401391035659334 12.81190854075213 83.81938899555283 113.20775661323754
1.8575968773566172 12.784522721635588 77.22397742444501 118.1721738860425
1.8745105637992243 12.755630770242087 71.20260342831607 123.3857888723505
1.8908541726703183 12.725205209565061 65.72287891982728 128.86388970156605
1.9066063550155665 12.693235044810033 60.71933482202684 134.62298037813176
1.9199372450071328 12.660711278316265 56.546198164112276 140.92798184795723
1.927732110686395 12.626042145389135 53.5702311667632 148.24098559489752
1.930566645072308 12.586632592193277 51.425982641359454 156.60983643943456
