M[M_sun], R[km], Lambda[1], P_c[MeV/fm^3]
0.2416277750616976 15.618515526848569 2160321.870080337 3.5677787854173952
0.25224005793215004 15.31410229729524 1768021.6401839266 3.759400841579403
0.2631491546354718 15.045841368987196 1422486.40547265 3.9583471383129707
0.27435591403633014 14.808621329214846 1201329.5575358362 4.164953834848722
0.2858592372058807 14.598406962466402 996838.1474123142 4.379513738287429
0.29766017037380665 14.41162290731376 830390.4209163226 4.602180640507467
0.3097590168040902 14.245362971607005 694210.3896992948 4.833365907722191
0.32215706340530426 14.097147456376714 582444.4104878062 5.073366798321508
0.3348546530124013 13.964807391374352 490207.99032676587 5.322493362260986
0.34784996731042805 13.846683475981298 413891.9648529695 5.58099519539192
0.36114758620388915 13.740978894925785 350435.9775178347 5.849280846398257
0.37474613006214447 13.646516169759895 297523.81155801483 6.127711597556441
0.3886460203693473 13.562113778280162 253271.1750361788 6.416654077879107
0.40284861965241836 13.486673485005705 213331.49349884936 6.716490323131841
0.4173531454897944 13.419384956012141 184837.46433014772 7.0276183839234285
0.43216072025337393 13.359326453938197 158447.92968831238 7.350452964288733
0.44727063051987676 13.30591249210406 136106.86876846486 7.685426092402735
0.46268373244294186 13.258478965567987 117155.65218216507 8.032987825207028
0.4783983865758581 13.216425978465978 101043.22421062936 8.393606988896885
0.49441575409171845 13.17930907061206 87314.31156758433 8.767771957417397
0.5107341524981508 13.146660807384063 75569.59591305758 9.155991471344894
0.5273528597737743 13.118068476319705 65527.869327174296 9.558795499792474
0.5442715580735105 13.093191400812165 56908.27875396246 9.976736148272106
0.5614879904393469 13.071666768013019 49504.98252894537 10.410388615778595
0.5790004139493699 13.05321838093226 43131.44691626137 10.860352204723638
0.5968072818694528 13.037548308701504 37630.66700187729 11.327251387755492
0.6149074988093435 13.024431025587493 32881.636095067945 11.811736935941257
0.6332967105602653 13.013614556475858 28767.62391759825 12.314487113271847
0.6519729139630234 13.004911639890738 25205.687966642497 12.83618787779177
0.6709339213560238 12.998112136675944 22112.089865625905 13.377523004381723
0.6901752686932693 12.993032414627775 19421.60856962548 13.939329001991846
0.7096932139254899 12.989522395392406 17079.65396528757 14.522408481249133
0.7294820748223935 12.987409171460522 15038.825932801208 15.12759885661011
0.7495398742897403 12.986549684103826 13257.18464258528 15.755774082481429
0.7698606190478428 12.986807865154471 11700.0470062543 16.407846507436236
0.7904387287718957 12.988054213405066 10336.440728808178 17.084768856893415
0.8112676589128152 12.990209823701143 9142.096269646001 17.787536355530175
0.8323416378445794 12.99312039374782 8093.410646634343 18.5171890016528
0.8536553825907428 12.996691275394593 7173.3750664335 19.27481400676419
0.8751999739042182 13.000820982989172 6363.6694321542045 20.06154841464534
0.8969671496357684 13.00542918975356 5651.338262869221 20.878544251299555
0.9189511150838796 13.010425659089176 5023.463583588827 21.72707116044259
0.941143158384074 13.015712778560044 4469.636434551125 22.60846154386641
0.9635316503829864 13.021216005668682 3980.9892856152155 23.52408504630139
0.9861096976375398 13.026856012416358 3548.68438299186 24.475377730543038
1.008831159986344 13.032563832935756 3166.764068901824 25.46485627414528
1.029592985305096 13.036079173007403 2854.7395054516837 26.529478622130338
1.0475274098972296 13.034726985964136 2605.485480800759 27.69494977219604
1.063171123976802 13.028028094127933 2398.7105755565713 28.96206728057061
1.0769630526377227 13.016019675659646 2222.404280776416 30.331889623146676
1.0892689395685997 12.998930462093162 2068.40313402539 31.805620296545577
1.1003863577736186 12.97712143347871 1930.3270839991692 33.38472696410699
1.1105480002972437 12.950832778805076 1805.448882828348 35.07073723293289
1.119953710174147 12.920402205046546 1690.6312913821203 36.865733051916685
1.1287801785363984 12.886104165607303 1583.6503313326716 38.77158107544884
1.1371606082906984 12.848206272337126 1483.1465009113435 40.79103089116541
1.145213668040832 12.80699142625859 1388.5871547294464 42.92677821124753
1.1530541781394108 12.762707484111804 1298.8117723147088 45.181757205021455
1.1607570463566472 12.715592338652474 1213.5179853850327 47.55906565092071
1.1684112051638809 12.665923463899501 1132.4461993999014 50.06290175453005
1.1760704521561631 12.61396367030586 1055.0385226651467 52.698010910112984
1.1837660681750248 12.559889775974733 981.592283764301 55.46898018254259
1.1915389228117605 12.50390794454191 911.8332577429736 58.381905753189045
1.1994246407140867 12.446253664107564 845.7202744691441 61.44242226681642
1.2074360879143404 12.387073237859845 783.1426499111429 64.65657149882028
1.2155975278299085 12.326582806014763 724.1567701194572 68.03150637568477
1.2239060226289027 12.264891668299265 668.6989705164298 71.5745193168374
1.2323884786352866 12.202229157280767 616.6041759637261 75.29301157246094
1.2410286553710328 12.138680958543631 567.9053618740758 79.19605024466502
1.2498173955387726 12.074372379723439 522.404903466921 83.29250420896173
1.2587457826301354 12.00940748737559 480.02368400504827 87.592643787332
1.267803432542259 11.943948154272187 440.6420470115816 92.10698575557402
1.2769605212762112 11.878080179822962 404.2170157159244 96.84868467070866
1.2861601668088 11.811913979511113 370.69265564552944 101.83372255248011
1.2953218456419229 11.745716307746884 339.90539366976196 107.08693138753804
1.3044635583309445 11.678965752415099 311.5917363896829 112.60869674968166
1.3137784237628196 11.611452156195915 285.19817674878686 118.38657157175271
1.323276781143297 11.543554321071442 260.786954042173 124.43603497753861
1.33292733523908 11.47547227862917 238.23069724820354 130.77300409164337
1.342724203641407 11.40741958991901 217.46840145808673 137.41484468759165
1.352596522142308 11.339417642626705 198.44577439038454 144.38044830170887
1.3625387801300282 11.271644078247544 181.0166355026134 151.69001307521032
1.3724913620314612 11.204112595672347 165.1307028857833 159.36481488253372
1.3824026475552103 11.136803365861745 150.63885793328006 167.42820708426578
1.392239069083515 11.06977559687145 137.4612799202077 175.90542904881565
1.4019530786533194 11.002989591702619 125.5164909145034 184.82320796186576
1.411495954183748 10.936466942833835 114.65681591486616 194.21084337706645
1.4208246729523641 10.870108949255481 104.80662219432612 204.09977264345238
1.4299029383664639 10.803943223235729 95.89419532575529 214.52409796446224
1.438682745754461 10.73792517189485 87.82792341720135 225.52059994752761
1.447124910964558 10.67197162969517 80.51658152809689 237.1292406249168
1.4551920065856125 10.606071740545694 73.90564470043167 249.39290921126062
1.462844064931667 10.540143185354161 67.91908958498551 262.3587940488421
1.4700557165462198 10.474175096192939 62.496808137574455 276.0778976336264
1.4767820143793755 10.408100754489185 57.58709428105602 290.6053755117566
1.4829903184686282 10.341849487179191 53.140862785895 306.0018027135068
1.488658596142036 10.275418054957022 49.11033254355938 322.3325524910327
1.4937675779216006 10.20877317285578 45.45881011661094 339.6694861532244
1.4982697227868191 10.141890541780633 42.146766264048495 358.0905898009517
1.5021502140142153 10.074563289248461 39.1379565972944 377.6816774592581
1.5053947101996081 10.007070771487042 36.412095863627904 398.5361267688722
1.5079687797925974 9.939089182162519 33.93212726162391 420.75652357200175
1.5098773578146214 9.870782918314653 31.67967389933471 444.455080714044
1.5110813856296084 9.802051095758195 29.630020024251646 469.75541370519846
1.5115782250308363 9.73282780559399 27.766290700874872 496.79318882997126
