M[M_sun], R[km], Lambda[1], P_c[MeV/fm^3]
0.2416277750616976 15.618515526848569 2160321.870080337 3.5677787854173952
0.2522385065547231 15.31412648012526 1768207.6933005732 3.759373787749673
0.2631455863348602 15.04591136170928 1454206.6351454835 3.958291225070794
0.2743506940425889 14.808743957444035 1201482.3747100048 4.164866488092589
0.2858526880167043 14.59853770290036 996882.4480347105 4.379393480197061
0.2976525881466228 14.411744066160455 830528.8089513459 4.602024215038889
0.30974976957466804 14.245468030315928 694298.4509931841 4.833170649805521
0.32214537469654675 14.097254943340529 582539.0966574803 5.073129920683431
0.33483982505164306 13.965026696039063 490349.01952179894 5.322211948975039
0.3478341795810375 13.846805677903198 413990.0775910248 5.580668769141926
0.36113100191816716 13.741073819234048 350501.7466326854 5.84890402199882
0.37472563361563843 13.646637901535058 297603.82016039966 6.12728105140481
0.388623330560613 13.562217762317248 253333.63984383945 6.4161663281378924
0.40282325995282364 13.48679479142084 216168.36369249504 6.715941720992908
0.4173251657683959 13.419475962284476 184883.1530077205 7.027005104311795
0.43212991124109884 13.359446506586162 158503.6384828425 7.349770995966308
0.4472365576446885 13.306043192819835 136155.59397756227 7.684671227428941
0.46264946696313586 13.258548532216924 117196.4799606063 8.032155647709406
0.4783585145233846 13.216529994221093 101084.44834732034 8.392692863101523
0.494373093021783 13.179406213046365 87343.71072705109 8.766771014884748
0.5106883979469324 13.14675078154357 75599.23657247156 9.154898597352501
0.5273039675046722 13.118154747866859 65554.54377961223 9.557605318801933
0.5442189167443933 13.093253275166669 56932.47404991297 9.975443008412599
0.5614321029334138 13.071738377181964 49527.254467236424 10.408986572274312
0.5789420207887958 13.053273632611566 43151.00283415824 10.858835002187378
0.5967449832549084 13.037616594123737 37649.80210392657 11.325612441264274
0.6148408960987697 13.024473400484542 32897.34507753084 11.809969310804357
0.6332276612717526 13.01365048608871 28781.838375646414 12.312583503394192
0.6519006265081797 13.004936210656735 25218.869766413525 12.83412645355501
0.670857023944958 12.998142047328187 22122.890075550746 13.37530886334483
0.6900949469439913 12.993064733264822 19431.737380987564 13.936953540511036
0.7096087584406047 12.989539395873042 16962.494787790165 14.519862620066311
0.7293946665290703 12.987399662172251 15047.239288073803 15.12487301038065
0.7494483844258216 12.986540549248607 13264.645479347972 15.75285812713437
0.7697637666237205 12.986793865980863 11706.467786538442 16.40472974520276
0.7903376406401512 12.988055137828532 10342.562946594977 17.081439978828342
0.8111635061191316 12.990196658709747 9147.652682304828 17.78398340133482
0.8322336554233747 12.993094874689524 8099.377747053614 18.51339931659359
0.853542662771538 12.99666947283857 7177.853503905924 19.27077419546338
0.8750854969530812 13.000797492463215 6367.767943414792 20.05724267852285
0.8968466129877674 13.005403075155343 5655.260495063704 20.87393233161053
0.9188261497177312 13.010385025169604 5026.914113693708 21.722162461678742
0.9410138505081385 13.015677189957028 4472.771337663801 22.603239111129007
0.9633976622979054 13.021180937917592 3983.7680643778162 23.51853089375043
0.9859664391682684 13.02684336660599 3550.8865471124864 24.469472770325588
1.0087241130439497 13.032549492826982 3168.4799457155777 25.457570116218825
1.0316427473835958 13.038264250566478 2829.5882679680844 26.48440310517266
1.05471903076272 13.043912560889433 2529.0080379028313 27.5516314354146
1.0779417662470232 13.049433928617693 2262.6688142686617 28.66089661042118
1.1012977400149302 13.054752249443853 2025.9419246240382 29.8140798423516
1.124772977026798 13.059831638729417 1815.4460485693455 31.013123332655734
1.1483566701150005 13.064600464865642 1628.3480963989064 32.26005521316252
1.172034624209922 13.068992153713236 1461.7007870806121 33.55701270162035
1.1957878265083215 13.072984699738223 1313.177235461357 34.906249547886034
1.219616654889314 13.076483697166244 1180.865773188309 36.31009525755884
1.2434885363200825 13.079479588918712 1062.6710802821403 37.770694563429686
1.2673975328651041 13.081898148186164 957.0263509239049 39.291040612459405
1.2913233230072745 13.083705881577991 862.6723144995042 40.8739338187156
1.3152513522035532 13.084846772988802 778.2217395237318 42.521846096869794
1.3391649610339733 13.085270539944531 702.6063235935806 44.238128636151664
1.3630465344886549 13.084952533822358 634.856433433596 46.02610045188044
1.3868746337317621 13.083838604739602 574.1129198526309 47.888703311617626
1.4106350092492315 13.081887406190157 519.5617301813265 49.83013388861727
1.4343068522792477 13.07906361973944 470.6265296380399 51.853569733475965
1.4578720260957356 13.075322358991638 426.58818810762523 53.96350128644298
1.4813109846999306 13.070628715980124 387.01819951813997 56.1641112371778
1.5046010199175903 13.064946542294845 351.40354356717 58.459491591572274
1.5277239651540488 13.058236105844227 319.31728350059757 60.854875999181004
1.5506598771830788 13.05046770837547 290.3951460482047 63.35524524768161
1.5733857617496823 13.041601507871057 264.329170223253 65.96590107627476
1.5958798644873329 13.031601123187464 240.77972920924958 68.69249212882183
1.6181184127233814 13.020430153977863 219.5085772039008 71.54104211239094
1.6400934363407398 13.008088574723528 200.28885129235022 74.51798036393266
1.6617646547921925 12.994512048477809 182.89030480782816 77.63017505059982
1.6831187844793278 12.979677295751651 167.16703033091812 80.88496925468183
1.704132185224938 12.963558767653044 152.91541525099467 84.29022022255718
1.724783055853447 12.946125554016836 139.99018487690202 87.8541941670477
1.7450450135983202 12.927353434976883 128.2719104069374 91.58521844670297
1.7649002908917997 12.907211334669384 117.64490874186569 95.49358347600888
1.7843214730904464 12.885676664618446 107.99053958446136 99.58850969171847
1.8020599370968793 12.862737566088517 99.64618981229563 103.9795935380731
1.8167433607952213 12.83688838921757 92.75249954936037 108.7902130707793
1.828556141485473 12.80703360337876 86.96541372584487 114.04193717542242
1.8377569569966223 12.772822861469042 82.01785921659365 119.75761998245096
1.8445782393283738 12.734032719661817 77.72668048375324 125.96185993008474
1.849277813665517 12.69078735401395 73.95040907148295 132.68123223126855
1.8520380266082697 12.643041173738816 70.58504093304067 139.9447149503013
1.8530733513369988 12.591073343924387 67.55437423008861 147.78371292791115
