M[M_sun], R[km], Lambda[1], P_c[MeV/fm^3]
0.2416277750616976 15.618515526848569 2160321.870080337 3.5677787854173952
0.25223830310314377 15.314125137166931 1768088.0771235253 3.7593678440150753
0.26314478257897383 15.045913181148352 1454242.7899167764 3.958278940989726
0.27435028630306896 14.808751980121148 1201535.803567848 4.164847298217757
0.2858509054470588 14.598572353681977 996927.0085484027 4.379367059934891
0.29765025535919176 14.411766225317932 830540.3687551725 4.601989849138159
0.3097482213885821 14.245485706709758 694315.0075804202 4.833127752857268
0.3221419964166432 14.097307776031176 582551.8857433107 5.073077880439961
0.3348366867567318 13.965057726301596 490365.77155757975 5.3221501249335
0.34783075777841277 13.846781732426964 413997.96873359405 5.58059705652684
0.3611253599671645 13.741129153502692 350517.4327644415 5.8488212378658435
0.3747208878745872 13.64667312766418 297623.9011641524 6.127186465716091
0.3886177967837496 13.562260187544142 253352.70777159938 6.416059176103799
0.40281755072182596 13.486854227377108 216189.12377998527 6.71582120115351
0.4173190712576695 13.419524138714609 184898.609378699 7.026870376495307
0.4321233203844074 13.35947211378192 158510.12619934813 7.349621179115772
0.4472296197967094 13.306050228106963 134588.8863325778 7.684505397287677
0.462637717877409 13.25860617077901 117203.84486490708 8.031972834355013
0.4783498496965258 13.216551978415747 101093.23568421212 8.39249204831723
0.4943638014391311 13.179432018505334 87349.78348434228 8.766551129356325
0.510678428162476 13.146763186120326 75607.89578342038 9.154658517677895
0.5272934485615456 13.118169086126198 65560.6768827927 9.557343864299707
0.544208813741242 13.093258174662717 56937.73165108376 9.975158937714555
0.5614200646103844 13.071748100844323 49530.413150259956 10.40867857968617
0.578930003609667 13.053268517846178 43155.39996301437 10.858501713800274
0.5967305333326491 13.037616796327917 37653.35842885337 11.325252410799324
0.6148267391491525 13.024481806822157 32900.4048978367 11.809581015169483
0.6332124415121652 13.013662338172308 28784.970910783886 12.31216533793304
0.6518842439067242 13.004969661257501 25221.599805417478 12.83367362357575
0.670841942399523 12.998129330368155 22126.11363079593 13.374822488675395
0.6900775179882327 12.993065503393716 19434.874280348995 13.936431731544046
0.7095900474611649 12.989540667553522 17091.002876157334 14.519303382746518
0.7293752411354362 12.987405601526742 15049.288609588992 15.124274239513637
0.749427955285383 12.986543855316746 13266.44734311186 15.752217599219364
0.7697439199169684 12.98680261568459 11708.335598262325 16.404045110753486
0.7903154666433344 12.988055684657759 10343.947033396022 17.080708754143075
0.8111406214813387 12.9901938367888 9148.874791798868 17.78320295967461
0.8322125233395404 12.993079300394847 8100.515987660846 18.51256687872226
0.853517848235242 12.99665524216751 7178.836101666983 19.269886819501114
0.8750575061617956 13.000787721245793 6368.608586151314 20.056291317450814
0.8968205847526391 13.005386667322409 5656.070177706885 20.872919298418203
0.9187993132689759 13.010384940936046 5027.518604366383 21.721084244705978
0.9409853875891482 13.015665770139812 4447.718865706683 22.602091986850184
0.9633684577774904 13.021182797611301 3984.3896693793668 23.517310912255326
0.9859417905731063 13.026815239973939 3551.750687120343 24.468175739714408
1.008692748685885 13.032541264401031 3169.076779740126 25.456191585823404
1.0316104472890242 13.038255823372014 2830.0179369257266 26.48293834750817
1.05468686666603 13.04390727255862 2529.428977839379 27.550075426757317
1.0779079049350402 13.049424893744533 2263.015942392019 28.659253341134637
1.1012627113654236 13.054750554795755 2026.2874633600727 29.812334765371357
1.124737478130779 13.059819666551332 1815.7572352508398 31.011270424482657
1.1483203065918641 13.064589161278304 1628.5980369949045 32.2580880613941
1.171997015938366 13.068985809301319 1461.9387122887515 33.55492447681517
1.1957536197534389 13.072977038088213 1313.4806771265805 34.904032973198035
1.2195762715168523 13.0764880029427 1181.0692675235189 36.30775481341017
1.2434479068631095 13.079476356216357 1062.7465744724755 37.76821034026145
1.2673572778723758 13.081890153121766 957.211351140395 39.28840381298603
1.291281355408007 13.083701710455237 862.7986400637003 40.87113505214584
1.3152098280067739 13.084839188379625 778.3314156756134 42.51888989712821
1.339122565596792 13.085270206012806 702.744200799541 44.23499044246095
1.3630030461761744 13.084953340202231 634.9834157137141 46.022784603344036
1.3868305078468386 13.083837206884647 574.2331239576528 47.88518262224614
1.4102693440908112 13.081736929610797 520.302429577523 49.83667541113367
1.4312181317438586 13.076685650939295 475.80948548228383 51.94852420149173
1.4495603544543154 13.067221343481924 438.59222906532733 54.23873343373763
1.465663257425328 13.053100503896891 406.89673991633776 56.712112175971164
1.479831108587426 13.034205953280878 379.2450564639951 59.37365900205752
1.4923340397004368 13.010711302854476 354.76184986763735 62.22888195550313
1.503419388376679 12.982825879865725 332.7626043496449 65.28385221685946
1.5132582404837125 12.950631777177723 312.75121126999863 68.54520750075822
1.5220393534688816 12.914452437412582 294.3618936404453 72.02032828172756
1.5299054091825546 12.874469048565446 277.3156344018591 75.71701362679678
1.5369846234682987 12.83090164295001 261.393949915484 79.64418586999247
1.5433768433367177 12.783928089094891 246.45795646932046 83.8113412335975
1.5491700200953582 12.733763407106665 232.39448872032162 88.22867224493687
1.554465716714797 12.680613290955868 219.07304911512088 92.90763585072703
1.5593162516349035 12.624629681572754 206.41714026138567 97.85955444183176
1.5637803658954188 12.566034058893896 194.38492175307044 103.09883192204116
1.567906236530232 12.504993179390254 182.9891126410828 108.64070435291073
1.57172031022749 12.44166921398475 172.1324464579106 114.50175614370423
1.5752554959832699 12.376231469960633 161.83263332575973 120.69950924072289
1.5785307127456603 12.308819166091626 152.0675275167031 127.25362450206975
1.5815581603571938 12.239577410891403 142.79074869964256 134.18439473160214
1.584352501726507 12.16861061625962 134.01848649336296 141.51469181340013
1.5869236438580134 12.096073190596915 125.71983091511926 149.2690172704717
1.5892697709769918 12.022112270391208 117.85906601075736 157.47381323616437
1.5913795114101115 11.946813169142422 110.46310623636684 166.16014531974778
1.593247426186961 11.870398244366749 103.51775851725283 175.36403750766505
1.5947668589845452 11.793056594300024 97.02121212917174 185.14161486141575
1.59597143313753 11.714294244019746 90.92035437342247 195.49999916501432
1.5970281721575812 11.634032011978233 85.12958316460531 206.43223964699033
1.5979310715842925 11.552493702144123 79.64393745072458 217.97961194724823
1.5987091004770937 11.469970943953284 74.4550398933836 230.18539983899257
1.5993445417005505 11.386683015489863 69.57823745408581 243.09720417318965
1.599799620646364 11.302735388800071 65.0040669956003 256.7669765067398
1.600083849789519 11.218355828659885 60.71049233231163 271.2513025066835
1.6001534811871896 11.13362124070741 56.71238839540154 286.61133155302304
