M[M_sun], R[km], Lambda[1], P_c[MeV/fm^3]
0.2416277750616976 15.618515526848569 2160321.870080337 3.5677787854173952
0.25223933102407164 15.314097294149189 1768077.2146536522 3.7593879751952346
0.26314702274247465 15.045891833415464 1454171.834447101 3.9583205467673412
0.2743530451509944 14.808703720687609 1201412.1612725754 4.164912293860867
0.28585651883706353 14.59844291315773 996866.8044632726 4.379456544950618
0.2976562743806738 14.411698802081455 830459.2965471748 4.602106246201917
0.30975400154694044 14.245455943703737 694273.7022814369 4.833273044881531
0.3221511052997012 14.09719550135779 582485.9099397338 5.073254141252532
0.3348472547171901 13.964946662187058 490257.940820353 5.3223595240757575
0.34784225546343855 13.846748335847003 413937.34332804027 5.580839949001472
0.3611391491721726 13.741048303393134 350446.24314639356 5.8491016305216394
0.37473602227020997 13.646585692354556 297563.0787639628 6.127506831391721
0.38863514508782676 13.562169617525093 253301.75496877494 6.416422105358866
0.4028359646724375 13.486748305316363 216139.65630728283 6.716229408767646
0.41733995862819023 13.419415067173658 184854.37385660785 7.027326708384004
0.43214581383723405 13.359394242432687 158487.69053737653 7.350128619692576
0.44725435165855965 13.30596296276183 136123.48249482934 7.685067077304906
0.4626654414125115 13.258542425791834 117174.73854054902 8.032592039257631
0.4783799962060731 13.216464608622067 101063.8310168253 8.39317222714745
0.4943953760700039 13.179350847789369 87324.6787344075 8.767295904249371
0.5107122375211616 13.146698812317783 75584.54667912265 9.155471693992185
0.5273293927118659 13.118112924578698 65540.89454624096 9.55822944142844
0.5442469259915367 13.093229187429568 56919.782918974306 9.976121120628818
0.5614611100657996 13.071688962918302 49513.9045200856 10.409721791263593
0.5789726694377947 13.053229490022797 43140.14061560316 10.85963060799729
0.5967778327728744 13.037572535903728 37639.88177083833 11.326471886729205
0.6148764786579098 13.024442726939789 32888.115667367194 11.810896232153329
0.633263617067887 13.013658681121473 28774.24895611201 12.313581731595526
0.6519384050081563 13.00494602000248 25212.302506953292 12.835207435203902
0.6708970923400878 12.998123172955234 22116.80537497178 13.37646992530262
0.6901365821958864 12.993043195637586 19426.46348199631 13.938199194088078
0.7096526261488534 12.989523027927284 17084.0895034799 14.521197625950755
0.7294398983228272 12.98740054004735 15042.24481514435 15.126302394615239
0.749495712882948 12.986538524184573 13260.555357822685 15.754387198230017
0.7698149353006327 12.986806332384557 11703.293918656338 16.40636411247427
0.790391148079945 12.98806301770638 10270.234172666467 17.083185572044492
0.8112181240572403 12.990203582814951 9144.738316925032 17.78584649178359
0.832290837421228 12.99310888988199 8043.997966695574 18.5153865396698
0.8536016008886114 12.996681075494818 7175.41951165471 19.272892574896257
0.8751443303924586 13.000811018734845 6365.631498412288 20.05950126534958
0.8969109264387711 13.005413489018224 5653.281957279293 20.876350700780833
0.9188917985954281 13.010400678487656 5025.0064231491115 21.724736448992058
0.9410818011257406 13.015701185410634 4471.132504540578 22.605977606626542
0.9634680507790185 13.021197171461642 3982.386250217795 23.52144332800935
0.98604406187029 13.026840576278062 3549.8252199450862 24.472569151721096
1.0087997676805192 13.032556903442353 3167.3075378057006 25.460861070989605
1.031719684378551 13.03828240499373 2828.482957727602 26.487899920517826
1.0547978332514427 13.043928656733831 2528.0838810847827 27.55534114667007
1.078022744064161 13.049451715541641 2261.8056194212586 28.66481960903843
1.1013799899706653 13.054773110001237 2025.1495526963436 29.81824590109542
1.1248573903770427 13.059850782135326 1814.8863414407658 31.017546833271204
1.1484434217013113 13.064610158745024 1627.697895458193 32.26475146600837
1.1721231613269336 13.06901318303056 1461.0607918007745 33.561998012854815
1.1958834522902841 13.07299754066021 1312.7737833147112 34.91154129197826
1.219709460906447 13.076497877126975 1180.3057390677811 36.31568273717343
1.2435840863856966 13.079493182437787 1062.235321260335 37.77662531519242
1.2674947866186441 13.081908985795298 956.6272962658313 39.29733564136778
1.2914213261077634 13.083713726839655 862.2827898737042 40.88061554696811
1.3153530288578863 13.084848815972544 777.894535995685 42.52890369913046
1.3392666516307579 13.085275142100363 702.2576778042359 44.24562075562525
1.3631494971627918 13.084948397043302 634.5667220374017 46.0340167282591
1.386980556040426 13.083829950638911 573.8627333514434 47.89710865694226
1.4107419657956695 13.081876422186555 519.3506498001937 49.839018660059864
1.4344151635269198 13.079043810379348 470.4246552688322 51.86300592618815
1.45798058418154 13.075303182894581 426.39897041904743 53.9734802806939
1.4814205324644356 13.070608128084086 386.8416997842494 56.17471306068809
1.504712243476515 13.064916657147968 351.2378660496115 58.470709018242204
1.5278355036718867 13.058201634443925 319.1752157152237 60.86674863611167
1.5507719527615422 13.050425318025331 290.2665152125189 63.367815578625596
1.5734982244669435 13.041554649972682 264.19817150108383 65.97921469248293
1.5959934277242036 13.031547325804851 240.67213239742526 68.70659798059341
1.61823178885412 13.020371276135744 219.39469014449497 71.55599278339201
1.6402068759208266 13.008021448468732 200.18673029500408 74.53383237057506
1.6618785793949915 12.994435872943036 182.8097335602417 77.64698916902398
1.6832324549856208 12.979595388573035 167.08682911619528 80.90281087816766
1.704245274948639 12.963467642860248 152.84270914626933 84.30915975250365
1.724894635552167 12.946025696211267 139.91908980060145 87.87423994882194
1.7451569308335022 12.927243010874976 128.20577227410507 91.6065169916953
1.7650106799100629 12.907092514441546 117.58681200475083 95.51615081240527
1.7844309618014633 12.885548656679884 107.92435345948705 99.61230911370185
1.8033945716012636 12.862584402022147 99.16438124562222 103.90735905595417
1.8200308587223337 12.838252226333644 91.78229644252502 108.5692213458818
1.8328300198392444 12.810559553775546 85.9067045223208 113.75213934506097
1.8421487863298298 12.778200071111266 81.09769204278048 119.47666367107595
1.848404974665374 12.740801440926274 77.0905641649412 125.76477018754696
1.8519948322483384 12.698301696986421 73.66880336398862 132.63991394698428
1.853252937001857 12.650761076620359 70.69479296221742 140.12789689108052
