M[M_sun], R[km], Lambda[1], P_c[MeV/fm^3]
0.2416277750616976 15.618515526848569 2160321.870080337 3.5677787854173952
0.2522406094400626 15.314092881399995 1768060.8510337924 3.759409976649276
0.263149789188633 15.045824188719896 1454181.822419691 3.958366018257469
0.2743568313839881 14.808624986463304 1201368.4782707936 4.164983328986853
0.2858609011227236 14.598384707334263 996876.5702728032 4.37955434576561
0.29766266083220705 14.411604300574338 830370.4599538242 4.602233460943372
0.3097628225057871 14.24533822396743 694217.9670423812 4.833431841192106
0.32216090522024815 14.097101910321406 582406.4635778252 5.073446786181146
0.3348586075555911 13.96485312119773 490191.08153433 5.3225883893242365
0.3478554978413895 13.846636489147143 413863.5282349018 5.581105422984144
0.36115444668707863 13.74096998474989 350407.86990978953 5.849408093203485
0.37475321584057797 13.646474142246602 297502.3958858075 6.127856986098928
0.3886548731519499 13.562030509748073 253248.6328202893 6.416818784134023
0.4028572535656823 13.48663107061886 216092.39040044698 6.716675579476412
0.4173628847981792 13.419315339984086 182520.4316649838 7.027825482277269
0.43216891273566077 13.359322945540995 158424.11514285736 7.350683259456951
0.44728189621425674 13.30589489627671 136096.47890259651 7.685681005636372
0.46269563880891307 13.258428869375482 117137.90070309617 8.03326884799649
0.47841203042682073 13.216388496460196 101035.18013696015 8.393915687015573
0.4944298194881153 13.179284414604384 87301.14610682752 8.768109975233717
0.5107494483131145 13.146626251927493 75556.75871559957 9.156360536422502
0.5273691156495063 13.118041268777157 65517.3139116234 9.559197427799877
0.5442891574522523 13.093172156874573 56900.704002888604 9.97717284822477
0.5615065489547594 13.071652368836961 49497.14148438231 10.410862095637471
0.5790201833615843 13.05318560474428 43123.21675769724 10.860864577377043
0.5968285969131593 13.037530396937347 37624.809595856765 11.327804877412479
0.6149294112043996 13.024406736593008 32874.54043845851 11.812333884966675
0.6333202097463911 13.013622540689616 28762.917492494013 12.315129989496107
0.6519972811079969 13.004916698642747 25201.120113741363 12.83688405442461
0.6709617369634853 12.998089515698407 22108.393395366304 13.378270759986663
0.6902023130296263 12.993027313280292 19417.24805857473 13.940131242736843
0.7097209753902118 12.989525493918611 17076.19166206719 14.523268273974956
0.7295115201025112 12.987395674310674 15036.088520080822 15.128519439125226
0.7495715556209728 12.98653330379114 13254.603293687112 15.75675887458989
0.7698925484388589 12.986798634637045 11697.510962947874 16.40889912275277
0.7904725048428313 12.98806244592489 10265.271172942323 17.085893115506014
0.8113027890188546 12.99021336423981 9140.087168360515 17.788736297574744
0.8323781576865771 12.993114626317285 8091.625173918381 18.518468901868577
0.8536940359867453 12.996684043249314 7171.758546726547 19.27617839010664
0.8752381103303216 13.000826218071973 6362.297044790064 20.063002073037413
0.8970082814626035 13.00543148099045 5650.18931639144 20.8801018735937
0.9189935850522475 13.010434579280677 5022.325488075424 21.728729025450175
0.9411867988463574 13.015723712623316 4468.640311486376 22.6102253791047
0.963576547782119 13.0212214085842 3980.0086585269714 23.525960927589438
0.9861560263983856 13.02687508135072 3547.6912303890585 24.477372106016205
1.008913136265851 13.032590297554512 3165.216743118655 25.46596586631797
1.0318331529359765 13.038328588102035 2826.6247291371133 26.493324068782407
1.0549202945718248 13.043964810074685 2526.5815794854407 27.561070341081006
1.0781477905242978 13.049487275230808 2260.4464217466566 28.67090490207649
1.10150866872862 13.054808678075355 2023.9140952137304 29.824708262128972
1.1249924881444537 13.05987577123366 1813.8522375701104 31.024408575959757
1.148579695867646 13.064643670362518 1626.652566365542 32.27203634496103
1.1722294275226477 13.069018811778976 1460.537965666779 33.571016052390085
1.1935710933477566 13.070773960124022 1324.7577769995587 34.97431880701028
1.2115380880387618 13.067068480218829 1216.9408937933238 36.519891919808
1.2267632177715055 13.05748188867191 1128.1065650846863 38.208939390025655
1.2397405442420861 13.042035397255566 1052.822711367676 40.04341776001146
1.2508981122015674 13.02101700906326 986.9681851719322 42.02530410674496
1.26058799576569 12.99484212815716 928.4285045602904 44.156823063765884
1.2690672480049507 12.963756493340004 875.0902941731076 46.44060768120414
1.2765803173594572 12.92811950493506 825.8295409883972 48.879808244337674
1.2833068307662174 12.888205760754264 779.9909219870651 51.47786641027963
1.2894227928921431 12.84435431947197 736.5875014679513 54.23882121629746
1.2950599895730288 12.796786678786614 695.2979792341359 57.16682576575225
1.300334397839212 12.745770507192137 655.870772748953 60.2665360978265
1.3053608828289607 12.691616379990066 618.0248655098903 63.54384087709754
1.3102068231969701 12.634558152475263 581.687985608204 67.00578035933387
1.314934915835336 12.574848706456214 546.675037137694 70.6601038754539
1.3196038720282894 12.51271594927412 513.0519970148383 74.5145157407703
1.324235468329945 12.448337675337084 480.7977784813541 78.57872725935295
1.3288891200385995 12.381965810129714 449.8871921349254 82.86156082065548
1.3335743032768783 12.313773716434248 420.3202423723232 87.37410634229765
1.3383224723705107 12.243967626625354 392.1486699677318 92.12775691641954
1.343126026226862 12.172697968734047 365.36863128441865 97.13533975950395
1.3479902702050521 12.100174987418505 339.9131682288233 102.41142468848935
1.3528705478680092 12.026520933263907 315.9440689291929 107.97420510295916
1.357759453641619 11.952211561496 293.4544005125954 113.85161335026116
1.3625014759112344 11.877146013218812 272.55919267554435 120.07140300700912
1.3673776431708964 11.800301183487901 252.5797734355491 126.59173480889679
1.3724867849309692 11.722169033727074 233.60227132008234 133.42397688609765
1.3778621171582648 11.643295507243899 215.62730707015297 140.58736947879976
1.3834603765074938 11.563823674711923 198.70673926041476 148.10276213227755
1.389272666981229 11.484116138650442 182.86470053745307 155.99122973570246
1.3952818464275054 11.40432755119129 168.0942508936993 164.27708925369743
1.4014400292355194 11.324642421184235 154.38919356955392 172.98578818688264
1.4076956426228986 11.245136395296859 141.69874746517695 182.14471929644324
1.414010851186477 11.165914810393216 130.01629017717968 191.7832432622582
1.4203382376565865 11.087013802837369 119.2580318566968 201.9337841669189
1.4266271991025037 11.008478073326147 109.39831193383854 212.6308009191639
1.432828549192505 10.93031293977769 100.3779652970081 223.91168389870407
1.4388949727938036 10.852525156643578 92.13407224467974 235.81725337082005
1.4447800758242628 10.775104592731028 84.61674752960084 248.3906692268067
1.4504342874334435 10.698012106146303 77.7694671426366 261.68028154655735
1.4558268210975343 10.62129929851734 71.53156752198917 275.7377142092676
1.4608977912548053 10.544854429915432 65.86072376483715 290.61911838117277
1.4656132957592138 10.468656123348863 60.70598652290706 306.3856987572653
1.4699393555049218 10.392672790384246 56.01918885790125 323.1041037886347
1.473848203545068 10.316931575853468 51.76274687421116 340.8472720183053
1.4772829694560736 10.241292925586668 47.899903426726944 359.6940202727329
1.4802197430058779 10.165770122245322 44.39077207039801 379.7317207006825
1.4826335901543137 10.090330406476864 41.199969013653096 401.05492449951294
1.4844965112126776 10.014907711793432 38.30052710605921 423.76767258127325
1.4857828315720294 9.939536571213948 35.66826061646407 447.98383135201703
1.4864735395177433 9.864161740879856 33.27644715601182 473.82860073670184
1.4865346495049845 9.788714183449263 31.105181845334048 501.4394736655465
