M[M_sun], R[km], Lambda[1], P_c[MeV/fm^3]
0.2416277750616976 15.618515526848569 2160321.870080337 3.5677787854173952
0.2522409820184816 15.31407738288945 1768054.004106142 3.7594167256008713
0.2631514933089934 15.045762538448583 1454163.184398138 3.958379966722945
0.27435904253242505 14.808562931909789 1201354.534517005 4.165005119261181
0.2858629186990431 14.598382849844137 996803.3656196404 4.379584346661998
0.29766459417736313 14.411577630380078 830330.1145283501 4.602272484910866
0.30976492199994854 14.24528908315282 694175.9183827608 4.8334805532621905
0.3221651009727435 14.097026732330896 582382.2580158969 5.073505881887526
0.3348618790323888 13.964810955527364 490162.84780562203 5.322658596312775
0.3478599196696026 13.846591659959556 413845.7724152253 5.581186860491139
0.3611584302882639 13.740905978019217 350396.26989234064 5.849502104964897
0.3747583554017107 13.646443389823002 297486.8069065263 6.127964401517742
0.3886611427683224 13.561988013482058 253236.35846153513 6.4169404721093715
0.40286372280912625 13.486627378256948 216083.35286359384 6.716812450584181
0.41736973431556534 13.419312001861831 184799.93591618974 7.027978491090774
0.4321781567250898 13.359277765400014 158416.4373162242 7.3508534070171825
0.44729023393247835 13.305847231677895 136081.96837394574 7.68586934208297
0.46270505257740907 13.258427913495252 117134.35367578735 8.033476475370929
0.47842181285093155 13.2163696707467 101023.46350768095 8.394143762249128
0.49444039851049004 13.179261744056642 87292.59083781119 8.768359713333902
0.5107605411756027 13.146610431758942 75552.44845832746 9.15663321387239
0.5273812095431826 13.118022686493244 65511.0647931009 9.559494386186108
0.5443022028705754 13.093153719047738 56894.460859690626 9.9774954981111
0.5615211211271823 13.071608977012007 49490.63352750222 10.411211920701973
0.5790347784565434 13.053172029586944 43119.19222106753 10.861243138832569
0.5968420713944551 13.037528538144139 37620.58457068798 11.32821381873083
0.6149457418098165 13.02439616705341 32871.50294042873 11.812774936929708
0.6333374441059799 13.013592518827126 28759.12916281586 12.315604975597301
0.6520144971902752 13.004902047088077 25198.51129960304 12.837398422661677
0.6709794197538519 12.998092344661535 22105.490249762537 13.378823238510797
0.6902226254686467 12.99302177670134 19414.84459775345 13.940723978949622
0.7097416780615711 12.989521960707156 17075.0834867372 14.523903534006767
0.7295346132249584 12.987403278102887 15034.073520106458 15.12919961544317
0.7495935824200107 12.986543725801493 13252.600229671036 15.757486494146937
0.7699166194945488 12.986807250645633 11695.793688309985 16.409676855719017
0.7904971533724042 12.988076963167014 10332.811612745612 17.086723784626393
0.8113287743578524 12.99021659627118 9138.701869470007 17.78962288820007
0.8324052885704205 12.993123718014587 8090.434891217674 18.519414572712332
0.8537214938677755 12.996692010205804 7170.684046320628 19.2771864847825
0.8752683971266702 13.00083631246459 6361.190891985259 20.064076132438565
0.8970366193565295 13.005443239149145 5649.1636780056315 20.88125275162858
0.9190248197041839 13.010441438630235 5021.491640991938 21.72995397259591
0.9412189177813393 13.015722657335862 4467.892966497738 22.61152862763166
0.9636078443239715 13.02123351322774 3979.298257236504 23.52734696715413
0.9861911271141169 13.02688413695665 3547.175453669017 24.4788457014079
1.0089490562333514 13.032607095803142 3164.6862987364166 25.467532076541264
1.0318699545721113 13.038329028074445 2826.0912920065484 26.494988267583214
1.054957569992853 13.043973576300651 2526.098426567613 27.562828138489046
1.0781862533137694 13.049496602819344 2260.0222419646357 28.672771963971208
1.1015440828605734 13.054826201340731 2023.4281453416647 29.826691023326646
1.1250309358127137 13.059885628516689 1813.2658544061367 31.02651388383642
1.148621460939904 13.064642803305942 1626.3578085474294 32.27427148911986
1.1723052987950493 13.069043662628337 1459.9371294156597 33.57210407217196
1.1960693529008477 13.073017810871375 1311.6584063095204 34.922268617682725
1.219898772701348 13.07652877405559 1179.3464977180283 36.327009639542844
1.2437766791039686 13.079512620197677 1061.3107028854677 37.78864818337782
1.2676916338009836 13.081920806316157 955.8255647427454 39.310097068336965
1.2916231302842627 13.08371932807825 861.5347135296636 40.89416099988011
1.3155561065836199 13.084856079681042 777.2180197323811 42.5432112276062
1.3394739272764484 13.085272438970877 701.6386669016279 44.260809274611674
1.3633596137982178 13.084940619068988 634.0140487956502 46.05006522973677
1.387193382437157 13.08381504777968 573.35569410082 47.91414877054499
1.4109573332125402 13.081855014278952 518.854093915512 49.857030832072
1.4346346448740597 13.079013391970143 469.9952905538913 51.88213615281444
1.458201395088154 13.075262939116989 426.00830551769616 53.993711082317205
1.4816439096875929 13.070556635376546 386.4836140752295 56.196206726248874
1.5049361716568104 13.06485848597408 350.9128503780001 58.493450893709756
1.5280624986827454 13.058130470374973 318.8724075395888 60.89081904172074
1.5510008880525783 13.050340466824814 289.9988710013634 63.39330066921998
1.5737274548954376 13.041458398190517 263.9535285930906 66.00620692582194
1.5962253427121256 13.03143782740327 240.4413042253287 68.73519662766303
1.6184620498067808 13.020247974178723 219.1979293163179 71.58630448491597
1.6404365340568972 13.007884688956786 199.99347560375648 74.56597174437537
1.6621090587305083 12.994283154611498 182.62635677256736 77.68107947339165
1.6834626667284465 12.979425232327216 166.9243655222161 80.93898473697743
1.704475126658291 12.96328138653632 152.68292369679588 84.34755994844564
1.7251241977420502 12.945824660633386 139.78532851550682 87.91488340191647
1.7453836438764958 12.927022247521435 128.0903150701871 91.64970085460232
1.7652363455410975 12.90685459408653 117.46553438059448 95.56190758704214
1.7846538825609706 12.885293628992628 107.82132873823494 99.66097124576116
1.8036170946420718 12.862308247144025 99.06548088142732 103.95808312284383
1.8210247738800849 12.838131195596382 91.45832289429629 108.56117923126159
1.8335769415008607 12.811199104544093 85.71975409711435 113.78854145062417
1.8414978514113256 12.779093119949229 81.33284938263502 119.686863027385
1.8455009327914074 12.741210945540947 77.90026611785207 126.28140133795243
1.8461594786929927 12.697447280550767 75.13103401529726 133.5985532019995
