M[M_sun], R[km], Lambda[1], P_c[MeV/fm^3]
0.2416277750616976 15.618515526848569 2160321.870080337 3.5677787854173952
0.252240938463163 15.314064539541489 1768140.7454902413 3.7594160458074573
0.26315110489010995 15.045789516806543 1454113.5155901664 3.9583785617512954
0.2743587376701323 14.808572281314877 1201324.2352985158 4.165002924413875
0.2858624703421277 14.59837120704108 996727.4861721582 4.379581324788273
0.2976644036076277 14.411585779998186 830317.4238527183 4.602268554174003
0.3097650766484238 14.245297558216796 682017.7731213298 4.833475646674106
0.3221637620969183 14.09708392665966 582361.1991932701 5.0734999293875775
0.334860395055817 13.964767158767764 482330.5157818518 5.322651524605588
0.3478596363747552 13.84659234721256 413848.5195592774 5.5811786575646245
0.3611583333929216 13.74089918586648 350393.1832991766 5.849492635466366
0.3747579158437956 13.646447514628937 297486.46967894665 6.1279535819016
0.38866056730427345 13.562003239675262 253235.61883402162 6.416928214851472
0.40286305059644023 13.486607926906707 216084.1589112661 6.716798663962182
0.41736893070367687 13.419293448947824 184799.71136390942 7.027963078950352
0.43217823654229326 13.359280685795712 156525.51805715877 7.350836268523218
0.44728934476044674 13.305872202652433 136085.2563066793 7.685850371454512
0.46270419619889797 13.258401398185905 117135.78721373946 8.033455561598808
0.4784207242433385 13.216368681496252 101025.46682008605 8.39412078879496
0.494439369415108 13.179263987194648 87293.5963052923 8.768334557809181
0.5107594005237991 13.146612546998263 75552.51534536044 9.15660574769594
0.5273801421539631 13.118024508180184 65512.11201603988 9.559464474218695
0.5442997491495507 13.093168380121554 56892.90202634142 9.977462998265262
0.5615199061942067 13.071629149772033 49493.148469160034 10.411176683525197
0.5790334572828045 13.053185068417104 43120.04311929965 10.861205007061963
0.5968428237378127 13.03751498591558 37620.63273723533 11.328172626817386
0.6149441118301656 13.024416485711033 32872.337308811635 11.812730510529368
0.6333357110318474 13.013608682087328 28759.88584442438 12.315557131026832
0.6520138665703967 13.004907534655525 25198.462309823182 12.837346611140287
0.670976443917726 12.998104680636631 22105.596827594687 13.37876758814869
0.6902197953364401 12.993040334259643 19414.748083437422 13.940664273435136
0.7097394282326971 12.98950796631499 17073.862741245113 14.523839545068256
0.7295323806613644 12.987394801509568 15034.11689654931 15.129131102082575
0.7495912797342117 12.986547276897102 13252.480559556347 15.757413201818961
0.769912908672457 12.98681637086301 11696.166037711173 16.409598515451492
0.7904953375068148 12.988070568010224 10332.853503229913 17.086640112077667
0.8113261569467368 12.990216270880179 9138.84140339421 17.789533582648538
0.8324025326735557 12.99312662773114 8090.39856129316 18.51931931597281
0.853719273885984 12.996686542601102 7170.826300779983 19.27708494004393
0.875266929922797 13.000837679966432 6361.285688614162 20.06396794301706
0.8970334623500061 13.00545291596182 5649.383606701367 20.881136824184786
0.9190206051256754 13.01044106891648 5021.489558539267 21.729830584090028
0.9412156786839897 13.015729546354091 4467.983721446125 22.61139735173407
0.9636070644540907 13.021233362743391 3979.590563540641 23.527207351607267
0.98618726781532 13.026880229357287 3547.196092350781 24.478697266238793
1.0089451967296044 13.03260139769267 3164.74658515263 25.46737431213887
1.0318663583302419 13.038330771445493 2826.1918755107495 26.494820632631043
1.0549527870413804 13.043972643108756 2526.0884566534787 27.562651075199167
1.0781828739455448 13.049491628093069 2260.107554173319 28.67258389426832
1.101544649661816 13.054809039115828 2023.6013760727506 29.82649129900665
1.1250267280531698 13.059883271175647 1813.330043898684 31.02630181513547
1.1486165183793648 13.064651684240381 1626.3786358241102 32.27404634172602
1.1723009347286018 13.069043140527935 1459.935045383148 33.57186506400088
1.196064676010548 13.073024850865904 1311.673222682249 34.922014915398385
1.2198934602025386 13.076527351659552 1179.3593822358202 36.32674175617556
1.2437725955890218 13.079510154894866 1061.3657224084477 37.78836383894716
1.2676861377120987 13.081920482779964 955.8173485574598 39.309795255329156
1.291618582717756 13.083723376811912 861.5399872740114 40.89384064278694
1.3155510754848387 13.084850228549092 777.2482810290742 42.54287284564055
1.3394700911282547 13.085271591680792 701.7035085372718 44.26045005488978
1.3633546477604992 13.08494068322217 634.0274696788811 46.049685669189884
1.3871886498095427 13.08381738823366 573.35684608914 47.913745755483454
1.4109518137324601 13.081856123205515 518.86945332493 49.85660482503514
1.4346287317028006 13.079018474896959 469.9999179347173 51.881683700220826
1.4581962286298298 13.075265888786365 426.01076328678494 53.993232597651904
1.4816382838880695 13.07055947833544 386.49802203992994 56.19569837046257
1.5049307902429714 13.064857070572895 350.9133714059084 58.49291301345539
1.5280572816428732 13.058132394844884 318.8884877308397 60.890249736961415
1.5509947945369114 13.050342717615463 289.99859268990576 63.39269790188195
1.5737221603570766 13.041461241273993 263.95961607431906 66.00556850871318
1.5962199595764595 13.031440999295757 240.44539595727494 68.73452021239909
1.618456627188191 13.020250984766012 219.20223825106407 71.58558754875162
1.6404315713079287 13.007887966827028 200.00293015591024 74.56521157583339
1.6621039390963686 12.994288165660786 182.6308597169565 77.68027315656633
1.6834568812950996 12.97943034606199 166.92974946955897 80.9381291343759
1.7044693108720388 12.963285589238165 152.68584069557264 84.3466516822188
1.7251184210154527 12.94582858285587 139.78540867572582 87.91392207186621
1.7453781963190975 12.927028671037585 128.09155758323047 91.64867943075885
1.7652298680255707 12.906861685752723 117.46650408738945 95.5608253005793
1.784647908067509 12.885299551793796 107.82591623700043 99.65982023161278
1.8036120153662385 12.86231556130558 99.06631529358143 103.95686216490134
1.8220961909091182 12.837886184886914 91.0979465623981 108.46351736270601
1.8400799766196696 12.811997801337213 83.84371161039024 113.19198771557409
1.8575404350105165 12.784614401700342 77.24280731478666 118.15541594327176
1.8744552068556344 12.75572965815052 71.22353585850985 123.36796884478974
1.890617255976146 12.72541744567819 65.78571012833646 128.86630471850387
1.9029464369463653 12.69426861258323 61.53329991650575 135.04163146404878
1.9104821449491618 12.659411503986776 58.35201104932692 142.06365970894865
1.913769047451932 12.619405863736382 55.90420213003767 149.96892322149833
