M[M_sun], R[km], Lambda[1], P_c[MeV/fm^3]
0.2416277750616976 15.618515526848569 2160321.870080337 3.5677787854173952
0.25223934168029805 15.314116528393361 1767988.321581917 3.759388288587879
0.26314649623326625 15.04590333537795 1454210.9451091713 3.958321194468799
0.27435305254399595 14.808691087281202 1201400.0184819698 4.164913305689832
0.28585660409095004 14.598459509213663 996852.635744358 4.37945793802645
0.297656301872751 14.41168000930531 830441.86934721 4.602108058243004
0.309754575723574 14.245432550451936 694220.2160858073 4.8332753067604575
0.3221512514213413 14.097193044972975 582479.4517254627 5.073256885257483
0.3348476718082482 13.96494851443398 490273.10168466606 5.322362783985277
0.3478423180838277 13.846703700784756 413926.62344900676 5.580843730345056
0.36113934223872235 13.741034519347286 350459.0649144952 5.849105995681931
0.3747367217804802 13.646570035870385 297557.01704847 6.12751181886993
0.3886354078160037 13.562158699791588 253289.3483565469 6.416427755489151
0.4028363761743308 13.486763500210802 216146.48051727726 6.716235763818449
0.4173403195224962 13.41941283638583 184858.6455111075 7.027333812665648
0.4321467370781341 13.359381624862992 158479.23951936112 7.350136519671976
0.44725480698623366 13.305982753616576 136132.34697224005 7.685075821727627
0.46266568798722474 13.258527621821209 117168.90322208335 8.032601679277942
0.47838010029267103 13.216485475172282 101065.23293003124 8.393182816467041
0.49439592502442664 13.179361607845042 87324.71426322714 8.767307499265154
0.5107127658556702 13.14669784952096 75584.88663463929 9.155484353954131
0.5273299211724748 13.118105484480546 65540.02511028823 9.558243228607855
0.5442475109603799 13.093228765184051 56919.31040054676 9.976136100498103
0.5614618122381909 13.071707861150365 49515.077805846486 10.409738032688251
0.5789733480229058 13.053228830715428 43139.91398199434 10.859648183441056
0.5967780619351417 13.037594528497333 37640.07074545622 11.326490872473176
0.614876918016855 13.024442672877548 32888.00138425687 11.810916708530533
0.6332641095920611 13.013637443715258 28774.17572490873 12.313603783241227
0.6519391585784604 13.004937990346715 25211.959232716563 12.835231314996687
0.6708989937115611 12.99812712130247 22116.008224178462 13.376495574191893
0.6901380379398675 12.993041775913397 19426.90758817088 13.938226711740395
0.709653719635956 12.98952810404454 17084.2844563073 14.521227117542319
0.729441320922908 12.987398983353463 14934.526010408514 15.126333971184954
0.7494968286758569 12.986539065536462 13260.485932739419 15.754420977057489
0.7698160480554702 12.986806379358534 11703.21456224569 16.406400217485018
0.7903915577700062 12.988061891004945 10338.798546544429 17.08322413424406
0.8112193305722817 12.990203735273996 9144.673953913387 17.785887649723044
0.8322924066105415 12.9931029510094 8095.784423963858 18.51543043994476
0.8536033689555738 12.996668392812222 7175.458570955956 19.272939372682117
0.8751455912366597 13.000812969011266 6365.560222286486 20.059551124975997
0.8969120597933048 13.00542129492103 5653.338521363171 20.87640412598513
0.9188930325425128 13.010401050975412 5025.06522682379 21.724793312145874
0.9410831327495675 13.015690833122777 4471.1633104559405 22.606038104140005
0.9634700054616868 13.021200134317171 3982.2195605141924 23.521507668235245
0.9860452847535387 13.026841763592577 3549.791658661776 24.47263755577829
1.008799087061904 13.03256229187226 3167.2229692814653 25.460933773648424
1.0317213484355738 13.038279876630263 2828.4663828617763 26.48797717115216
1.0547996167715006 13.043937384340152 2528.0328504614076 27.55542274153896
1.0780242080356353 13.04945835247673 2261.7938732395996 28.664906275149384
1.101381926101786 13.054776407142008 2025.1023935449314 29.818337937053744
1.1248601678317516 13.059850349197598 1814.877730520118 31.017644556823704
1.1484454850540196 13.064618446649778 1627.6121938071951 32.2648552154195
1.1721268085646772 13.069010703591983 1461.1072502992786 33.56210814839098
1.1958854569214499 13.072990632157813 1312.7192943137209 34.911658197510306
1.2197111529320406 13.076503237477871 1180.2828716898005 36.315806176359565
1.2435863847130153 13.079495660300806 1062.2213720585085 37.7767563383021
1.267496467365887 13.081908559450365 956.611342285374 39.29747471248901
1.291423919792013 13.08371430657734 862.2493375874759 40.880763161502315
1.3153552465978642 13.08484887624606 777.8900464030482 42.52905961790338
1.3392699087493878 13.085271009257301 702.2762130108524 44.24578627431341
1.3631517904882402 13.08494770259268 634.570228613271 46.03419161796061
1.3869825842559687 13.083826595805803 573.863981683306 47.897294351849254
1.4107437749515481 13.08187613200936 519.3208598308842 49.83921494712037
1.434417221681814 13.079043952922373 470.4246686921344 51.86321439610381
1.4579848530702353 13.075300349194116 426.40331460809404 53.973700743015485
1.481422922828229 13.070606630483898 386.8316174958818 56.17494728360702
1.5047145848044594 13.064914501644253 351.234060570434 58.47095684209907
1.5278379388916403 13.0582006223288 319.1660271190796 60.867010936017365
1.550774581800232 13.050424349611268 290.2647176297838 63.368093293253665
1.5735007474704812 13.04155182439796 264.2014108742616 65.97950882917063
1.5959959575929072 13.031545952813428 240.66948826293455 68.70690962090018
1.6182344911610942 13.020369694091531 219.40074767267004 71.55632308916165
1.6402096864037623 13.00802171660543 200.19023913128584 74.53418259055114
1.6618815053393645 12.99443520712074 182.80318714411808 77.64736064607544
1.683234969877971 12.97959292681913 167.0851752881552 80.90320505718692
1.704247946442959 12.963466258444528 152.8384450643819 84.30957818904675
1.7248972831850558 12.946024266462071 139.91988349701185 87.87468282726397
1.7451596300567214 12.927240933671975 128.20861726074716 91.60698754931774
1.7650130088024532 12.907090504592935 117.58376772935146 95.51664940333977
1.784433580813544 12.88554446996147 107.92803418735262 99.6128393596576
1.8033995499823976 12.862584514033111 99.16180993556218 103.90702668657703
1.8218876940609297 12.838175714622299 91.18299805358524 108.41062150994713
1.839874687887868 12.812304849367353 83.92671871502066 113.13573486393149
1.857338986644173 12.784944714748972 77.31622062042335 118.09556807196141
1.8742572632356382 12.756082137245464 71.2911567333381 123.30448388819244
1.8906042346158394 12.725688569909874 65.79500438896424 128.77737858413573
1.9063658585904086 12.69374586944968 60.792887879815716 134.5308721594723
1.92151160718589 12.660241981296103 56.21885365986091 140.5827613730343
1.9358398731589936 12.625369086910611 52.08229081128118 146.9812051144445
1.9470000254975284 12.58970490076074 48.74269200470757 154.08375760967849
1.9543793053850993 12.551147901272602 46.101148545351656 162.02474615697182
1.9582388571339844 12.508411114442655 43.97339066468287 170.85005478910153
1.958983448415303 12.461133373243927 42.24059603674528 180.60804290277767
