M[M_sun], R[km], Lambda[1], P_c[MeV/fm^3]
0.2416277750616976 15.618515526848569 2160321.870080337 3.5677787854173952
0.2522382894374465 15.314121467999641 1768229.5152684771 3.7593676099845017
0.2631449264228443 15.045937155771085 1454348.203245443 3.9582784573128427
0.2743499657500881 14.808759952035816 1201468.4705822598 4.16484654263104
0.28585089672838343 14.598576668879717 977490.3311182605 4.3793660196583195
0.2976501938825414 14.411775787481565 830498.9250399129 4.601988496009951
0.30974818755326516 14.24549154919546 694300.520539659 4.833126063828136
0.32214209883711636 14.097306977595224 582568.5671942745 5.073075831403918
0.3348365632200872 13.965058943700564 490367.32461161626 5.322147690672116
0.3478307821178442 13.846832709758578 414010.32905834663 5.580594232915339
0.3611248473342496 13.741179982767061 350525.68577183917 5.848817978327912
0.37472156759899544 13.646664638923115 297624.32369359024 6.127182741508147
0.38861808588464725 13.562277613964055 253356.78654151998 6.416054957114031
0.40281740336360367 13.48684746547181 216191.01065421503 6.715816455826324
0.4173187587134483 13.419505253972996 184898.85085684777 7.0268650717509775
0.43212274157500097 13.359481320434291 158506.69808012032 7.349615280264837
0.4472293279844755 13.306051160392155 134590.2712237382 7.6844988679398405
0.4626378658855123 13.25862044016041 117209.55899461836 8.031965636322054
0.478349603616054 13.21657425963393 101093.21724242099 8.392484141509467
0.4943634651060383 13.179428063102073 87351.22436059121 8.766542471672329
0.5106780290043446 13.146764137355548 75608.67888300866 9.154649064886714
0.5272928139333394 13.118183783231563 65560.45239678219 9.557333569915205
0.5442088709331623 13.093273218884997 56938.58661175699 9.975147752861275
0.5614196277477134 13.071740488987695 49530.55671556091 10.408666452956016
0.5789296202446983 13.053268920858255 43156.14153378746 10.8584885910995
0.5967300018652694 13.037617190217556 37653.509972918764 11.325238235184807
0.6148261428558638 13.024483257473864 32900.71724064426 11.809565726673934
0.6332118811424141 13.013659028790853 28784.615315463765 12.312148873377803
0.6518833549260156 13.00495514955653 25221.240150387726 12.833655794182542
0.6708409553195047 12.998132789493937 22125.859107913533 13.374803338535855
0.6900768416941326 12.993059395374722 19434.728360665496 13.936411186260717
0.709588897716526 12.989537313512466 17091.315937201725 14.519281363809677
0.7293755188304761 12.98740279840883 15049.40795986078 15.12425066403791
0.7494268046793585 12.986543056533694 13266.266610302891 15.75219237966147
0.7697431065687163 12.986790190863612 11708.068266002292 16.40401815460999
0.790314185936071 12.988061426748873 10343.80863947233 17.08067996362638
0.8111397203766182 12.990193727877095 9148.922929179298 17.783172231365594
0.8322106341812967 12.993091391694286 8100.526399561854 18.512534103197797
0.8535169476634803 12.99666030436241 7178.916915760513 19.269851880934716
0.875056674769244 13.000799061479393 6368.844800946511 20.056253859645224
0.896818963789199 13.00539759529464 5656.161929567761 20.8728794124418
0.9187981843563423 13.010377078806165 5027.651995889417 21.721041792299644
0.9409843212257805 13.01567360547475 4473.454637164273 22.602046821413406
0.9633672887573997 13.021174966634216 3984.2935115273467 23.517262878274703
0.9859405793649917 13.026814485342248 3551.7027805767193 24.468124672149308
1.0086914733246366 13.03254120640188 3169.0680521890786 25.45613730944529
1.0316095466014206 13.038252775532857 2829.9126313215747 26.482880676190103
1.0546852222720484 13.043906630403844 2529.4795061420823 27.550014162709452
1.077906437912142 13.049426120173752 2263.0854185760672 28.659188641463974
1.1012611419704224 13.05475069857871 2026.2919809551934 29.812266057341226
1.1247353485798388 13.059822605757672 1815.7322683388718 31.011197470941692
1.1483175880764582 13.06459194126282 1628.6056308983616 32.2580106098796
1.1719954123061442 13.068985585717305 1461.9439275606846 33.5548422584455
1.195752765140631 13.072971993350341 1313.5400048880108 34.90394570147734
1.2195752552473689 13.076483155841014 1181.0468506204381 36.307662664738125
1.2434477765555894 13.079478049971632 1062.8723832853632 37.76811253078004
1.2673559144907935 13.081896400614252 957.1865504806843 39.28829999633962
1.291281352730353 13.083695842266486 862.7945348993535 40.87102485861274
1.3152088559720725 13.08484374891861 778.3367748759094 42.5187735052131
1.3391222659395547 13.085268013693863 702.7483492003062 44.23486688518907
1.3630007804945234 13.084955543845574 634.9751335388897 46.02265405154929
1.3868295049303099 13.083835496973164 574.2323586354456 47.88504400560086
1.410589556770805 13.081890549645788 519.6857664778571 49.82626587446976
1.4342600631013502 13.079064498699088 470.7230895402265 51.84946167192967
1.457824407423596 13.075333070339743 426.67771597816073 53.959156929640514
1.4812620244205068 13.070643637868057 387.08317518764665 56.15949574968535
1.50455274694777 13.064959407187374 351.467227344873 58.45460811883795
1.5276752556538922 13.058251265645671 319.3863748174805 60.849707300611165
1.5506107269448597 13.050486529050044 290.4785860029255 63.34977283060325
1.5733364038086903 13.041620512730422 264.38699151150934 65.96010509546676
1.5958299364531972 13.031625117569911 240.83383786915502 68.6863512770365
1.618068429539151 13.02045671762202 219.55362880845166 71.53453350096757
1.6400423891869884 13.00812000266338 200.3253112037688 74.51107939250566
1.661715705619218 12.994545381146978 182.927751035694 77.62285526479359
1.6830699044689235 12.979712435287503 167.20345468029632 80.87720219056561
1.7040831351470105 12.96359750291975 152.94976846901403 84.28197523649075
1.7247332032603888 12.9461682155132 140.01381661760573 87.84546762598886
1.7449958491021302 12.927402209643853 128.29670801767546 91.57594657956403
1.7648518520277683 12.907261117546827 117.67150626239277 95.48374260491782
1.784273011806588 12.885730849462481 108.00248323744194 99.57786126191085
1.8032411580725656 12.86278441229518 99.23338128313524 103.86992364490638
1.8217312576936664 12.838391593631847 91.2441038946162 108.37124038186741
1.8397212355138481 12.812534567886818 83.98605360940205 113.09379142318961
1.8571878822890644 12.785192083352037 77.37311751379201 118.05099855488699
1.8741101074888589 12.75634434366015 71.34485848239507 123.25711266385935
1.8904624088661615 12.725966533049508 65.84813865641364 128.72708962807812
1.9062245260935904 12.694043481781582 60.83628288892809 134.47733032335228
1.9213754333265398 12.6605570797476 56.25786324815935 140.52572029952012
1.935882328392117 12.625461844392978 52.0789376459979 146.89072787898672
1.9497558931080183 12.588842735931513 48.25815711150654 153.59316483787865
1.9629308918061115 12.550547425318085 44.76179570498061 160.6543043455478
1.9754330973607892 12.510707068822576 41.56221550444673 168.09837371309914
1.9872061638297625 12.46920313700069 38.63157672114763 175.95086317615895
1.9982451643458314 12.426060323354909 35.949459371435616 184.23946810264977
2.008382564043949 12.381555541755047 33.51111288562615 193.03331846645986
2.0158773769466656 12.3370447790159 31.515578604399067 202.7716247945055
2.02008163263028 12.29059444543879 29.915804409783757 213.62521086094912
2.0211583041225882 12.241023905156423 28.620778300537488 225.66647469280247
