M[M_sun], R[km], Lambda[1], P_c[MeV/fm^3]
0.2416277750616976 15.618515526848569 2160321.870080337 3.5677787854173952
0.25224289624601254 15.314036984364673 1768116.138293811 3.7594537379056225
0.2631541239014455 15.045742507365867 1454007.110783472 3.9584564629075176
0.2743654092621879 14.808435362780871 1201164.1045382256 4.1651246224617955
0.28587135448370166 14.598217679154699 996621.0194394855 4.379748880201685
0.29767573748011966 14.411406300181328 830157.9440226196 4.602486505234805
0.3097790432265249 14.245124637011292 694048.514795506 4.833747708396339
0.32218068130921246 14.09688103352159 582238.0920916059 5.0738299872148
0.3348832850576846 13.964506170366803 490037.6727431097 5.323043643406542
0.3478825484304003 13.846392839624148 413737.38748604123 5.581633504014022
0.361184287899741 13.74069443061736 350277.56391793734 5.850017715682397
0.37478587145606534 13.646272020146736 297373.21854943957 6.1285535293165205
0.38869331101504545 13.56180134422389 253134.3968635577 6.41760788358161
0.4028988199922632 13.486438229683722 215990.07121756088 6.71756314099334
0.41740862543824725 13.419138002247943 184722.26611318684 7.028817697104689
0.4322222901051156 13.359083986760309 158352.9233923321 7.351786620263237
0.4473359343435905 13.305726155852376 136023.50525757988 7.6869023235846
0.46275143477375524 13.25831394260332 117070.33400360506 8.034615270929255
0.4784754431553424 13.216233887157024 100975.14068684894 8.395394718839007
0.49449839449603206 13.179131839696208 87244.88191872158 8.769729496588413
0.5108220595463787 13.1465097443794 75512.82321579414 9.15812882673638
0.527446751254796 13.11792971731451 65473.66921820003 9.561123188824437
0.544373760956107 13.093050748022565 56862.01793935931 9.97926522916448
0.5615947065929376 13.071546912357979 49462.34483592192 10.413130719989791
0.5791147166767658 13.053096454893469 43091.6204912002 10.863319571609395
0.5969285023641066 13.037466362104066 37596.59182755961 11.330456901612003
0.6150348253818116 13.024341917830558 32849.273438685515 11.815194165608709
0.6334320043960834 13.013542673786334 28740.049040880916 12.318210354487839
0.6521153638366032 13.004861487636463 25180.596977173627 12.840213263681452
0.6710826449068802 12.99808323194825 22088.312074038702 13.381853718452009
0.6903321071358003 12.993006478507226 19402.648388345286 13.943975303239878
0.7098572050250179 12.989493222622116 17062.603406925835 14.527388135919127
0.729653819490186 12.987392827332878 14914.573330076899 15.132930621499515
0.7497195323958721 12.986548069168064 13242.331866763723 15.761477768840056
0.7700486515536805 12.986802742709258 11686.602719908438 16.413943049430454
0.7906342258523971 12.988071654390703 10323.870364554678 17.091280384980426
0.8114712898714643 12.99023634538895 9131.055315413214 17.794486275116856
0.8325535208969159 12.993147598696892 8083.529723499079 18.524602077441585
0.8538748144913296 12.99672535333814 7164.627626594308 19.282716453224765
0.8754276983900614 13.00086263648689 6355.706428787236 20.06996799308589
0.8972029656457433 13.005479537249741 5644.391662060144 20.887548038165193
0.9191955227117369 13.010471506256968 5016.782458398357 21.736673638786055
0.9413954676592928 13.01576860130082 4463.835562645549 22.618677877330253
0.9637930717343727 13.021286774214635 3975.56348149034 23.53495043543757
0.9863791216215178 13.026923876636404 3524.3075331863974 24.48692953324177
1.009142511524825 13.03264659925949 3161.725689628194 25.476124031515898
1.0320710725491846 13.038378336243607 2823.3644293311677 26.504103752355988
1.0551634682147084 13.044020402003511 2523.7976283258263 27.57247122687112
1.0783958421134578 13.049541631818238 2257.470073719173 28.68310242611596
1.0983301565246584 13.051718526961565 2051.0049319342897 29.907033290336297
1.1124562558134938 13.045179703525324 1906.8498911895367 31.318720745057927
1.122318910563794 13.029680089311606 1799.2895031369997 32.91733464727413
1.1290310672895296 13.005979881478988 1714.3949548420405 34.70217628633709
1.1333488054761474 12.974747391179527 1643.8087831389678 36.67113624706677
1.1358466582450484 12.936590375962494 1582.350056138572 38.82368087317666
1.1369671555589986 12.89202943229967 1526.640746651458 41.15911373676034
1.137040622569696 12.841532751081289 1474.3921541403715 43.67722185147684
