M[M_sun], R[km], Lambda[1], P_c[MeV/fm^3]
0.2416277750616976 15.618515526848569 2160321.870080337 3.5677787854173952
0.25224209503920436 15.314054653533493 1767898.656083508 3.7594404830008292
0.2631545461214516 15.045679770645284 1453990.0403740495 3.958429067852851
0.2743629748906625 14.808480360418043 1201219.4618338046 4.1650818254119395
0.28586852631752496 14.59824018496979 996710.81147787 4.379689956426132
0.29767169229653134 14.41146326894794 830234.6392416182 4.602409858619613
0.30977436549836157 14.24518002635217 694113.5068078714 4.8336520323317504
0.32217480662384806 14.096936096228433 582283.3471063889 5.073713915141797
0.33487435284261297 13.964624909440435 490065.24708987493 5.32290574565249
0.34787452896979104 13.846461386433145 413772.68752585206 5.581473545983842
0.3611755856087339 13.740807643612609 350319.787469885 5.84983305745284
0.3747768088818458 13.646307216978267 297435.61326891 6.128342541220098
0.3886820525500142 13.56191905756736 253180.03601257157 6.41736885832396
0.4028861685956928 13.486490276702586 213245.4699033877 6.717294289366745
0.4173950328419022 13.419195436042278 184756.22680260334 7.028517143426749
0.4322070436408871 13.35914856984044 158375.2503720714 7.351452397521096
0.44731928448411 13.30576076923577 136035.19445328243 7.686532368263289
0.462736878377301 13.258308503932227 117096.03222598697 8.034207417501534
0.4784559151750698 13.21628418771883 100986.91141963017 8.394946693891802
0.4944781988911054 13.179195524596715 87262.81472399579 8.76923891255931
0.5108005054053331 13.146543834185431 75527.47430319962 9.157593175231247
0.5274223646419204 13.117973028790093 65487.69236198314 9.5605398334856
0.5443478865661638 13.093072384441614 56874.44835865571 9.978631398055994
0.5615674830538264 13.071573245631697 49471.98056997206 10.412443497464587
0.5790860779187846 13.053138181314223 42718.14077319703 10.862575889619409
0.5968987697491503 13.037473965759432 37606.78919004916 11.329653530420778
0.6150032303539327 13.024359312390605 32857.7505843956 11.814327703861617
0.63339793338653 13.01356229623432 28510.703266536115 12.317277218593048
0.652079478814925 13.004869376461489 25186.45153314125 12.839209324293924
0.6710439902725057 12.99808665173188 22094.781471178005 13.38076832126983
0.6902929038120993 12.993015030921573 19407.27944913355 13.942810804313169
0.7098152221534575 12.989508430005802 17067.10707916771 14.526140081562845
0.7296113181453223 12.987399845973577 15026.530716602241 15.131594309683678
0.7496758136437827 12.986540473042178 13245.874503997946 15.760048233167968
0.7700013034828551 12.986815483779829 11689.984632980362 16.412415041971517
0.7905859052364657 12.98807199300702 10327.358523044872 17.089648357872356
0.8114201694315333 12.990218512654042 9133.716710423607 17.792744360842065
0.8325013663524177 12.993140355329983 8085.914064712501 18.522744067677653
0.8538200291984397 12.996710636338358 7166.7084597429875 19.280735776158597
0.8753705518706746 13.000852446579936 6357.636205768085 20.06785768907283
0.8971444559182562 13.005461424500586 5645.983988725084 20.88530073360406
0.9191343920845867 13.010467719992562 5018.574385268146 21.734266818771644
0.9413321477206493 13.01575747508474 4465.169251000976 22.616117181816364
0.9637268385021465 13.02125756591053 3976.9680529852585 23.532227039524408
0.9863106651434974 13.026912798670189 3544.967982044475 24.484034071107917
1.0090736995305485 13.03262998927693 3162.7336719214213 25.473046558893408
1.0319982302276998 13.03836585194885 2824.3486472147683 26.500847786386473
1.05509006013615 13.043997582705636 2524.6375694457593 27.569017235260795
1.0783219552913577 13.049525039969362 2258.555956112845 28.679345805758814
1.101687858873158 13.054848195413033 2022.1954356968272 29.833672270904977
1.1251730785860357 13.059916374814048 1812.0569194994962 31.033926650998577
1.1487655676746937 13.064675335923345 1625.2356397308552 32.28214144717624
1.1724543947430892 13.069067306788016 1458.9905990716813 33.58045856267634
1.196221864301885 13.073042040419635 1310.7734994640455 34.931136774099336
1.220054597685397 13.076546381098435 1178.572405525698 36.336373526900836
1.2439371727291704 13.079533924440126 1060.5510591224436 37.79858750952331
1.2678535119877452 13.081941466872458 955.1285807066135 39.320647056545006
1.291788901720033 13.083728135616616 860.9340039385556 40.90535925076946
1.315724568117589 13.084860357209612 776.6270905022822 42.555039589535276
1.3396462014929216 13.085275533998871 701.153152521472 44.273366088107664
1.3635332588933868 13.084938890203468 633.5421892989432 46.06333312185532
1.3873691418816254 13.08380770178271 572.9166592415002 47.92823659959247
1.411136165556165 13.081833635669348 518.4798058669381 49.87192242720084
1.4348138427106945 13.078988814673947 469.64261328758977 51.8979522569176
1.4583845436304994 13.075228908185855 425.69548600803876 54.01043723927698
1.481828073538481 13.07051681842337 386.1949581299496 56.21390993508484
1.505122527401641 13.064805126964975 350.64003828750833 58.51225347914633
1.5282498667618591 13.058070916587116 318.6268410968411 60.91072021109889
1.5511894327190858 13.05027145869853 289.764227510401 63.4143716786926
1.5739158793069683 13.04137926623388 263.74684806274104 66.02852424558077
1.5964147475172978 13.031348058458965 240.2537454031162 68.75884236418693
1.6186520228026258 13.020149221965674 219.02334813736906 71.6113668414534
1.6406278500923788 13.007770446341617 199.8391921099388 74.59254552351265
1.6622998140234677 12.994156202103357 182.495628247251 77.70926662597817
1.6836535845721758 12.979284881180448 166.78917441132143 80.96889496215368
1.7046648674115783 12.963126963001207 152.55698805342993 84.37931135005181
1.7253114602067003 12.94565703756702 139.67029321452776 87.9484899700202
1.7455711198572381 12.926840869235074 127.98022071417124 91.68540839104848
1.7654210022935677 12.906654017424975 117.37596547036486 95.59974297078826
1.7848378931079758 12.885078479220647 107.7384755842264 99.70120948200608
1.8037990687640828 12.86207917012124 98.98547680027899 104.0007667299785
1.8222803108329053 12.837634444741731 91.01515928146614 108.51011859101227
1.840262304123181 12.811724014501685 83.77079157598786 113.24148156360802
1.857718709660599 12.784324321491557 77.17845681523168 118.20801429969701
1.8746292056185982 12.755399556485477 71.16491343718765 123.42402642429883
1.8877077809365035 12.726097062412911 66.48026900901303 129.29317983438844
1.8939380112259507 12.693264979758402 63.42220763835062 136.26148794066862
1.8945218475263488 12.654472913642973 61.40052974661549 144.35622430322522
