M[M_sun], R[km], Lambda[1], P_c[MeV/fm^3]
0.2416277750616976 15.618515526848569 2160321.870080337 3.5677787854173952
0.25223785328902537 15.314170802542689 1768196.5385756886 3.7593581080806238
0.2631438443682456 15.045957247813499 1454299.3630758796 3.9582588195226434
0.2743490802229973 14.808743008209381 1201531.6671435935 4.1648158650711675
0.2858489405765674 14.59859143634224 996974.9245833519 4.3793237834846055
0.2976471957593461 14.41181366751765 830574.6292410921 4.601933557870863
0.3097441792881566 14.245549367760725 694386.3418230966 4.833057487947279
0.3221382446508247 14.097325545996323 582599.8687223017 5.072992639106714
0.3348319700456419 13.965028385096867 490360.10820329766 5.322048858121752
0.34782413677635 13.846849900316327 414031.0190364069 5.5804795926835595
0.3611185603262498 13.741244728393156 350561.0273671367 5.848685639450826
0.37471263952340506 13.646744025985285 297640.6902919563 6.127031537038894
0.3886089477359279 13.562308785867872 249964.8288382798 6.415883664559686
0.40280870497502896 13.486898264019322 216217.88953371273 6.715623794081446
0.41730863430294246 13.41954949644638 184918.08893263797 7.02664969783453
0.4321113933175142 13.359522576680456 158527.6058090665 7.3493757858465285
0.44721652490998687 13.306119046557725 136177.77048091884 7.684233775640806
0.46262620398932647 13.258623871710096 117218.87517524196 8.031673395773248
0.4783350746057238 13.216592248112127 101096.85813088316 8.392163125150402
0.4943465681990077 13.179472411315158 87360.27669132248 8.76619097027081
0.5106619772189431 13.146792003031146 75614.19821263314 9.15426528275931
0.5272742335375412 13.118208681881224 65568.77821668929 9.556915619826315
0.544189287033973 13.09331292582695 56946.326904083144 9.974693650576938
0.5614001976591079 13.071778988466669 49538.64649133486 10.408174111427234
0.578908184275074 13.053309572356927 43161.47027418183 10.857955814247616
0.5967098465822359 13.037624396410992 37659.21491937549 11.32466271125937
0.6148040079326277 13.024488593783634 32903.72356740327 11.80894502115187
0.6331862904434262 13.013687054644851 28789.702120283735 12.31148042136946
0.6518581913230316 13.00496032985597 25225.913764071232 12.83293193168025
0.670812084679911 12.998152985717974 22129.486881479283 13.37402585566081
0.6900459162494129 12.993091808744504 19436.720610337125 13.935577062681725
0.7095600470878469 12.98953096963431 17094.39434467663 14.518387412255372
0.7293427561304165 12.987421355901256 15051.52836282182 15.123293519602337
0.7493953077594332 12.98654059294731 13269.31912238115 15.75116848834911
0.7697092461754526 12.986801517608821 11710.646537113636 16.402923761062684
0.7902807623092319 12.988048363551757 10345.841065147872 17.079511097970336
0.8111031351165916 12.990189297565129 9150.877651234328 17.781924695111712
0.8321694859631447 12.993087158844405 8102.027960504081 18.511203454122825
0.8534773505794117 12.996648658131713 7180.492306576715 19.268433416865037
0.8750131242367774 13.000788464380214 6369.760026035263 20.0547331200487
0.8967763551410277 13.005381199266795 5657.483500067273 20.871260094541373
0.9187534608852116 13.010370157518482 5028.654110380039 21.7193182832607
0.9409384948590718 13.01565828771569 4474.422292763087 22.600213169784965
0.9633212418326306 13.021154200296985 3985.277024745636 23.515312770785325
0.985891495855473 13.026817431809045 3552.4603659162867 24.46605140876757
1.0086413038429316 13.032528992893823 3169.801976527196 25.453933776564483
1.0315584646956388 13.038244597754417 2830.7465131143877 26.480539317784427
1.054632659453328 13.043890870079727 2530.1015962936767 27.54752694929414
1.0778512476530273 13.04941564259477 2263.6295443334116 28.656561951079226
1.1012047315043796 13.054738217699247 2026.8203119305472 29.809476639060605
1.1246788648825208 13.059810511478533 1816.4475951796726 31.00839390846776
1.1469898026222871 13.063423253404578 1637.5934827560309 32.28090057863109
1.1670663771630592 13.063327935960634 1490.0466544277847 33.65514862414805
1.1852534676964426 13.058998835497587 1365.2076517111427 35.13337463571112
1.2018598097684805 13.050385597108566 1257.4095789748703 36.71772714757713
1.217115924409707 13.037500751764417 1162.5356151833196 38.410556250275086
1.2312703274029797 13.020580021364783 1077.7628376843495 40.21441398929833
1.2444873297386259 12.999817294043897 1001.1969952550689 42.13205336630275
1.2569337867307047 12.97545400120358 931.4587874991577 44.166522563069954
1.2687323703961888 12.947602709534998 867.1926850877079 46.321235995144896
1.280005875462832 12.916573527196253 807.7046986998506 48.600028319586244
1.290847075080175 12.882546898029982 752.4081994136114 51.00689468716317
1.3013428256336768 12.845698502557838 700.7668894115707 53.54630136571453
1.3115583438673806 12.80624951265918 652.4173972783999 56.22299250277415
1.3215535781947043 12.764348172298275 607.1396770377268 59.04238182754881
1.3313926568823937 12.720222396509067 564.5603971267709 62.00998543874951
1.3410985723080642 12.673979478400915 524.6441432858802 65.13172702137517
1.3507270893987813 12.625839606539722 487.03916507338545 68.41462167135457
1.3602786582624762 12.575914248193738 451.8403534832113 71.86583658632102
1.3697795157749781 12.524362357358633 418.809049980141 75.49397666588875
1.379235518246085 12.471310047893223 387.9316196501392 79.30718281953138
1.3886540609730702 12.416863480293589 359.0263062480454 83.31518504669585
1.3980409975451022 12.361162023256476 332.0580088600882 87.52789957146372
1.407389309199526 12.304282529047075 306.90426340013016 91.95610991802528
1.416692381212854 12.246323422638463 283.4909303622644 96.6111787985256
1.4259340546472337 12.187329961102135 261.7413485821544 101.50554507156134
1.4351238854296509 12.127451381075266 241.54557094443226 106.65256584443154
1.4442254041540168 12.06670700806674 222.84924198688185 112.06666052515116
1.4532377983813238 12.005183014474454 205.53793073536232 117.76320010534118
1.462122779182985 11.942896154546052 189.53354830592622 123.75904517810599
1.470863772685895 11.879904029636764 174.77928542788217 130.0728424503849
1.479419971728632 11.816217418732162 161.17281316828849 136.72465360791207
1.4877802055662466 11.752025209514537 148.67480105741575 143.73949829295296
1.4958317025903336 11.687309982650824 137.2264049018038 151.15045590519787
1.5036037166973557 11.621794286789243 126.68477599430025 158.96777868975698
1.5112143035584567 11.555338361328685 116.93503281884838 167.19251580005357
1.5186509812500015 11.488185486129106 107.90109060139253 175.85167462107358
1.5259089582146297 11.420417564166007 99.58271560183478 184.97427243038496
1.5329439033927401 11.352156214420365 91.91075791992083 194.59174408681977
1.5397322138035707 11.283444903820124 84.86027158051309 204.73833194571208
1.54624276147171 11.214323616320028 78.37498214456453 215.45072394073946
1.5524410059751987 11.144843808727067 72.42510995036609 226.7694127902144
1.5582960215399093 11.075013106949013 66.97796232514281 238.73754429699287
1.5637616834639496 11.004835602954808 61.983903842471534 251.40219654975382
1.5688142652121313 10.93431158994893 57.41923943980531 264.8148944819407
1.5734108520538508 10.863423214922339 53.24250375933355 279.03151375133785
1.5775284973392345 10.792188779489111 49.41902933213893 294.11286216463395
1.5811342507589228 10.720571254265014 45.928806243933586 310.12523925254675
1.5841964363652883 10.648584620776974 42.73701174718555 327.1414067499505
1.5866899209236798 10.576202996181538 39.81968142555466 345.2401499574222
1.5885947513889327 10.503415739705646 37.15783160017764 364.50857066595387
1.5898868592273012 10.430250689587414 34.727046357639026 385.0415838660467
1.5905306645441009 10.356606435707508 32.50375604653132 406.9431977169751
1.5905347773381258 10.282628593050484 30.472473938663864 430.32802584926844
