M[M_sun], R[km], Lambda[1], P_c[MeV/fm^3]
0.2416277750616976 15.618515526848569 2160321.870080337 3.5677787854173952
0.2522425490553779 15.314029141789366 1767895.164277025 3.7594458406487945
0.26315450906119786 15.045700064336245 1454007.8205407942 3.958440140949641
0.27436403426344197 14.808493137728286 1201355.1122002585 4.165099123978865
0.28587004504683916 14.598229053408755 996684.3096591032 4.379713773381997
0.29767335824771296 14.411448456559539 830198.9316869605 4.602440839093384
0.30977613798084136 14.245158280299584 694062.4457037381 4.83369070443336
0.32217847765813123 14.09688495851726 582288.6919247756 5.073760831210751
0.33487896018770785 13.964568580374614 490043.6381513312 5.322961483536668
0.34787777090049826 13.846433752250377 413756.19467306917 5.5815382004872225
0.3611787860523105 13.74074728855794 350294.96722624946 5.849907695596071
0.37478116525935756 13.646283907279638 297410.579753731 6.128427821682439
0.388686648157116 13.56187129047804 253163.83344499223 6.417465471158836
0.4028917797158342 13.486487809040911 216020.028984876 6.717402957734217
0.4174004507553423 13.419179091023073 184742.47648565695 7.028638625437005
0.43221215401813584 13.359135092370199 158366.0422726758 7.351587488196973
0.4473265450243445 13.305735901873705 136030.08374413746 7.686681901630462
0.4627450058133817 13.258278918394332 115780.61787332596 8.034372268815526
0.478464287970423 13.21625658486569 100982.0989767469 8.395127782011762
0.4944855810219021 13.179165664960955 87254.33746214281 8.769437202479544
0.5108095403297249 13.146525939060362 75521.30935030362 9.157809680781956
0.527431965455174 13.117979706425807 65482.24112403454 9.560775620215226
0.5443581122290135 13.093070889486741 56867.838528180495 9.978887586308796
0.5615811426120764 13.071538582513021 49468.75801851487 10.412721265667548
0.5790970550468146 13.053115999473272 43097.52722675077 10.862876477794414
0.5969104940218152 13.037486025425247 37601.128764390276 11.329978243938035
0.6150156786243237 13.02437545634833 32854.34567388039 11.814677917452965
0.633413202986861 13.013546222402137 28744.215987357547 12.31765438064355
0.6520943828101048 13.004859848097809 24982.801813237442 12.83961531358927
0.6710605870504098 12.998074997014477 22092.32895758484 13.381207024361519
0.6903082064000798 12.993006752152354 19405.431531590842 13.943281478726387
0.709832576505815 12.989491260191006 17065.176036703353 14.526644527339592
0.7296288738229286 12.987397514295989 15024.98618950172 15.132134427236846
0.7496936025209852 12.986536944002992 13244.777681079857 15.760626029756564
0.7700203068148914 12.986816769060376 11688.638115611278 16.413032638638803
0.7906052605096165 12.988078989417806 10326.17309394003 17.09030799688126
0.8114407963372098 12.99022133209152 9132.637454921472 17.793448413646374
0.8325231613106333 12.993130924361363 8085.196030626009 18.52349504346979
0.8538429005243777 12.996725173417632 7165.935969788681 19.281536331037817
0.8753936571220955 13.000852733510996 6356.856434154676 20.068710635882567
0.8971670136290378 13.005471445720794 5645.287025214523 20.886209052490354
0.9191589784575502 13.01046396412036 5017.856477086011 21.735239609499928
0.9413581540199285 13.015767400527993 4464.6771885442795 22.617152164849614
0.9637534828870092 13.021263319763635 3976.0513189698145 23.53332778155501
0.9863382877987379 13.026925855469282 3525.0261103642315 24.48520435744294
1.0091016125784538 13.03264532172161 3162.326430557896 25.474290408619638
1.0320280257157788 13.038372972310247 2823.9786322871723 26.50216665033525
1.055120157498243 13.0440035572892 2524.356040991648 27.57041326291841
1.0783531949132457 13.049535253979103 2258.229815479984 28.680828624207805
1.1017185081913128 13.054853201198847 2021.9527405259323 29.835246992464803
1.1252053025169002 13.059928170075477 1811.8066714764427 31.035598715825834
1.1487986680625368 13.064683714380013 1625.0067346731933 32.28391664684412
1.1724884681720367 13.069074505295886 1458.7906228145202 33.582343065611866
1.1962568414092074 13.073051808693137 1310.5856577350967 34.93313715303734
1.2200903790689792 13.07654952578116 1178.3995754715377 36.33848573573108
1.24397266561869 13.079537529979739 1060.3999088023716 37.800829530853136
1.267890201481082 13.081945669346267 954.9733615703008 39.32302683716577
1.291825698052091 13.08373609276094 860.8480520102443 40.90788527388729
1.3157622907892463 13.084855960586717 776.4786951735 42.55770776001743
1.3396845799695027 13.085271756868938 701.045209530971 44.2761985928713
1.363571941886159 13.084935239867894 633.4240928645219 46.06632604137453
1.387409537650256 13.083804303042594 572.8251912360704 47.93141449410439
1.4111765240688312 13.081831212369801 518.4052415158811 49.87528164831526
1.434854808064926 13.078987293604243 469.5642408506344 51.901520046652315
1.4584256711300045 13.075226194916695 425.6101228822485 54.014210336043384
1.4818684018496424 13.070507523551111 386.12607821764044 56.21790135882325
1.5051654666722223 13.064793685918966 350.57625689517374 58.51649502243049
1.5282918629776414 13.058055849577572 318.5746130873034 60.91520959854507
1.5512302409277836 13.05025763526906 289.7009106650297 63.41912498758322
1.5739593914847176 13.041361171123018 263.6963002815423 66.03355872975938
1.5964571011260822 13.031328812002366 240.21062191209495 68.76417654935175
1.6186959198151256 13.0201238622924 218.99191956622846 71.61702062908043
1.6406705831845148 13.007745689677334 199.8040250486885 74.59854030427834
1.6623413521535737 12.994129848677694 182.46154621906234 77.71562540364516
1.6836960299998087 12.979254055786466 166.7578045170531 80.9756424889922
1.704707147940183 12.96309354188274 152.5299989238089 84.38647427498569
1.7253529703193193 12.945620948315984 139.63877074409598 87.95607144908296
1.7437207429696997 12.926862187075772 128.84550827218257 91.82891912284576
1.7545351800756441 12.903470921850623 121.7566015488905 96.43795872104101
1.7590104648039693 12.872694476473127 117.05379446652645 101.82341235337893
