M[M_sun], R[km], Lambda[1], P_c[MeV/fm^3]
0.2416277750616976 15.618515526848569 2160321.870080337 3.5677787854173952
0.25223902431597384 15.314110708387114 1768120.6839159024 3.7593824062016172
0.26314658938090274 15.045896247009022 1454228.7390619097 3.9583090371124867
0.27435291262808165 14.808692605058235 1201412.793424595 4.16489431367959
0.28585477900432665 14.598497076863065 996893.8148980743 4.379431790045785
0.29765462510733376 14.411718315319746 830486.6318707006 4.6020740463337155
0.3097533000259469 14.245417750905695 694294.5730172885 4.833232851462009
0.3221487654662494 14.097222185278733 582544.8412456372 5.073205380539439
0.3348451144717077 13.964901280878946 490262.2590283388 5.322301595844967
0.34783876296977057 13.84678165158832 413956.37347399746 5.580772755009114
0.36113649265168796 13.741033315028437 350470.1207435105 5.849024062256686
0.37473222717421617 13.646607953154069 297585.0815649824 6.127418204714291
0.3886303151593271 13.562193866641552 253321.63569676035 6.416321703558163
0.4028312561717813 13.486761349649873 216168.06681580993 6.716116480763791
0.4173339263809358 13.419438798163725 184869.09413562444 7.027200466814479
0.4321391251445265 13.359450520796072 158491.52194814518 7.349988238875286
0.44724784360668285 13.306001982433289 136142.94813805594 7.684911691068731
0.46265825857291315 13.258566351612723 117183.1772954487 8.032420738630998
0.4783721202727404 13.216486405787501 101072.52783436174 8.39298405789454
0.49438743624899434 13.179365018879963 87336.74764634317 8.767089864242797
0.5107028679389226 13.146716529864065 75589.5469287992 9.15524673041006
0.5273195585003733 13.118121968315345 65548.15348079606 9.557984447762903
0.544236144779505 13.093227162100437 56924.59424885141 9.975854933492231
0.5614495971011161 13.071723256577382 49519.34336696209 10.409433186977237
0.5789605652803901 13.05324197756451 43144.94192241311 10.859318298946828
0.5967654808767409 13.037579093298303 37643.97234202358 11.326134517469217
0.6148620704566411 13.024456208434843 32891.49924617547 11.810532375243005
0.6332495839430974 13.013641073867495 28777.321154220943 12.313189883144938
0.6519237231300059 13.004942364825375 25214.591618120834 12.83478310177087
0.670881278207372 12.998128603566506 22117.78637216739 13.376014156199679
0.6901203522052156 12.993046765224369 19429.013811824963 13.937710218341334
0.7096342215946589 12.989531226219198 17085.793215087477 14.52067357468709
0.7294222199199066 12.987403569384442 15044.999512707229 15.125741294790213
0.7494768626657989 12.98655148656624 13262.010199482806 15.753786965909326
0.7697951322949076 12.986805761503643 11704.7030737861 16.405722545635456
0.7903704165214418 12.988062095794836 10340.543195379896 17.082500342862616
0.8111966845130963 12.990200869835062 9145.882135275004 17.785115138361355
0.832266736732989 12.993102510327004 8096.599995323663 18.51460645716993
0.8535784840949756 12.996673544739593 7176.485338435487 19.272061006030015
0.8751205142341882 13.000806469392229 6366.364788497114 20.058615290171897
0.896885053484276 13.00541333221979 5654.046679357114 20.8754013684325
0.9188661954993538 13.010400172781305 5025.856568082586 21.723726027332795
0.9410551061926834 13.01568873173348 4471.738780764141 22.60490260569135
0.9634403530921677 13.021187470679797 3983.0300760689584 23.52030004562894
0.986015728965845 13.026840806731657 3550.243781734741 24.471353658893218
1.0087684117028015 13.032563668549136 3167.8088776356835 25.45956919614964
1.0316896999538134 13.038275155961614 2828.858724251205 26.486527232619206
1.0547669741912655 13.043927689236277 2528.4404471576204 27.553887896177894
1.0779904471359896 13.049450322697922 2262.118764697359 28.66327961751758
1.1013474902121267 13.054768500492466 2025.4492550615898 29.81661049295166
1.1248256955473774 13.05984705202229 1806.239144699609 31.015810362586308
1.1484093907376016 13.06460835829477 1627.9654490099304 32.26290792230231
1.1720879186466273 13.069006192962728 1461.3144717324228 33.560040994708615
1.195843489608791 13.07299361381517 1312.8754619753174 34.90946397856623
1.219671711919261 13.076501677367803 1180.46661086059 36.31348932798053
1.2435471755877774 13.079484399785947 1062.391959618694 37.77429714843918
1.267456369650965 13.081902611891703 956.7978059238806 39.2948644709192
1.291383204575473 13.083705379395749 862.4349346127195 40.877992570307256
1.3153123499737902 13.084847174669338 778.0507512855357 42.52613316603545
1.3392272084751269 13.085272185386469 702.4086484327465 44.24267964392923
1.3631089018974156 13.084952185317174 634.6838011778148 46.03090910520293
1.3869387996968492 13.083832434868771 573.9604547596424 47.89380903922376
1.4107001827943162 13.081879241204875 519.4243905736079 49.83553083327417
1.4343728458685925 13.079053995039098 470.50487109451416 51.85930162620154
1.457938000753906 13.07531095966818 426.4807844866514 53.96956289147332
1.4813775388792492 13.070615907171298 386.90949677152895 56.17055116449538
1.5046682619165008 13.064926742875038 351.3028608273026 58.466305451947036
1.5277918875110303 13.058214115846475 319.2355387046 60.86208785050819
1.5507282868678813 13.05044137603594 290.31744221547336 63.36288089513597
1.5734541099213613 13.041572769560872 264.2549435168817 65.97398821252399
1.5959489597652547 13.031569306326395 240.71587908302553 68.70106048681365
1.6181868528434942 13.020395170425221 219.44755451078728 71.55012363197001
1.6401610197670353 13.008049811825325 200.2240429333041 74.52760937367788
1.6618358794649655 12.99446624132258 182.83831512354365 77.64038846642782
1.6831876744418204 12.979626257552374 167.11566136158794 80.89580679693049
1.7042016704822813 12.96350084796698 152.86848492851607 84.30172465345908
1.724850699266236 12.946065231699507 139.94687218761567 87.86637055583928
1.7451135511694744 12.927284511363766 128.23579033742033 91.59815578491067
1.7649672292195333 12.907140119369897 117.61139571333601 95.5073031037751
1.783111248612581 12.88558892253502 108.43975140826042 99.69979570635925
1.7977223702226997 12.860963690359528 101.04848742657796 104.33301086351854
1.8090263016208645 12.831802677686108 94.94529645649448 109.42577065686149
1.8174556057008844 12.79785899081327 89.80771726759366 114.99647111042405
1.8233132474890053 12.758854319600147 85.3795264648939 121.06479595052947
1.8269424003895196 12.714950758111506 81.49397945379302 127.6522102433386
1.8286093578324103 12.666298227963576 78.04011434794825 134.78211710439754
