M[M_sun], R[km], Lambda[1], P_c[MeV/fm^3]
0.2416277750616976 15.618515526848569 2160321.870080337 3.5677787854173952
0.2522384914895401 15.314131885192433 1768152.5244438178 3.759374648118872
0.26314569613390404 15.045890431043365 1454204.8075077548 3.958293003221928
0.2743516301088197 14.808703521998375 1201399.6241760661 4.1648692658779245
0.28585277788680086 14.598537593535 996893.8800794735 4.379397304604769
0.29765239211679867 14.411739251797286 830499.052090371 4.602029189606298
0.3097499079838673 14.245466854280533 694281.9538337861 4.833176859275137
0.3221457297309707 14.097256429069104 582525.6366761865 5.073137453683002
0.3348402792754183 13.965022185723496 490343.75028644496 5.322220898222605
0.3478347869451092 13.846797362534284 413990.4537570979 5.58067914980669
0.3611311187381633 13.741083396127893 350513.22306036873 5.848916005320143
0.37472629984400024 13.646633428098097 297598.78681504057 6.127294743062093
0.38862324392398995 13.562231710372684 253330.84210083706 6.416181838841274
0.4028241491503308 13.486792521373056 216172.99737537498 6.715959166761062
0.41732603336770435 13.419491489196856 184888.59074759958 7.02702460676743
0.4321308779248986 13.359440546019318 158499.02703294653 7.3497926826507864
0.44723765895196294 13.30602868551454 136149.37891936846 7.684695232137374
0.4626502572066754 13.258574844167777 117197.62710880076 8.032182110847648
0.4783593712890004 13.216549236433295 101081.09341921222 8.392721932066664
0.49437443032887407 13.179412920755766 87343.64292485289 8.766802844470918
0.5106898202899951 13.146740762354458 75597.8353886614 9.15493335018382
0.5273052566304053 13.118146829824516 65553.15334931618 9.557643165794428
0.5442213043796603 13.093265080855792 56931.58612364801 9.975484129267638
0.5614338029229693 13.071720305308174 49524.27876004815 10.409031156005334
0.5789438656326323 13.05325965948955 43151.0579628187 10.858883247682765
0.5967467506915702 13.037600164534346 37647.38754590646 11.325664557889096
0.6148431742650271 13.02446956665216 32896.507837939935 11.810025519043435
0.6332298623306456 13.013649506506166 28781.00687205698 12.312644035539993
0.6519029718014432 13.004941326463378 25017.42403459622 12.834192003688436
0.6708593671538883 12.99813664400238 21950.50149222891 13.375379269364993
0.6900975204820081 12.99305532213914 19431.74196624438 13.937029075961343
0.7096113234659253 12.989523271658252 17088.778593447656 14.519943573610522
0.7293975216953934 12.987411646296168 15047.152271321096 15.124959686771625
0.7494513038728774 12.986543538963575 13264.666225662417 15.752950848251603
0.7697669863063483 12.986807357771125 11706.69649924541 16.404828851164247
0.7903417998414396 12.988057552463907 10342.283248032023 17.081545829181668
0.8111668183153052 12.990197077452274 9147.475891099793 17.784096376334656
0.832236890767495 12.99309245519471 8099.085139381654 18.51351981857091
0.8535462403367172 12.996670612718393 7177.807763152731 19.270902650294563
0.8750865323080441 13.000793464476805 6367.416887396433 20.05738039587795
0.896850480543312 13.005405176573293 5655.03766342643 20.874078976662858
0.9188304569914015 13.010397480912335 5026.807901598098 21.722318542789868
0.9410179022653333 13.015674009790441 4472.629742607888 22.603405167331694
0.9634029778399702 13.021177882482666 3983.7198751893375 23.518707496850492
0.9859751578422489 13.026830753850279 3550.96561236249 24.469660527161093
1.0087275463389551 13.032549491829066 3168.459176667579 25.457769671089093
1.031647388001066 13.038264462196118 2829.4497077598176 26.48461514245127
1.0547239404823685 13.043920703077829 2528.9777798709665 27.551856682360977
1.077946063215969 13.049438275135582 2262.5711065874507 28.661134489377535
1.1013031079573057 13.05475904327628 2025.8982835917568 29.8143324592178
1.124778664023576 13.059828741588124 1815.3732958386527 31.013391559427095
1.1483618018378763 13.064602596471124 1628.2903921341845 32.26033997813557
1.172040189161141 13.068993316290095 1461.6828210961653 33.557314993466086
1.1957975766912146 13.072975868640352 1313.2574242816088 34.90657042004581
1.2196209295995186 13.076488593210659 1180.842480699026 36.3104340614248
1.2434950241630487 13.079482985088577 1062.656687855355 37.77105418122967
1.2674033878033133 13.081900698159465 957.0266352260829 39.29142231774832
1.2913292839712995 13.083708208220724 862.5970822441973 40.87433897097109
1.315258477583942 13.084843913447347 778.2434006194238 42.522274039733354
1.3391712038742989 13.085272049251087 702.5768417608557 44.238582925213905
1.363052034371583 13.084950658097801 634.8403784484425 46.02658045898369
1.3868811531709622 13.0838344439625 574.1074129266904 47.88921297241057
1.4106415100452105 13.081886492797091 519.5643852576935 49.830672618449164
1.4343138973836618 13.07905865400367 470.61948281432956 51.85414189741706
1.4578788132610327 13.075321020525546 426.5924674780784 53.96410636187846
1.481317433937597 13.070627700013741 387.0077531354285 56.164754076157735
1.503570191779469 13.064450429171567 352.72907573596854 58.499529221928675
1.522793205962392 13.05450075076314 324.66519159803505 61.04721366808351
1.5393052834008238 13.039872448451925 301.17661786464765 63.81594340350288
1.5534602356181328 13.020349534079026 281.01638733707006 66.81268044588303
1.5655736307359283 12.995965171616902 263.4653313189246 70.04494869415642
1.5758968729846865 12.966725304914036 247.87615680121718 73.52076892965088
1.5846858497388354 12.932945239962308 233.80919362337866 77.24896312209242
1.5921290003364157 12.89477876606296 221.0006231333222 81.23922127833728
1.598407093676228 12.852459655715293 209.19110948157729 85.5020408362738
1.6036637544531602 12.806181820408062 198.22169920380566 90.04902207626141
1.608028498822841 12.756160150916058 187.94980916238774 94.89272093148443
1.611605890393479 12.702593979609212 178.26144587610605 100.04683847482838
1.6145008003379226 12.645680296859087 169.09393764098314 105.52570315965804
1.61680084757958 12.585632292051923 160.36070365326117 111.34541958164081
1.6185648800179282 12.522639901769418 152.0532782307371 117.52501152080343
1.6198490208674083 12.456906940108574 144.13086069948673 124.08455013564149
1.6207037184434976 12.388601213759378 136.55377563754834 131.04649962273263
1.621158123103405 12.317879558229684 129.30026268417106 138.43465981413487
1.621257715666846 12.244930212728447 122.39287674255088 146.27484409156668
