M[M_sun], R[km], Lambda[1], P_c[MeV/fm^3]
0.2416277750616976 15.618515526848569 2160321.870080337 3.5677787854173952
0.2522415368162218 15.314060740756275 1768085.6366937882 3.7594255965595655
0.2631520652031322 15.045759087351604 1454130.7579850482 3.9583983009216777
0.2743602748570751 14.80855697090493 1201303.3491170995 4.1650337610045165
0.28586583140792793 14.598305045412948 996791.5154309351 4.379623780784839
0.29766721759252324 14.41152094657611 830296.3915440635 4.602323779385243
0.30976843570664525 14.245275658414847 694143.9009956026 4.83354458229501
0.3221678181525887 14.097017334853298 582349.1304620721 5.073583559785148
0.3348677358825679 13.964739252972263 490140.058094536 5.32275087959747
0.34786527789551985 13.846547243351754 413818.6682504458 5.581293905953847
0.3611653009413421 13.740843526172583 350361.7714822896 5.84962567896833
0.37476546161608787 13.646394391776216 297463.94937140256 6.1281055943581695
0.3886689232437926 13.561945904891678 253205.00410188208 6.417100426006325
0.40287223547260864 13.486559799952117 213281.8472749801 6.7169923625473675
0.4173786161197194 13.41927224523455 184786.45870662743 7.028179615970829
0.4321886271076231 13.359231670767286 158402.52616755242 7.351077060753406
0.4473014319647778 13.305809686999348 136071.89845685594 7.686116905162194
0.4627164055987672 13.258376888541326 117115.21343994843 8.033749396512695
0.4784348006354764 13.216332081139413 101014.05730276111 8.394443562334102
0.49445465289846785 13.179224108893349 87283.97134142638 8.768687989592891
0.5107754687941486 13.1465875196462 75543.16699515945 9.156991644355518
0.5273963827960789 13.118007930129334 65503.953739918965 9.559884734532472
0.5443167768477716 13.093138471963467 56885.36325469154 9.977919618641362
0.561537391995331 13.07160374122992 49483.55220372605 10.411671763857626
0.5790540757812479 13.0531524901544 43113.05527124853 10.861740756987231
0.5968641888931173 13.037500580274047 37615.371285408924 11.328751372401616
0.6149671889656556 13.024382844696179 32866.22117196168 11.813354701417714
0.6333598253457049 13.013582556358838 28754.493659834236 12.316229348089161
0.6520391663477019 13.004889948530428 24991.258761665646 12.838074565022252
0.6710038998103289 12.998088684590874 22101.220930502404 13.37954947892041
0.6902486099073657 12.993017591306547 19411.132086320977 13.941503140431774
0.7097702015276514 12.98949883276814 17072.522729655382 14.524738595676157
0.7295624274144497 12.987404136944958 15031.031784948984 15.13009372250807
0.7496240295091644 12.98654810556611 13250.132786950197 15.758442968623363
0.76994842354335 12.986802734181143 11693.70856462293 16.410699207910216
0.790529386411321 12.98807377991976 10330.769737959945 17.087815725425482
0.8113629478358012 12.990222984076688 9136.853069769748 17.790788342278987
0.8324406988581202 12.993129797189075 8089.216820654604 18.520657692664077
0.8537589770590299 12.996702356416083 7169.308441539638 19.278511666290427
0.8753045116355339 13.000850531656985 6359.739103837718 20.065488030552448
0.8970777455485287 13.005455200308324 5648.159373863466 20.882765635331218
0.9190661928537878 13.010444548726054 5020.556832346852 21.73156422743973
0.9412613237222198 13.015737196066404 4466.986524350355 22.613241817638695
0.9636529338912481 13.021245069862564 3978.491411504061 23.529168994740132
0.9862351154673993 13.026893749972263 3546.2895066081865 24.48078283071583
1.0089966232444991 13.03261031429964 3163.9902431752653 25.469590958530755
1.0319180667346024 13.038347562266154 2825.513603686309 26.497175967019047
1.0550073160790114 13.043980734172017 2525.66238320749 27.565138884134498
1.0782359367147003 13.049507382086922 2259.468559307447 28.67522635131753
1.1016006707514687 13.054824211904496 2023.0240968510643 29.829297512181917
1.1250843909029395 13.05989875648639 1812.84963993649 31.029281476427325
1.1486750298730233 13.064659494220235 1625.943493637063 32.27720976909964
1.1723606328119516 13.069051122933912 1459.608560737132 33.575223246699046
1.196125931148075 13.073027111943274 1311.3185707188736 34.92557956283706
1.2199562144986311 13.076536412148954 1179.001494415039 36.33050565972277
1.2438366390320332 13.079519460150884 1061.0542993964461 37.79235903513212
1.2677520683600514 13.081925351974348 955.5664341312984 39.31403590106326
1.2916838820843566 13.083722187887815 861.2954483474987 40.8983418504264
1.3156193200431983 13.084851487916499 777.0247434279739 42.547627319602206
1.3395382438472014 13.085272547115228 701.4864175334741 44.26549732000711
1.363425087205784 13.084940492219276 633.8504721809161 46.055018742925675
1.3872591250989457 13.083811918754492 573.198654191692 47.919408389603504
1.411023654838458 13.081847675706925 518.7229106802016 49.862590520216436
1.4347010390117252 13.079004842304615 469.86112252683574 51.888040984419426
1.4582703935217294 13.075251550658283 425.89770487525715 53.9999556607867
1.481712357491274 13.070543094115939 386.3734586315681 56.20282188603526
1.5050062723233835 13.064836604710706 350.81088982260974 58.50047065267054
1.528132635930182 13.058106559586005 318.7873767413931 60.898248927220195
1.5510700490937859 13.050319000041677 289.89786211040587 63.401167281407595
1.5737972582826003 13.041430557943505 263.87251672317063 66.0145388111497
1.5962961920760594 13.031405784741754 240.36810721271658 68.74402443649315
1.6185327066130917 13.020212936274318 219.1205679859087 71.59566114339788
1.6405080470382338 13.007843511571409 199.9326505200412 74.5758926420309
1.6621790321654994 12.994237485352269 182.5676788443649 77.69160266800239
1.6835331062576737 12.979372963535091 166.87572113022114 80.9501511785437
1.7045454817405044 12.963224684785049 152.6360437853446 84.35941372419003
1.7251941433712041 12.945762707992136 139.73937698648456 87.92742973479726
1.745453797335911 12.92695526202815 128.049562550647 91.66303149946776
1.7653044916084268 12.90678112931316 117.42998507201686 95.5760325781496
1.7847230293645706 12.885213250362636 107.79297568663468 99.67599323823292
1.803684148243108 12.862223034806734 99.02979490119657 103.97401798888168
1.8221693128970473 12.837790786948938 91.06716852305937 108.48172685878397
1.840152336189991 12.8118895502726 83.81873332132783 113.2113274455747
1.8576095576697478 12.784501513921235 77.21860985746468 118.17596869342032
1.8745231024844178 12.755608005665016 71.20062818800537 123.38982419569382
1.8908663874763736 12.725180465734885 65.71796365270549 128.86818345248903
1.9066185536618756 12.69320980986119 60.71420693844775 134.62755196706013
1.9217574233776433 12.659675153331754 56.14642589682994 140.68576117313393
1.9362633728788479 12.624560851712209 51.97502132620269 147.0609386443217
1.9501042500041827 12.58782956085557 48.158364466150516 153.7744326435028
1.9632772732536876 12.549514789581563 44.67207352067951 160.84771466779145
1.9757589597967744 12.509609367999792 41.48145178559667 168.30454871855707
1.985895237867822 12.469797888284255 38.82164917277589 176.5079402371512
1.9905975142824544 12.429372930650409 36.986028029797865 186.11560643955661
