M[M_sun], R[km], Lambda[1], P_c[MeV/fm^3]
0.2416277750616976 15.618515526848569 2160321.870080337 3.5677787854173952
0.25224031817721376 15.3141130947366 1767979.821319326 3.7594047199544036
0.263149805886829 15.045802484976875 1454083.4404803235 3.9583551539531676
0.27435659462083206 14.808612921729448 1201332.3593176894 4.164966356822536
0.2858609925529949 14.59835602467187 996885.1673075461 4.379530978503161
0.2976610271473683 14.4116310385451 830363.6967724643 4.602203065806905
0.3097614581119425 14.245331566975993 694200.1270818049 4.833393900229514
0.3221587272527701 14.097128998183809 582438.0127748183 5.07340075768547
0.33485636311727285 13.964797043634663 490196.01644042134 5.3225337065798275
0.3478533357103937 13.846636479030256 413892.9605683005 5.581041993148296
0.36115017579075537 13.740956645101098 350412.62384301657 5.849334869711661
0.37474916098088035 13.646501291855518 297514.5703333798 6.127773322987998
0.3886502926912735 13.562064275480338 253257.49713121864 6.4167240046817255
0.40285235249461704 13.4866588942448 213327.65718541385 6.716568974503034
0.4173572364467922 13.41934843859802 184833.5160223592 7.027706308338541
0.4321650779588993 13.359321189151572 158445.98639337675 7.350550736920098
0.4472751759178371 13.30589467572606 136096.58435742027 7.685534316631285
0.46269038829115283 13.258422311983692 115845.14318501523 8.033107134232667
0.4784047341620145 13.216431342919474 101044.62725993554 8.393738047455104
0.494421691753183 13.179297859440254 87308.3265133039 8.76791546360996
0.510740023017723 13.146653067725113 75565.99313695454 9.15614815859267
0.5273598228526867 13.118066257359295 65522.3758037231 9.558966138919727
0.5442789352704238 13.093180813827313 56905.528075779126 9.97692154973196
0.5614958980151818 13.0716735721028 49501.443779510904 10.410589632029723
0.579008812667868 13.053197455760197 43127.92431910033 10.860569732769752
0.5968163535031145 13.037539932002634 37629.100254090794 11.327486371859544
0.614916277014485 13.0244182143489 32877.595616150524 11.81199037052701
0.6333066917313904 13.013609807307313 28764.547687621005 12.3147600460271
0.6519836077091552 13.004917619466234 25203.81757183544 12.836483438944887
0.6709442777304484 12.998111857958875 22110.65055872774 13.377840463092712
0.6901869437033875 12.993044493462062 19420.923756370143 13.93966959203606
0.7097039312182302 12.989524293951389 17078.210435620436 14.522773504612399
0.7294938134107368 12.987404582656415 15037.242869329059 15.127989687858971
0.749553687262924 12.986545176946096 13255.956508939325 15.756192173444987
0.7698744051985211 12.986808275786558 11699.036008871613 16.408293392221726
0.7904532341102707 12.988062409706224 10335.309097717894 17.085246157261892
0.8112825496216794 12.990210843692356 9141.209847012791 17.788045786659175
0.8323571677252941 12.993122215620469 8092.674697345328 18.51773237831558
0.8536711472691979 12.996681180067823 7172.737167341179 19.27539324995739
0.8752165511816761 13.000831005977764 6363.115388569236 20.06216555870068
0.8969847974173368 13.00542641363783 5650.940625662899 20.879205532148756
0.9189690836815625 13.010426330966814 5023.030977860705 21.727774998283667
0.9411615784926081 13.015713163497356 4469.296163124062 22.609210370214658
0.9635507265370904 13.021219477230101 3980.4618215306623 23.52488144053494
0.9861284688662358 13.026863163495177 3548.224622000584 24.47622443009734
1.008886085961022 13.032584530408272 3166.028034108654 25.464746061716674
1.0318041869851078 13.038316379700218 2826.9946586980323 26.492027950577715
1.0548912060404099 13.043957942822802 2526.8885874552425 27.55970132813749
1.0781175277920931 13.049484078486422 2260.7273228928884 28.669450794183
1.1014777215623208 13.05479801139361 2024.2004672023506 29.82316404806717
1.1249586574646897 13.059867658154849 1814.0627776733663 31.022768923236637
1.1485468492003832 13.06463413702682 1626.914426387771 32.270295576707156
1.1722287698745268 13.069031945170073 1460.4239136613344 33.56788339794614
1.1959910635847928 13.073006759326198 1312.1083125999926 34.91778846667887
1.2198203338817302 13.076518649368705 1179.7291021047288 36.32227907093509
1.2436981055360958 13.079504676583714 1061.7368582001905 37.78362693741137
1.2676091022715854 13.081916777064084 956.1441770666036 39.30476735456319
1.2915387564317178 13.083713653741697 861.8359688948501 40.888503827269034
1.3154709973364656 13.08485183753745 777.528616658771 42.53723576438377
1.3393879117100462 13.085270931145475 701.9381080684321 44.25446585161935
1.3632720423916025 13.08494380652218 634.2452902683053 46.04336262168915
1.3871026631255103 13.083821723559886 573.5559531383692 47.907031997054695
1.4108675033118818 13.081861322792696 519.0698100936422 49.84950806050521
1.4345426305028213 13.079026816498915 470.17777642921817 51.874146401467875
1.4581093174168123 13.075279119675018 426.1721954063315 53.98526165231676
1.481550642732006 13.070577942941908 386.6319333476856 56.18722982989884
1.5048430464670395 13.064883548314421 351.0415543141924 58.48395265198835
1.5279674405580574 13.058162260002007 319.0018101019773 60.88076590495756
1.5509050366181316 13.050377719276323 290.10454540851833 63.38265665047632
1.5736181491886998 13.041492020229091 264.06382270229466 65.99608431855849
1.59387395610477 13.030480973282451 242.42596857751698 68.82668527020122
1.6102396040259674 13.014792428805688 225.19082838108304 71.96216863241746
1.6232318908842596 12.993523739560471 211.07093655718307 75.41127590141514
1.6333432596688384 12.966551501420376 199.18746418651867 79.18380416284074
1.6409897424353257 12.933960310535015 188.97660553485792 83.29029156612098
1.6465317358062912 12.895967309181364 179.95213828723706 87.74220765770218
1.650264687548406 12.852794800410383 171.89976360908466 92.55203477890595
1.6524405846774972 12.804713123600365 164.5216648950876 97.73364048698062
1.653271851678139 12.751970685423364 157.71185858105395 103.30211280204698
