M[M_sun], R[km], Lambda[1], P_c[MeV/fm^3]
0.2416277750616976 15.618515526848569 2160321.870080337 3.5677787854173952
0.2522368925079497 15.314165084216551 1768138.4113454134 3.7593450194407607
0.26314391423490313 15.04593863817578 1454394.1698209692 3.958231769061022
0.27434624989385664 14.808823615397216 1201579.8903796049 4.164773607836582
0.2858460169940534 14.598619642146122 996995.796371003 4.379265604908579
0.2976432053308939 14.411881151083282 830605.536550174 4.601857883169329
0.30973899767496627 14.245624410999643 694427.5376774982 4.832963028273543
0.3221325488099277 14.097397887279666 582616.4214153608 5.072878046537034
0.3348244418339186 13.965179548354788 490423.38826171646 5.321912722537551
0.34781619409890385 13.846965602864351 414071.72896223894 5.5803216835937
0.3611094800587379 13.74126254118826 350594.0691076508 5.848503352373975
0.3747028543553445 13.646801073058358 297682.53724348085 6.126823264773521
0.38859805656312735 13.562377265535636 253405.42867165417 6.415647723409627
0.4027958560209646 13.48696186011081 216238.64963526695 6.715358419633114
0.417294713819557 13.419609299719548 184954.56583097932 7.0263530404633725
0.4320948904897852 13.359604894379347 158556.4742379412 7.349045905933548
0.447200288192916 13.306171037297288 136203.9235357889 7.68386863847815
0.4626068940399272 13.258695381646385 117248.86516760435 8.031270866136445
0.47831686250724165 13.216633907537581 101121.70043911188 8.391720961512815
0.4943288343001144 13.179490352746923 87381.81829161142 8.765706818634126
0.5106400117397109 13.146833031099193 75630.88800077717 9.153736670071773
0.5272501920851991 13.11825990930384 65583.31930848991 9.556339946958355
0.5441643402837708 13.093344997296255 56957.99900424678 9.97406818482163
0.5613734070186381 13.071790668284587 49547.59654515583 10.40749597849046
0.5788791328869959 13.053324910003106 43171.257304821775 10.857221989690068
0.5966795870660989 13.037650326252159 37668.52562461742 11.323870011350428
0.6147722249315503 13.024519865288152 32910.755486023576 11.808090093091177
0.6331540749392925 13.013705237789218 28796.972021450456 12.310559732830178
0.6518231184643732 13.004981768965633 25232.014869998628 12.831934927611485
0.670775989750168 12.998176932783517 22135.170118193426 13.372955001748819
0.6900094634276793 12.99308321531973 19441.82298288594 13.93442819942206
0.7095190695021507 12.989541745617629 17098.778627415253 14.51715615025508
0.7293002169781563 12.987420463489137 15055.631558626777 15.121975224853903
0.7493499002558177 12.986544662156511 13272.745788043578 15.749758266456968
0.769662504317236 12.986800606491332 11714.070350135062 16.40141644034343
0.7902322855719038 12.988048071801135 10349.049543932935 17.077901211341636
0.8110527389782047 12.990183194831564 9153.571277346864 17.7802064606774
0.8321183879863527 12.993078509709761 8104.614497498519 18.509370754355075
0.8534226753659677 12.996638484546676 7182.644726103099 19.26647977627525
0.8749594457577333 13.000779210358486 6372.011675175173 20.052638624323926
0.8967180175101725 13.005373935949194 5659.105822910003 20.869029835696328
0.9186938355352482 13.010352598474498 5030.3491038292295 21.716944531811265
0.9408758188153209 13.015640464363074 4475.780681003224 22.59768772996912
0.9632556248021714 13.0211457222723 3986.6605174117412 23.51262694861328
0.985825316228917 13.026785594776797 3553.768803789461 24.463195977682318
1.0085722626019995 13.032505157335748 3170.8802209240503 25.45089894052027
1.0314880112363858 13.038226319819529 2831.714197119603 26.477314671531698
1.0545594422529494 13.043876050043982 2530.9524771610427 27.54410143564199
1.0777769693619899 13.049396796617401 2264.4434087402315 28.652944353427117
1.101127875967664 13.054718685462634 2027.5477905899247 29.805634938862376
1.124600166942612 13.059792476215652 1816.8636253574184 31.00415663726886
1.148179328937352 13.06456715873903 1629.582617442372 32.25053569886923
1.1718536687749346 13.06895998121242 1462.8902348787044 33.54690732369162
1.1956071226899843 13.072952690015015 1314.3881125448709 34.89552309697024
1.2194261867406841 13.076464842881444 1181.8547794609065 36.29875901650992
1.243296521030015 13.079462157080423 1063.5406635858872 37.758672991589386
1.267199876232553 13.08188185081832 957.8681698403402 39.27828074784745
1.2911231394885196 13.083688000414282 863.415122273788 40.860390224465334
1.3150484834744263 13.084838403627252 778.8757122522155 42.50754071065228
1.3389574026086999 13.085271525560195 703.2192835136152 44.22294262176687
1.362835903920779 13.084958213877803 635.4318335440753 46.01005480404216
1.3866612939992178 13.083848061913791 574.6290457150612 47.87166649371152
1.4104192852750195 13.081907542756888 520.0454047860167 49.812125440856
1.4340887800944548 13.079088664106083 471.05967090857604 51.83444376948161
1.4576517729694172 13.075362010522323 426.987558991167 53.94327527268846
1.4810872119689538 13.070678649607288 387.38100404168983 56.142623014395504
1.5043755531587846 13.065005398532602 351.72536385437894 58.436755801765855
1.5274973783569272 13.058309694275835 319.61882551208953 60.8308123875595
1.55043154338379 13.050550329052209 290.69048869290515 63.32976773154958
1.5731559570212776 13.041697124712543 264.5805786154165 65.93891727743767
1.595645502866955 13.03169752236331 241.010087892974 68.66387680048109
1.6178934616735816 13.02056697759959 219.7222181921631 71.51071113256928
1.6398609267961322 13.008228464144464 200.47499340666502 74.48585256870312
1.6615341658650238 12.994663369394067 183.07194126678252 77.59609759446947
1.682888631669766 12.979843797068394 167.32743603336428 80.8488096442204
1.703902998370685 12.963742325701507 153.05772704479216 84.25183581924213
1.7245543075959333 12.946328042068147 140.12383888988396 87.81356805712171
1.7448184276865613 12.927572109864574 128.40542539534536 91.54205379663894
1.7646746986105368 12.907449557381732 117.75947041270851 95.44771662865833
1.7840986916162613 12.885934445182581 108.09690059377981 99.53967031807768
1.8030689656272583 12.863002184947783 99.31371813809 103.82941292696478
1.8215605456936979 12.838627860487533 91.31499780002768 108.32822614115324
1.8395534488094665 12.812787795747305 84.0502297234659 113.04799662871542
1.8570229854830944 12.78546206627797 77.43038413910753 118.00233701149756
1.8739478591371874 12.756630777994472 71.3985870312811 123.20537279562348
1.8903048124485995 12.72627163086966 65.89791954443619 128.67218455747502
1.9060721815222863 12.694367939805462 60.88005320262271 134.41887438771641
1.921226833947771 12.660901166297219 56.302945387221 140.4634446249462
1.9357380737374565 12.62582485801795 52.11915255271593 146.8244960805471
1.9496168373288576 12.589224482601733 48.29340972164208 153.52251037787164
1.9627982876323882 12.550952721201002 44.7954356849312 160.57904827319527
1.9753048747979358 12.511133762840528 41.59330061031446 168.01815252560118
1.9870854034838474 12.469652362935074 38.66249425439876 175.86528134860575
1.9981297521037604 12.426533655531973 35.97659452749868 184.148094871868
2.007677685048839 12.382686218472077 33.6228509965886 193.07073942940235
2.0145684635987124 12.337521048214164 31.66913854799026 202.8887384708289
2.018812144386193 12.289921082604915 30.028323541681655 213.66912584954335
2.020469368735454 12.239127170383231 28.64396401348569 225.4834215527965
