M[M_sun], R[km], Lambda[1], P_c[MeV/fm^3]
0.2416277750616976 15.618515526848569 2160321.870080337 3.5677787854173952
0.25224036599103067 15.314080464537364 1767989.3169173629 3.7594058682462506
0.26314985505520094 15.04580492296744 1454160.1699687657 3.9583575271901235
0.27435722741409213 14.80862339344103 1201320.609478206 4.164970064279168
0.2858610482840348 14.598355999247516 996878.5413425138 4.379536082922824
0.2976613556768965 14.411610144775011 830359.0209023769 4.602209705413002
0.3097623270801125 14.245301909651415 694201.1003160976 4.833402188162856
0.3221590894915895 14.09710603851665 582416.8182092606 5.073410812275693
0.33485475466441267 13.964841004764487 490195.4954210998 5.322545651619339
0.3478541229490764 13.846630149922571 413878.1653861259 5.581055848915815
0.36115126747672144 13.740940400505334 350415.18564137653 5.849350864818205
0.37475000833850963 13.646494129524816 297512.0353123155 6.127791598536327
0.38865007846157623 13.562086139546599 249866.70991623736 6.416744708493444
0.40285345499318204 13.486653800536583 213325.37811932285 6.716592261489524
0.4173584618138473 13.419338560623471 184827.03473620315 7.027732340895771
0.43216585917268524 13.35931567224252 158436.53622807076 7.350579685348775
0.44727666827114404 13.305896577875831 136095.79651759574 7.685566359584465
0.46268997919199734 13.258447111957247 117144.00694007408 8.033142459192566
0.4784055260952939 13.216406131405593 101033.94108638694 8.393776851241446
0.4944238121835791 13.179289514792012 87308.00596882436 8.767957952921892
0.5107418406660015 13.146653499303067 75563.89349713898 9.156194550587099
0.5273618469647487 13.118053540672776 65522.24810901101 9.559016661828439
0.5442810652425222 13.093165979969232 56903.826954049044 9.976976443520568
0.5614981647584353 13.071641641038434 49500.08901323135 10.410649149101392
0.5790112227270994 13.053195761775008 43127.30814708664 10.86063413871715
0.5968191080168079 13.037562384506861 37628.42617671226 11.327555946268426
0.6149194236357329 13.02441335237679 32877.79742200631 11.812065407835524
0.6333095844430803 13.013607470819604 28764.19047285969 12.314840856444539
0.6519866935765353 13.004903350662362 25203.398732104815 12.836570949292927
0.6709470358883857 12.9981222442229 22109.664032733923 13.377934456984349
0.6901902952080805 12.993034023006052 19419.95557433149 13.939770434780122
0.7097079751671836 12.989517734276987 17077.92401695258 14.522881581714406
0.7294985002424063 12.987396004653505 15037.48000516177 15.12810540631535
0.7495567548413831 12.986542549283882 13255.714443213388 15.756315963129097
0.7698784141955379 12.98679658859518 11698.646704410148 16.408425707369226
0.790458014526794 12.988060025351416 10335.326371147641 17.085387478062348
0.8112869707177608 12.990211394926716 9140.930485336734 17.788196620962395
0.8323617233203239 12.993115325327112 8092.378847313055 18.517893263461247
0.8536776428512478 12.996679303002901 7172.543073975395 19.275564754737662
0.8752204968234953 13.000833169763288 6362.933455231104 20.06234828546578
0.8969899424028827 13.005432223522849 5650.825063442571 20.87940132730476
0.9189746785208578 13.010426026013763 5022.8971366901615 21.72798339407242
0.9411670841556473 13.015714297763221 4469.193542024483 22.609432086591593
0.9635563631401486 13.021219208628642 3980.522595849967 23.525117241237357
0.9861349416430425 13.026870085184358 3548.0858264907706 24.47647512566321
1.0088920724301182 13.032582959189323 3165.5502307855572 25.46501251273008
1.0318106575519141 13.038324164286681 2826.9459568803886 26.492311071160398
1.0548971270275183 13.04395326493967 2526.827268583329 27.560000371493153
1.0781244374438763 13.049478994327563 2260.690101091711 28.669768425236636
1.101484557396075 13.0548028402643 2024.1483190326128 29.82350136142811
1.124965142378237 13.059873039337756 1813.9849354669439 31.02312708368971
1.1485528031811827 13.064637571828191 1626.8372449490262 32.270675824259015
1.172236720143713 13.069030822984738 1460.4147107222866 33.56828705326808
1.1959985423603765 13.073012099440607 1312.0730769101513 34.91821693698233
1.2198264177308282 13.076516115151353 1179.6750411922274 36.322731489866726
1.2437048940119317 13.079504143345346 1061.6738713458903 37.78410715507213
1.2676169559543646 13.08191747400577 956.1113675417636 39.305277072264964
1.291546801046367 13.083718709624248 861.8348637584357 40.889044861131616
1.315479067055404 13.084847428139167 777.4828195749731 42.53780723763629
1.339396166087568 13.085274028181335 701.9150909812204 44.25507251414574
1.3632804067538118 13.084943360897105 634.236559900653 46.04400363435642
1.3871143137329291 13.083816396619607 573.5588316797464 47.90771261763223
1.4108761701465264 13.081860865026284 519.040631909182 49.850227507946926
1.4345514403267299 13.079025125445584 470.15106323617255 51.874910507414825
1.4581181424766487 13.075277571574487 426.1625835231047 53.986069718566945
1.4815595623533575 13.0705759898151 386.6189333625339 56.18808833890771
1.504851514169435 13.064879049937076 351.0307208864053 58.484861018415664
1.5279764634586417 13.058158630160614 318.981083314182 60.8817273371114
1.550914212295822 13.050374941815425 290.1007381971461 63.38367458972736
1.573640934775248 13.041493318161889 264.0490882815661 65.99601154474114
1.5961365026481678 13.031480155512597 240.52524732157724 68.72439444435027
1.6183750278738758 13.020295438984503 219.27775099425412 71.57485521453019
1.6403498301457196 13.007937457725546 200.07371617969147 74.55383208840675
1.6620222918023297 12.994340812060072 182.6962076347067 77.66820286902704
1.683375518223444 12.97949028524967 166.98752996748806 80.92532108313513
1.7043880802889686 12.963352876220423 152.74378226220617 84.33305530607281
1.7250365214602212 12.945902107833797 139.83590577881324 87.89953137998357
1.7452980660414839 12.927106857933875 128.128972121928 91.63338919617159
1.7651505738712057 12.906946142261253 117.51542260817466 95.54462401467556
1.7845698114264072 12.885389179076855 107.86801872905191 99.64259016823858
1.803533880648321 12.862414450139873 99.10245019630487 103.93858512043371
1.8220191459377804 12.837992594954114 91.12904979686968 108.44411786253225
1.8400049960113842 12.81211044824513 83.87513402403128 113.17138420642951
1.857466635166909 12.784736145274508 77.26943674225772 118.13347816841846
1.8743827839259093 12.755858607057815 71.24868288963584 123.34468553250494
1.8907283214034218 12.725447487631993 65.76139485074309 128.82015424813372
1.9064845593993975 12.69349339426037 60.757043469599246 134.57641513069933
1.921627954835761 12.659973914270191 56.1837446556843 140.6312812692935
1.9361368079760521 12.624879567702262 52.00861275095883 147.00299627600344
1.949669605022964 12.588509308905325 48.25708209521129 153.76511866655983
1.9593791939469811 12.55174589360754 45.34765317221057 161.39479816316654
1.9646857011174421 12.511861668567885 43.143251877779825 170.04393357712505
1.9660245484348446 12.467449990564091 41.446632785991085 179.7617933591859
