M[M_sun], R[km], Lambda[1], P_c[MeV/fm^3]
0.2416277750616976 15.618515526848569 2160321.870080337 3.5677787854173952
0.25224182675946094 15.31405211625392 1727159.2952422146 3.75942886543061
0.2631516993181622 15.045774009994409 1454089.3870572315 3.958405056929509
0.27436114555113433 14.8085130046081 1201224.0408115166 4.165044315284917
0.2858660037072237 14.598280251989461 996735.2506554909 4.379638312012257
0.2976682366485492 14.41151982067709 830314.2153056968 4.602342681118826
0.30976934890945446 14.245253117221967 694132.7610659943 4.833568176694197
0.32216956853043766 14.097004980748064 582344.7486293553 5.073612183787578
0.3348695826795452 13.964716701200233 490123.4179675394 5.322784885698984
0.3478670951923336 13.84653396802996 413807.77201010456 5.581333351948976
0.3611669254016226 13.740840033147707 350350.23287898017 5.849671215783304
0.3747680915719799 13.646363655603038 297444.07223130605 6.128157623789786
0.3886717465061313 13.561933181671764 253195.1691150258 6.4171593689871465
0.40287518800556904 13.48654041309387 216043.7752763869 6.717058660202374
0.4173823357067179 13.419237183516742 182486.20201581324 7.028253730741722
0.43219269882176614 13.359219820467503 158392.92757968744 7.351159477595526
0.44730552484582925 13.305798796911104 136065.26877091645 7.6862081328192815
0.4627208724387099 13.25835688134993 117111.97559183625 8.033849968875135
0.47843970926332097 13.216318722472316 101009.06414041054 8.39455403988666
0.4944598890421493 13.179211520684595 87275.72001722157 8.768808960958593
0.5107809111741385 13.146572227587228 75536.52769342088 9.157123727942766
0.5274030428836224 13.117989001548048 65499.46156589344 9.560028580292942
0.5443247193872927 13.09312881754801 56883.592365555385 9.978075909946833
0.5615442869143891 13.071609737913612 49481.115135871696 10.411841219504657
0.5790612546002111 13.053145742786587 43110.67652699303 10.861924133339
0.5968711676035215 13.037499516127983 37612.88096535002 11.328949465677052
0.614974870796361 13.024380860190533 32864.295825580484 11.813568350138949
0.6333685408430375 13.013575345970855 28752.79290309573 12.316459435698826
0.6520484501766239 13.004896110481498 25192.4275382283 12.838323730864712
0.6710129571073417 12.998091134660513 22100.22571701612 13.379817106923044
0.6902583634707745 12.993029310728044 19410.52449539296 13.94179027097879
0.7097789579032445 12.989504861819075 17071.060994782652 14.525046326679142
0.7295719575237559 12.987402080528753 15030.482451943017 15.130423213092506
0.7496355092774531 12.986541522095358 13249.361776493537 15.758795443077188
0.769960009304619 12.986803241466536 11692.89550314889 16.411075959915014
0.7905426900763558 12.988075401154273 10330.119360263036 17.08821812259075
0.8113755356574233 12.990224770184454 9136.18232934673 17.79121783100296
0.8324541958781523 12.993130675070528 8088.065348569867 18.52111580334623
0.8537725386473672 12.99670978946988 7168.772100003194 19.279000018922343
0.8753208247963841 13.000838444631345 6359.543203849573 20.066008340716554
0.8970907227426458 13.00545479540211 5647.528387916149 20.88332316170683
0.9190817731310938 13.010441604500535 5020.024031794774 21.73215763801433
0.9412768056405663 13.015741545729226 4466.574097307529 22.613873163003927
0.96367046231617 13.021252891848375 3978.2025880368865 23.529840450205647
0.986252374242358 13.0269017278415 3546.1398062340636 24.481496704909713
1.0090122848804854 13.032620006470859 3163.705685279209 25.470349702646544
1.031935824868334 13.038353861474144 2825.257651213197 26.497982184763167
1.0550249171400807 13.04399034383471 2525.467088314391 27.56599044857842
1.0782559208870823 13.049506671157053 2259.28703786232 28.6761308528497
1.1016201200443565 13.054832886068713 2022.8576647704133 29.830258068670645
1.1251038965380433 13.059900508310513 1812.6581071980656 31.030301405658165
1.148695930150704 13.06465811964327 1625.8119583525292 32.27829260315291
1.172381536794047 13.069052962441473 1459.4529519710002 33.57637274745928
1.1961472661959867 13.07302968296207 1311.2111520236533 34.92679973873268
1.219977467429386 13.076536661323026 1178.9745990679621 36.33179404309955
1.2438590883406597 13.079522531791266 1060.9611179768974 37.79372659287579
1.2677747721181696 13.081927055474836 955.4906137189033 39.31548747948141
1.2917077034702085 13.083727371629402 861.2292099907789 40.899882622917765
1.3156414959785752 13.084859406421527 776.9425623256002 42.54925478870949
1.3395620265799755 13.085272592328026 701.4136381334429 44.267225016221175
1.3634486198704683 13.084939794565258 633.7757679969949 46.056844275932974
1.3872829929215433 13.083809219851958 573.1368851150488 47.9213467369955
1.4110498050773468 13.081843013939983 518.6820353210147 49.864639457078205
1.434725610409461 13.079001104293297 469.81841305932653 51.89021712349393
1.4582952754662777 13.075248588387796 425.8468463318578 54.00225701308929
1.4817365362804962 13.070537031772517 386.3190012500348 56.20525639134506
1.5050319720461791 13.064830719296506 350.7724793822999 58.50305769824961
1.5281592094881025 13.058098806858306 318.74643653164827 60.90098712555284
1.5510956670296787 13.050309598436357 289.8663282459213 63.40406643644047
1.5738232146564544 13.041417651649223 263.8462891379494 66.0176094442082
1.5963222406881543 13.031391963128542 240.34493463893435 68.74727784437496
1.6185599370031771 13.020196517708266 219.09853909022667 71.59910946172896
1.6405337520686094 13.007826848863322 199.9161971081127 74.57954891441037
1.6622064047624279 12.994220928101099 182.5689420599824 77.69548092152552
1.683559988933127 12.979352543403715 166.85534285278325 80.95426650635662
1.7045717407207452 12.963202408482223 152.6198669512363 84.36378237580031
1.72522016672799 12.945739078108323 139.72448513960836 87.93205363509014
1.7454792946292874 12.926930039546834 128.0295860890928 91.66794446741744
1.765329874390015 12.906753769539316 117.41509933336567 95.5812383119787
1.7847478656353777 12.885184989524193 107.78461711520116 99.68152957483085
1.8037097976205994 12.862192074371412 99.02019892345987 103.97989077823932
1.822193369529572 12.837756106530737 91.0567385692191 108.48796035819036
1.840176085650113 12.811853746956013 83.80762723532301 113.21794786626984
1.8576342837820579 12.784462207499772 77.20672312694607 118.18300437771768
1.8736207007752415 12.756030245002702 71.44732771896594 123.50188138520144
1.8840915565155985 12.725680482437202 67.29690943060837 129.65061625410127
1.8892291033143578 12.690363937756818 64.3133992986369 136.71601020105427
1.8898986645573062 12.64914373810937 62.13377112063065 144.72707737385133
