M[M_sun], R[km], Lambda[1], P_c[MeV/fm^3]
0.2416277750616976 15.618515526848569 2160321.870080337 3.5677787854173952
0.2522376192696395 15.314150229023873 1768280.2845583113 3.7593514465152067
0.2631439160980711 15.045949207127954 1454237.6528373084 3.9582450519626686
0.274347549754011 14.80878889457056 1201514.4326917497 4.164794357870744
0.28584732842474436 14.598631181226509 977602.8996785923 4.3792941729402
0.29764519992623467 14.411856137141527 830584.5934280416 4.601895042461433
0.3097413261106348 14.245595513996737 694400.7919161369 4.833009411680741
0.3221353920740624 14.097366215985115 582592.0966099837 5.072934315921184
0.3348278392501052 13.965080842089689 490373.99209136126 5.3219795702986605
0.34782025343291806 13.846930585418638 414052.91980813304 5.580399222892751
0.36111473079146394 13.741209341830146 350571.753614684 5.84859286208138
0.37470896856196867 13.646776004345243 297665.24137945625 6.12692553405842
0.3886040856242506 13.562337010744107 253386.80014325047 6.415763579000536
0.40280162270181147 13.48693287765693 216223.20066408964 6.715488727891333
0.4173018447904142 13.419578829683099 184930.8966501563 7.026498709589309
0.4321039147154977 13.359554971290427 158539.22605435632 7.349207888315451
0.44721082281909147 13.306108212367432 136189.3434147309 7.68404793319341
0.46261645447251976 13.25865518923447 117233.01811312376 8.031468521616661
0.4783256399432769 13.21661310790487 101107.14267068318 8.391938078384511
0.49433894944854634 13.179466522370864 86463.25694757333 8.765944552747984
0.5106508330718064 13.146821030703325 75623.78738477654 9.153996235734208
0.5272620750259535 13.118237468033348 65575.91454943926 9.556622620380473
0.5441763815840976 13.09331066229998 56952.41036438468 9.974375307801663
0.5613865234883059 13.071774806448586 49542.218990785084 10.40782896234627
0.5788930482049053 13.053332885286595 43166.27074200819 10.857582319461352
0.5966943789700457 13.037636849189875 37663.63485812724 11.324259250289295
0.6147874517109022 13.024502807992198 32907.815209245455 11.808509887463357
0.6331705550334333 13.013682219605002 28793.10444627417 12.311011817049225
0.6518400074415046 13.004987453002784 25026.75213904379 12.832424484373055
0.6707931318814521 12.998159160172403 22132.138864036402 13.373480820320315
0.6900286048909959 12.993082295506879 19439.984992941118 13.934992322161406
0.7095391258223906 12.989532351380015 17096.382539935563 14.517760732395287
0.7293209653106952 12.987423587623827 15053.567802075808 15.122622541733572
0.7493713872562018 12.986539812245542 13270.857418833992 15.750450721264894
0.769685451931091 12.986794924206801 11712.23889453962 16.402156572416196
0.7902558484508915 12.98804676287905 10347.613180281225 17.078691705056062
0.811077486745466 12.990186182047061 9152.248459198887 17.781050154982875
0.8321457347328071 12.993078169634893 8103.463642555086 18.51027065299501
0.8534502339607657 12.996644571545074 7181.790766348813 19.26743905875027
0.8749858649636127 13.000786220169848 6371.053522384094 20.05366706871918
0.896746635953039 13.005374816991635 5658.346593605221 20.870124941736407
0.9187237236764058 13.010363900155632 5029.612855120459 21.718110094701057
0.9409068241527341 13.015645731852263 4475.407533415266 22.598927773852708
0.9632872840878144 13.02115227155377 3985.990772694292 23.513945742260976
0.985858281275354 13.026794412747575 3553.275989564211 24.464598051350468
1.0086063856025125 13.032513547813192 3170.3818680706654 25.45238910407926
1.0315221102155905 13.03823343116864 2831.227809732285 26.47889803396504
1.0545940993135328 13.043883540398044 2530.4534571159847 27.54578342602972
1.0778139863192935 13.049407904810176 2264.0772965265005 28.654720659067156
1.101166040797666 13.054730585399998 2027.2040084595715 29.80752128090383
1.124638889617923 13.059800997117117 1816.5121876333753 31.006159525069638
1.1482188051937694 13.064574318471468 1629.3338267397855 32.2526620619942
1.171893489436385 13.068969367553333 1462.6041393791727 33.549164542307615
1.1956481577436244 13.072952083446701 1314.1344374774828 34.89791903464961
1.2194691150889228 13.076471144565746 1181.6328858106588 36.30129922781947
1.2433393952778407 13.079467986502063 1063.3707278042232 37.76135819849634
1.2672442941331683 13.081886255548818 957.691739582377 39.281130853214904
1.2911694630208606 13.083693917229258 863.2423480907268 40.86341537585649
1.3150950602933145 13.084838841051058 778.7293332090317 42.51073600854466
1.3390035192079535 13.085276778406921 703.0613425606884 44.22633460626293
1.3628831691585637 13.08495436218521 635.3004925152197 46.01363878628457
1.3867087767710653 13.083843610743166 574.5239015913029 47.87547184989049
1.4104676987728335 13.081901374060532 519.938231384077 49.81614780702032
1.4341367652249524 13.079084556564746 470.94782091370587 51.838715726180574
1.457700477830828 13.075354095962407 426.9022613653713 53.947792919165416
1.4811373523438072 13.070666483327535 387.29968020712136 56.14742256495476
1.5044260109985708 13.064991454007943 351.6502349622123 58.44183398649325
1.5275479578540192 13.058292783577716 319.5501792857732 60.836187129325545
1.5504828361155258 13.050530141369311 290.6252914547619 63.33545825462586
1.5732074168337917 13.041675655508058 264.5213488949006 65.94494421190343
1.5956957904355087 13.031672174777816 240.95186139517483 68.67028714650236
1.6179439791993968 13.020539336301036 219.65481185568322 71.51750472711575
1.6399141216432955 13.008196396861317 200.4306403541865 74.49302834519305
1.6615841773511855 12.994631951191419 183.02614250200435 77.60370879682455
1.68294048890595 12.979807828672154 167.29356731378437 80.85688586018516
1.7039554574763551 12.963701088439677 153.0284340460937 84.26040890189361
1.7246042727955098 12.946283062406463 140.0921819390932 87.82264178415635
1.7448690157130153 12.927523615202984 128.37287182895037 91.55169445381645
1.764725192698434 12.907400912392955 117.73944706449254 95.4579640276552
1.783996841719263 12.885925630245941 108.13223371183274 99.56285388385893
1.801000249613009 12.862621067130897 100.00411104151165 104.00501665769453
1.8153325714389439 12.836084259955518 93.15716944164745 108.83652781409423
1.827169190321537 12.805624394930607 87.30448827661122 114.07651775775805
1.8367404727696202 12.771060385356279 82.20472023744404 119.74585102816744
1.844215912247853 12.732178406549233 77.71468402011855 125.86698511454598
1.8498258030152035 12.689127839915164 73.71034662389202 132.46427521030648
1.8537359218946736 12.642013679628974 70.11842760828846 139.5642138680432
1.8560859130423148 12.590861615604114 66.83863917631182 147.195684762361
1.8570222302646548 12.535857970759542 63.8377950683406 155.39013420081486
