M[M_sun], R[km], Lambda[1], P_c[MeV/fm^3]
0.2416277750616976 15.618515526848569 2160321.870080337 3.5677787854173952
0.2522416344351663 15.314054303459809 1767962.7538231136 3.7594319421980384
0.26315222774007324 15.045768487653575 1454084.5719678674 3.95841141591064
0.27436139104262647 14.808529750231063 1201283.8657817664 4.165054249339175
0.28586752232246937 14.598253438248594 996731.7200872933 4.379651989322176
0.297669151657924 14.411498850510975 830301.6608542957 4.602360472125248
0.3097715234909911 14.245180088734246 694128.3352932213 4.833590384634777
0.3221703700867514 14.096994280091963 582333.5426035665 5.073639125810591
0.3348701459900266 13.964738913718742 490109.5689895752 5.322816893597608
0.3478692486971079 13.84646429121565 413792.51934052823 5.5813704801303565
0.3611691698198403 13.740857288674823 350349.6905442942 5.849714076938474
0.37477046138931064 13.646358942065655 297446.2659193662 6.12820659611873
0.38867439553085986 13.561915676067315 253189.36595880802 6.417214848702327
0.40287807095556977 13.48654070926766 216048.58095504352 6.717121062523247
0.41738408586525255 13.419245588103827 184767.29575901385 7.028323490953167
0.4321959997451776 13.359203545499874 158385.6003644638 7.351237052174489
0.4473086501699305 13.305787323677201 136049.5130232353 7.686294000634683
0.46272429988596564 13.25836519396878 117104.65243907776 8.033944632466454
0.4784443689443854 13.216301941800207 101001.9146761683 8.394658026826622
0.4944653451642494 13.179193887733724 87273.17759201262 8.768922825306538
0.5107861319641597 13.146568009096455 75536.41672146638 9.15724805179499
0.527409069260829 13.11797636336562 65496.971386454556 9.560163975437522
0.5443306541931023 13.093120534515533 56880.77617001565 9.9782230196303
0.561549946586696 13.071592304091485 49478.13530153888 10.412000720318936
0.5790667546939962 13.05316132036407 43108.50334674279 10.862096737237641
0.5968787483849433 13.037490363572276 37611.130506656686 11.329135922130067
0.6149816220118011 13.024379181303686 32861.39249968594 11.813769448436515
0.6333763984940562 13.01357127000966 28751.11659560073 12.316676007415154
0.65205654217555 13.004878487702053 25190.685360238465 12.838558260364016
0.6710214542255888 12.998086440974033 22098.63866444475 13.380069014327049
0.6902671498787195 12.993025608560918 19408.718188538292 13.942060535592267
0.7097887262502018 12.989512882858161 16943.594056529957 14.525335981957937
0.7295816184854834 12.987409400718487 15028.785928208565 15.130733350113617
0.7496452579971401 12.986540565729339 13248.250485220844 15.759127214256049
0.769970853367691 12.986802474586925 11692.018376042974 16.41143058298797
0.7905537556559111 12.988075686491142 10260.320549350929 17.088596884883643
0.8113872957561223 12.990213766661123 9135.484544969055 17.79162209400662
0.8324672161457235 12.993131206718806 8087.720752488918 18.52154700762316
0.8537851255276478 12.99669918402474 7168.2384540717985 19.27945968936966
0.8753336260914001 13.00084243073353 6358.876291668869 20.066498092212836
0.8971064367788464 13.005452990554975 5647.197297987606 20.883847944227668
0.9190957218021163 13.010448504266902 5019.67515681238 21.732716197767427
0.9412915924473044 13.015744294608858 4466.24420869119 22.614467430219182
0.963684669139208 13.021252510279522 3977.8992382116853 23.53047247251299
0.9862664297553594 13.026906323494048 3545.794284413378 24.4821686554348
1.0090288442430178 13.032622112350166 3163.4428177069763 25.471063888715836
1.0319523332128107 13.038356501786193 2825.027064114323 26.498741057267434
1.0550419694142261 13.043992246275755 2525.2577358328194 27.56679200544675
1.078273117043359 13.049514835463453 2259.1165131166763 28.6769822389574
1.1016390273735273 13.054835281738743 2022.7338925237332 29.831162218903913
1.1251223702851012 13.059904190302662 1812.5300729575965 31.03126144309167
1.148713518295374 13.0646636451107 1625.6361041552511 32.279311852584186
1.1724002654880559 13.069059543428954 1459.3282475595333 33.57745475000884
1.1961663197998558 13.073041567095157 1311.0667690348896 34.92794826760171
1.219998321703742 13.07654493001288 1178.830186357391 36.33300677546359
1.2438794744790487 13.079527283698361 1060.803907845123 37.795013852036405
1.2677958908242317 13.081934339424876 955.3934673298718 39.3168538273682
1.2917292208631097 13.083729814000737 861.1320072237614 40.901332929365275
1.3156641658908612 13.084854316271333 776.8674326051774 42.55078670282108
1.3395845795686532 13.085273591910408 701.3536551649754 44.26885127454289
1.3634720804053673 13.084940008323692 633.719003431017 46.05856262841556
1.3873063209455838 13.083808789002678 573.0836831627852 47.92317128241839
1.4110718762427343 13.081840455696035 518.6267270240351 49.86656810107601
1.4347491491255016 13.07900213221615 469.76616111300814 51.89226550410798
1.4583184640360434 13.075242711072395 425.8124633471242 54.00442325803245
1.481761786427635 13.070534387607129 386.29426611799107 56.20754797456336
1.5050556264379351 13.06482335197274 350.7386907114848 58.50549286961127
1.5281822006816672 13.058090712025345 318.7092193401091 60.903564578938784
1.5511203023383184 13.050298413651117 289.82597131875985 63.40679540063936
1.5738477469081569 13.041407521835994 263.8238603765926 66.02049982331803
1.5963465615793884 13.031380322349118 240.31525263099746 68.75034027249245
1.618583735841145 13.020186160587912 219.07463138960387 71.6023553625909
1.6405586451197396 13.007813169507255 199.8905243124102 74.58299056648659
1.662230851603554 12.994203506336047 182.55074266094883 77.69913152911562
1.6835845883344351 12.979335321518784 166.84246244903858 80.95814027730579
1.704596377585593 12.96318312281594 152.60258244518067 84.36789460651705
1.725243354393802 12.945718266257435 139.7071652781202 87.9364061374722
1.745503240374485 12.926908418657186 128.01209740513033 91.67256907697187
1.7653539205818818 12.906726851126187 117.41088933987017 95.58613850992982
1.7847721576134936 12.885156800237372 107.77068487627454 99.68674097909751
1.8037332589401025 12.862162541699446 99.01045729195705 103.9854188956235
1.8222162684994305 12.837723351062886 91.04086542296665 108.49382802338522
1.840199485299442 12.811819185560903 83.79917217280125 113.22417975337993
1.8576562773582663 12.78442679194416 77.19985575615247 118.18962716700523
1.8745683761308236 12.755527845883282 71.18554159543432 123.40434837375226
1.8909106215769942 12.725095390804611 65.70574988784533 128.88363780766778
1.906661858807551 12.693118759990195 60.70228211861727 134.6440063671712
1.9208943210167042 12.660227815201086 56.334545435359075 140.83027863089208
1.9296045072500796 12.626328962309778 53.24310460111115 148.0303448716125
1.93290439103388 12.588004224984642 51.073436597304976 156.3505422013018
