M[M_sun], R[km], Lambda[1], P_c[MeV/fm^3]
0.2416277750616976 15.618515526848569 2160321.870080337 3.5677787854173952
0.2522406121805932 15.314066235928353 1768047.5640144967 3.7594103865063917
0.2631495960252647 15.045838845263201 1454184.1979313898 3.9583668653328967
0.27435690066920415 14.808624883935968 1201358.6019391303 4.164984652285424
0.28586133047346723 14.598369653724166 996776.9503402911 4.379556167683869
0.29766278601716023 14.41160243466684 830365.6529223557 4.602235830819184
0.3097627220989975 14.245325216096363 694183.9212544857 4.833434799410751
0.32216225303431845 14.097066617069276 582409.7065546293 5.073450374980137
0.33485880294240766 13.964849564617213 490215.4279143933 5.322592652891088
0.34785572262904607 13.84663650630265 413863.772617689 5.5811103685587495
0.36115473332087283 13.740967771657562 350406.66621667176 5.849413802387189
0.37475351519753536 13.64646922561108 297486.26358812716 6.127863509258439
0.3886559228847614 13.562018317447896 253246.99481819218 6.416826174034484
0.40285769462427423 13.486636467583166 216098.92182466586 6.716683891413683
0.41736326519244205 13.419316165086176 182520.12246000982 7.027834774219062
0.4321711958992332 13.359301617255642 158431.67828728197 7.350693592192641
0.44728203234088565 13.305878321522409 136093.2004777971 7.685692442936863
0.4626967178137911 13.258424182563628 117139.28206989811 8.033281456784408
0.47841269713173135 13.21640908604574 101036.64272813337 8.393929537546684
0.49443045180266626 13.179282937949393 87299.99732845016 8.768125141290477
0.5107503107321503 13.146630606243958 75559.62802918478 9.156377095520412
0.527369467983549 13.11804510694898 65518.74862799842 9.559215461407867
0.5442895812312976 13.093173537656039 56900.315203257145 9.977192442000334
0.5615072750031922 13.071630840539513 49496.01864076675 10.410883339677902
0.5790210440159965 13.053182760648738 43123.29703130873 10.860887566487962
0.5968291056072668 13.03753086183384 37624.717582364756 11.327829711394566
0.6149303899225579 13.024414658018017 32874.76632968013 11.812360668922464
0.6333212240480719 13.013601762866069 28763.11186607909 12.315158834157995
0.6519990930652433 13.004899202870575 25200.700704516392 12.836915290627104
0.6709607806787958 12.998114898538223 22107.871327423793 13.378304310493004
0.6902035982010186 12.993026744408779 19417.37180085311 13.940167237948502
0.709722519201303 12.989520565026634 17076.442811121102 14.523306851502982
0.7295129265695524 12.987407676310939 15035.725494957302 15.128560744252376
0.7495731123779984 12.986531430167725 13254.425198895067 15.756803060765412
0.7698948864082921 12.986800308328506 11697.885681639633 16.408946352122616
0.7904740345836585 12.988069388712699 10265.234700979812 17.085943559481073
0.8113043670717258 12.990213560619008 9140.003039260431 17.788790137439854
0.8323798647761622 12.993125936095181 8091.741320768138 18.518526329435918
0.8536957359264638 12.996684249778882 7171.7043541091225 19.276239608416002
0.8752404323545147 13.000837785829237 6362.222652874235 20.06306729710828
0.8970101462438406 13.005438551298486 5650.14809029417 20.88017176252842
0.918995348919623 13.010430327179792 5022.2297067867175 21.728803412280726
0.9411886804322595 13.015715163068341 4468.705947545655 22.610304520833175
0.9635790535060298 13.021223803813418 3980.209002360681 23.52604509684726
0.9861576694454446 13.026871206642106 3547.709643129246 24.47746159214156
1.0089152990524533 13.032593956237678 3165.2005880537763 25.466060976514918
1.0318352824800168 13.038327271078225 2826.6047779830724 26.493425129366766
1.054922688915593 13.04396317259811 2526.559105893859 27.561177085472384
1.0781499276054376 13.049483014688542 2260.437022941865 28.671018281574305
1.1015109549741766 13.054806912755717 2023.8290842356607 29.8248286674804
1.1249926788772566 13.059876388540593 1813.8004596532098 31.024536422963514
1.1485816266693578 13.064645736659408 1626.6511020081782 32.272172076269
1.1722646600686293 13.069037993285836 1460.1767352912818 33.56987541495783
1.1960273824105274 13.073012962190406 1311.8682191531095 34.91990294584294
1.2198571588045533 13.07652480466396 1179.5699867892035 36.32451173675348
1.2437349962532949 13.079511887010764 1061.5333025946795 37.78599679042925
1.2676479041675812 13.0819228090914 955.9835606939189 39.30728279091838
1.2915787454128174 13.083717036280921 861.6920112864723 40.891173809695786
1.3155111778058175 13.084852838728928 777.381866768759 42.54005596594955
1.3394296117440714 13.0852741912133 701.7966633837361 44.25745971347571
1.3633133350451945 13.084944150497797 634.1400177697406 46.0465260026373
1.3871468437358752 13.08381733187904 573.470126675782 47.91039084477315
1.4109101699948134 13.08185865487232 518.9830093710868 49.85305852044757
1.4345853517565392 13.079021841205291 470.10430115358344 51.87791725350237
1.4581528539559683 13.075272646892369 426.1001104867278 53.98924945073036
1.4815947396804634 13.07056669856335 386.56351892915984 56.191466566487364
1.5048874635473402 13.064870570536538 350.98423557194303 58.48843543801551
1.528012206829116 13.058144723049526 318.9347581456522 60.88551057387138
1.5509500044961386 13.050360649273024 290.0550756233127 63.387680185941825
1.5736770032650462 13.041478837905911 264.01705189006213 66.00025403347685
1.5961729298213747 13.03146285080833 240.48576573266672 68.72888942966772
1.618411619450186 13.020275642369334 219.24062264193222 71.57961945896746
1.6403860117492348 13.007915484121051 200.03947520532705 74.5588836084579
1.6620584743335935 12.994316633874524 182.66895125145817 77.67356103942583
1.6834118096785158 12.979463551655643 166.96288741633708 80.93100675084519
1.704424446127664 12.963321397665615 152.7224274286886 84.33909091498684
1.7248146161033173 12.945920034683493 139.94956100670862 87.92337650572793
1.7413542243458422 12.926057883544532 129.86496074946453 91.90823638414939
1.7534997803565897 12.901280692436801 122.00641523057395 96.37279933100814
1.7618252875247549 12.870668556481295 115.6936924648874 101.33293581418407
1.7669252549347914 12.834147574167085 110.5036951744195 106.80565795175488
1.7692693916884359 12.791759064470817 106.10036557682515 112.80831295395816
1.7692769008250888 12.743797973713333 102.303841130936 119.36090682816001
