M[M_sun], R[km], Lambda[1], P_c[MeV/fm^3]
0.2416277750616976 15.618515526848569 2160321.870080337 3.5677787854173952
0.25224096673696206 15.314062534327284 1727256.860008065 3.7594121024748604
0.2631500597820605 15.04583775552641 1454212.3649317077 3.9583704118257073
0.2743577721546013 14.808589130349672 1201294.7391328819 4.164990192607501
0.28586248217134325 14.598367811155544 977378.3165955445 4.379563795605477
0.29766310550292874 14.411581593645417 830342.4435785634 4.602245752907433
0.3097634527251861 14.245312203622136 694210.697800903 4.833447184750596
0.3221635032158072 14.097048475541724 582416.411602498 5.073465400411612
0.3348600554384193 13.964761843465407 490146.2153278574 5.322610503418605
0.34785731715754004 13.846612611653656 413865.17978270614 5.581131074495617
0.3611553336659104 13.740916389582654 350405.2161939438 5.849437705380999
0.3747548352673573 13.646456755995011 297483.7135132366 6.127890820184893
0.3886572515624145 13.562035420574302 253239.90303775945 6.416857113810966
0.40285930673314907 13.486627741562723 216093.95317732287 6.716718691553791
0.41736511802578036 13.419319353263386 182516.9646271497 7.027873677422414
0.4321738985149092 13.359296732818846 158424.07253511742 7.350736852973117
0.447284745593373 13.305870504216179 136088.51644574085 7.685740328291415
0.46269870625558834 13.258420323112222 117141.09145001094 8.033334246905753
0.47841501202932557 13.21639289720021 101029.41282558793 8.393987526583011
0.49443311677041235 13.179275553118611 87296.75850082736 8.768188638155548
0.5107526829673982 13.146630050804909 75558.08482813745 9.156446424757839
0.5273726522203166 13.118040173435913 65515.29108521744 9.559290964113474
0.544293125127965 13.093148823422593 56898.81872944251 9.977274476806961
0.5615107959492687 13.071626745306126 49495.33212700415 10.410972283807384
0.5790247411350082 13.053180048140922 43122.315858219044 10.860983816874803
0.5968336745064743 13.03752312440768 37623.96161412631 11.32793368588717
0.6149346007658377 13.024425247739066 32873.926868248345 11.812472807567318
0.6333256219230178 13.01361415063043 28762.28003554031 12.31527960057285
0.652003038605563 13.004901111046603 25199.528498531443 12.83704606995649
0.6709654644993566 12.998117950418642 22106.499867608134 13.378444779364374
0.6902077038588477 12.993044683465214 19416.55910217213 13.940317942331067
0.7097269602585097 12.98950999382299 17075.904217745272 14.523468367552049
0.7295195296250263 12.987395600695484 15035.75764269712 15.12873368024338
0.7495794099690503 12.986535768594608 13253.838187434298 15.756988059165868
0.7698988834474662 12.98681621796198 11696.907671840627 16.409144091811978
0.7904802916301493 12.988070003736407 10264.794914571685 17.086154758129734
0.8113109739955423 12.990214382677733 9139.650815103469 17.789015554059567
0.8323867680961345 12.993124944497955 8091.253439396091 18.518766767114442
0.8537029311193474 12.996690370939243 7171.488089770679 19.2764959172505
0.8752466301906036 13.000842790075975 6361.931650115049 20.06334037735254
0.8970177801336405 13.005433488724792 5649.913488386404 20.880464373740697
0.9190035020224385 13.010426165337627 5021.989814280092 21.729114855397327
0.9411969057555407 13.015723326049736 4468.418679937487 22.6106358718844
0.9635871562741736 13.02122880932294 3979.974948236134 23.526397497301364
0.9861672234142047 13.026872669850626 3547.599140446696 24.47783625341689
1.0089251114937068 13.032599956775925 3165.153266569998 25.46645918483093
1.0318445962687084 13.03833059093372 2826.4910959099693 26.49384825096311
1.054933613783575 13.043962855186859 2526.4226355679552 27.561624004218782
1.0781598761820366 13.049487725808298 2260.3262174662023 28.6714929804254
1.1015221630407883 13.054806293014964 2023.8118400059693 29.825332782441777
1.1250029337052736 13.059880684306325 1813.688598100035 31.02507169492983
1.1485926577593588 13.064639247271536 1626.579029300434 32.272740358566324
1.172276172783418 13.06903983663381 1460.0849182513493 33.57047868147967
1.1960399295023565 13.07301507640843 1311.8655022979885 34.920543299832055
1.2198675694550398 13.076525161370222 1179.4667780065283 36.32518788336372
1.2437464161733771 13.079513340916856 1061.4821869609318 37.7867144840759
1.2676595916320645 13.08192122902686 955.9341165786251 39.308044574431385
1.2915915679283485 13.08371775809072 861.6698204257291 40.8919823975078
1.3155232469299842 13.084849886745044 777.351425593653 42.540910047626014
1.3394418690833245 13.085275227617739 701.770876561977 44.258366388345955
1.3633258427093538 13.084941344518649 634.104600952932 46.04748401651128
1.3871588662999144 13.08381989851201 573.4286307441846 47.91140805613099
1.410922243113143 13.08185540739178 518.9415982076271 49.85413376190807
1.4345977127048593 13.07902125095374 470.05515182389985 51.879059241333145
1.458165814913951 13.075269281107008 426.0780369699426 53.99045714136304
1.481607852073281 13.07056475296697 386.5361429048026 56.192749648992915
1.504900500410876 13.064866129781707 350.9591932842536 58.4897930375062
1.5280262049612763 13.058141721175867 318.92190309344835 60.88694748568931
1.5509635896226097 13.050355138773321 290.0368732373563 63.38920155379567
1.5736907138761842 13.0414734765037 263.99752538211186 66.00186537740524
1.5961867023601428 13.031457944658532 240.4808221882104 68.73059667651046
1.6184248863815003 13.02026809111811 219.2261803761637 71.58142897559665
1.6404001986957915 13.007907696313918 200.02750773586712 74.56080223804469
1.6620710020350042 12.994308794653243 182.6544982224848 77.67559614105227
1.6834253351824162 12.979453168740083 166.95296816965907 80.9331662428036
1.7044381752275153 12.96331153175054 152.7068969064936 84.34138332214647
1.7250854614861368 12.945857058419733 139.80128386060284 87.90834592195743
1.7453477809598477 12.927059289256945 128.11249311368695 91.64275471542497
1.7651989546306954 12.906894037223863 117.48661584341022 95.55454756034266
1.7846184748024492 12.885332037300316 107.84149180855718 99.65314384725076
1.8035818047349814 12.862354129778977 99.08401832833702 103.94978008259865
1.8220660655327234 12.837927646985355 91.1052810630047 108.45600033584742
1.8400517319835001 12.812039841689973 83.85738699763216 113.18400414198372
1.8575114298331554 12.784661923644299 77.25306566042984 118.14692651662355
1.8744269917122358 12.75577985985878 71.23279181956073 123.35894685970712
1.8900550226856947 12.725758364036487 65.93057073660098 128.9203994373719
1.9011398861400235 12.694113036453173 61.911611167414385 135.2366430046882
1.9076306187305254 12.658166006018046 58.866015843312574 142.3861632376198
1.9101369566938842 12.616944563115178 56.496294657152475 150.402438079196
