M[M_sun], R[km], Lambda[1], P_c[MeV/fm^3]
0.2416277750616976 15.618515526848569 2160321.870080337 3.5677787854173952
0.2522408225906978 15.314058844282645 1767919.434408682 3.759413101616832
0.26315026859278023 15.0458216400593 1454061.2987371152 3.958372476812126
0.2743583006995243 14.808607925986644 1201276.1108960374 4.164993418525666
0.2858621361715167 14.598372401334819 996809.3435635385 4.3795682370553575
0.29766351825064635 14.411599268901087 830350.1219863573 4.602251530166451
0.30976361235666944 14.245305876896452 694188.2082198889 4.833454396271877
0.3221643700988643 14.097012091428029 582392.659057234 5.0734741491638715
0.3348605234471634 13.96481803585718 490158.5144700483 5.322620897124488
0.3478574771222235 13.846616734389972 413851.2671827624 5.581143130806664
0.36115565847778724 13.740927244417808 350399.82405180717 5.8494516232278935
0.37475566427100476 13.646462924441446 297495.9899505009 6.127906722354587
0.3886580561428273 13.562007325914792 253238.53031872175 6.416875128937476
0.4028602877632104 13.486622056391372 216093.15109150202 6.716738954441022
0.41736616781844704 13.419304944033792 182513.48609695715 7.02789632938776
0.43217475624323676 13.359283596815931 158422.64565370925 7.350762042213056
0.44728586673980436 13.305880884618482 136089.47042432165 7.6857682102711
0.4626998825038976 13.258418877798098 117139.95377529976 8.03336498477397
0.47841659784011514 13.216388437783786 101030.7578238419 8.394021291614518
0.49443477119070656 13.179294987017784 87298.39257341565 8.768225610222775
0.5107544648460182 13.14662089049267 75555.68346820917 9.156486792834153
0.5273743037802375 13.118042094587794 65517.15885186514 9.55933492681029
0.5442949802900147 13.093145983815209 56896.61546110411 9.97732224294715
0.561512436791248 13.071640591942288 49495.00074809697 10.41102407303773
0.579026952319147 13.05319811256107 43121.79532862593 10.861039860320508
0.5968359417964146 13.037521024498238 37623.81234562012 11.32799422685112
0.6149369026584127 13.024400649561402 32873.08172566085 11.81253810227789
0.6333281330339348 13.013598041230384 28761.627434522612 12.31534991898361
0.652005905966919 13.004899453035598 25199.603879590835 12.837122218601172
0.6709691028651782 12.998097366868386 22106.708847317772 13.378526569954163
0.6902112105485676 12.993027506832533 19415.709685882448 13.940405692771227
0.7097300714018794 12.989508999623649 17074.854717714847 14.523562413324598
0.7295228307444832 12.987403191596574 15035.394865330254 15.128834375533366
0.7495817456811478 12.986535016821716 13253.781298102249 15.757095778067821
0.7699041506049678 12.986803109152353 11696.864268114208 16.40925922962235
0.7904838913118843 12.98807041014421 10264.561386040294 17.08627773273234
0.8113148209637581 12.990214861212936 9139.445729128805 17.78914680741059
0.8323908435561468 12.993130098276973 8091.110165035145 18.518906766834803
0.8537070058381934 12.996696841437101 7171.32391538916 19.276645158333967
0.8752523920955337 13.000835989480388 6361.8395158043995 20.063499383998252
0.8970221829686984 13.005441686485124 5649.931794747734 20.880634752779105
0.91900840259852 13.010433316249907 5021.832130774122 21.729296199782556
0.9412016549694443 13.015722906458361 4468.387161810426 22.61082880816762
0.9635907468027722 13.021232197705361 3979.7730221414836 23.52660269013725
0.9861715211927337 13.026878826335562 3547.4674122424512 24.478054408190975
1.0089293924528198 13.032598048814462 3165.055670382905 25.466691050484616
1.031850006199798 13.038330726528915 2826.4086843476302 26.49409462303218
1.0549376663367807 13.043962055529608 2526.36576214738 27.561884232804967
1.0781657817582604 13.049487988620248 2260.293811847661 28.671769384725753
1.101527240888735 13.054805464892596 2023.7203509025599 29.82562631507361
1.1250077084416201 13.059881178135491 1813.4288616361976 31.02538336958576
1.1485986776340764 13.064643305651998 1626.523454065738 32.27307125440635
1.1722818781440991 13.069041132296967 1460.097330491589 33.57082994786911
1.1960452420907421 13.073015122039656 1311.7859280952052 34.92091616145458
1.2198741088499852 13.076521750209057 1179.4416108819996 36.325581586254394
1.243753269096619 13.079513896692024 1061.450258212159 37.78713237893465
1.2676668420123383 13.081921472746313 955.8990425221808 39.30848814190912
1.291598619084254 13.083721308859191 861.6267202383166 40.89245321817803
1.3155302571402547 13.084849281019276 777.3154244520638 42.54140735844413
1.3394485734396588 13.085274317016678 701.7628350813053 44.258894323144546
1.363333148766405 13.084943237334729 634.085267484697 46.04804184499503
1.3871668026114434 13.083816255702033 573.4150808833056 47.91200035418078
1.4109302121690532 13.081855493504255 518.9258025183186 49.854759849774844
1.4346058798285513 13.079019746017542 470.04280164792675 51.87972419438251
1.458172892269417 13.075268554014109 426.0600930258154 53.9911603519392
1.4816154472136 13.070562341652513 386.5315826582962 56.19349675892
1.5049082229213149 13.06486572854569 350.9524285046019 58.49058353734802
1.5280350561403098 13.058137975510785 318.92163225886105 60.887784167714564
1.5509715135033044 13.05035140171877 290.0302469331818 63.39008741312501
1.5736985666228687 13.041469186333252 263.9908387839158 66.00280362829383
1.596194454069895 13.031453332617772 240.46884071392975 68.73159077009231
1.6184322246993137 13.020263401649071 219.21951585835043 71.58248261923396
1.6404079370770903 13.00790267840803 200.0200123250007 74.56191941644704
1.6620803856709723 12.994303295908725 182.6466875609815 77.6767811393422
1.6834333230186334 12.979447457384111 166.94617675300975 80.93442367173034
1.704446003539681 12.963305655406634 152.69963097648397 84.34271814566719
1.7250943685091746 12.94584945388056 139.79917556993854 87.90975872822084
1.7453546099901276 12.927052507799175 128.10388940056498 91.64425583534558
1.7652066444454055 12.906886355756107 117.48765873780523 95.55613812379006
1.7846254727510937 12.885324653296891 107.83387087028377 99.65483541230186
1.8035894427347436 12.862344688630696 99.07589629805587 103.95157443642354
1.8220739140417614 12.83791717046846 91.10411472789087 108.4579048883643
1.840058784460075 12.812030489640557 83.84990544787604 113.186026899907
1.857519082286064 12.784650775526451 77.25070078279388 118.14908127264154
1.874434204395332 12.755767380365754 71.23197492405036 123.36123271174057
1.8907803873403863 12.72534958341301 65.74843347571363 128.83776100682394
1.9065336646551627 12.693389396734494 60.74191039671973 134.5951610430488
1.9216756839920839 12.659864367382152 56.17009600993458 140.651252633289
1.9361840691301824 12.624762055705753 51.9977332360736 147.02423685718293
1.9500276765434361 12.588043540199404 48.17873204315364 153.73536700912007
1.963202911968472 12.549740351541198 44.69044599065353 160.80600950860068
1.9752646373512994 12.510413891976066 41.57551582286722 168.3465333046699
1.9830796404344846 12.471094050704265 39.23297203531187 176.9585992146957
1.9862619936802233 12.428807067269924 37.51683362467206 186.8010539782647
