M[M_sun], R[km], Lambda[1], P_c[MeV/fm^3]
0.2416277750616976 15.618515526848569 2160321.870080337 3.5677787854173952
0.2522415388599388 15.31407778084344 1767909.6128379134 3.75943132866983
0.2631521206042632 15.04577898500296 1454068.5476707164 3.9584101478862683
0.2743611399152919 14.808524349622173 1201279.3475516539 4.165052268419845
0.2858672635768859 14.598255871843879 977328.0439594677 4.379649261970513
0.2976688749460902 14.41150373405261 830261.1947796313 4.602356924472069
0.3097701306594316 14.245255578633158 694153.0119240894 4.8335859562115875
0.3221700063372095 14.097011598739812 582334.2004119048 5.073633753374995
0.3348695862749285 13.964685655098474 490090.5479206217 5.322810510986821
0.34786885887580604 13.846470003712922 413790.02220016514 5.58136307649452
0.3611686832121184 13.740808857048641 345234.33890935994 5.849705530101448
0.3747697034917741 13.646362897959527 297452.56916659675 6.12819683066368
0.38867390743014824 13.561920075645109 253189.4950039263 6.417203785620478
0.40287757660967266 13.486535802573199 216050.32834991586 6.71710861901562
0.4173846329624117 13.419227970684936 184771.74290138506 7.028309580219468
0.43219529266597184 13.35920834200374 158394.67371526707 7.351221583188502
0.4473077636305895 13.305802024471568 136056.10257125413 7.686276877904956
0.46272364197453275 13.258360919797969 117104.17727719326 8.033925755781313
0.47844282877986344 13.216317570562655 101000.68061450557 8.394637290982464
0.49446363665860127 13.179211162236527 87269.72883915521 8.768900119818005
0.5107850545732227 13.146564188999731 75534.06592559503 9.15722326058581
0.5274073661076618 13.117983277362866 65495.965931409104 9.560136976510467
0.5443294719086084 13.093122177300357 56881.33487279719 9.978193684714995
0.5615494199570028 13.07159463271344 49479.743367115196 10.411968914495512
0.579065348671512 13.053149659853174 43108.680172335626 10.862062318534644
0.5968770152735354 13.03749090388633 37610.529895449625 11.329098741094787
0.6149798804471687 13.024381092119725 32862.80861282462 11.813729347675615
0.6333748844524324 13.013593238546003 28751.74684988047 12.316632821103267
0.652054912893479 13.004877923360366 25191.036087129443 12.838511493092287
0.6710195956722231 12.998085483895347 22097.94931616875 13.380018781727927
0.6902653388218895 12.993014610665888 19408.984835419113 13.942006642381001
0.7097872056653398 12.989509616525286 17070.46024443836 14.52527822205138
0.7295797776640888 12.987411679381257 15029.334817640396 15.130671505938134
0.7496431682875616 12.986540612135439 13248.422566811401 15.759061056006416
0.7699686855417561 12.98680254178188 11692.18105073554 16.411359867833045
0.7905514582777989 12.988075698991333 10260.463231624104 17.088521356115137
0.8113849340464785 12.99021348235646 9135.593363954486 17.791541480126824
0.8324647849274373 12.993135544537553 8087.778624879231 18.521461021366324
0.853782728544971 12.996711905832525 7168.323237898334 19.279368026652673
0.8753310102699915 13.000854184026526 6359.216740287292 20.066400431008873
0.8971037344811719 13.005458025811002 5647.297475111347 20.883743297452245
0.9190926361307792 13.010445031269482 5019.660372702104 21.73260481543973
0.9412886940920603 13.015750704978062 4466.206059628222 22.614348927426963
0.9636818290944288 13.021251837296115 3977.9531588201953 23.530346440932764
0.9862649482426354 13.02689593118204 3545.8771519931406 24.482034661717474
1.0090241206329287 13.03262636282898 3163.468199298112 25.47092147275073
1.0319490347529288 13.03835577989224 2825.0725925435177 26.498589730315036
1.0550384155169854 13.043990112495367 2525.257301133097 27.566632166744174
1.0782701116715432 13.049509285838564 2259.1741585806953 28.67681246372516
1.1016332854037636 13.05483926009884 2022.7423137229189 29.830981921886778
1.1251186874946695 13.059903428717064 1812.559177395822 31.031070001506762
1.1487114925708168 13.064659101825987 1625.7137414527558 32.27910860342201
1.17239640669388 13.069061160854018 1459.344041850215 33.57723898712184
1.1961621233782038 13.073036322654216 1311.0966991679868 34.92771923856195
1.2199943444284829 13.076540787113426 1173.5829607838475 36.33276494347242
1.2438758623464194 13.079519959805783 1060.8744554866942 37.794757158487165
1.2677915603958705 13.081930050559379 955.3985511532123 39.31658136254817
1.2917241126264147 13.08372703255496 861.1582631142952 40.90104372216066
1.3156596915738992 13.084856883468193 776.8730359815496 42.55048122203277
1.3395801588840908 13.085273040304257 701.3695935020293 44.26852698032386
1.3634657230818497 13.08493813116116 633.7105952847564 46.05821996945699
1.387302050175806 13.083808961437663 573.0884580936181 47.922807447221324
1.4110667577601215 13.081843991379548 518.6349292100573 49.86618350728675
1.4347442979527814 13.078998789059991 469.7802161593435 51.891857033272366
1.4583136584660177 13.075242825087225 425.7968788958857 54.00399128351189
1.4817571601380237 13.070532153743276 386.29353650139325 56.2070910059432
1.5050512592335605 13.064827220937962 350.74864929392095 58.50500726759361
1.5281780365447322 13.05809377997536 318.7173641827809 60.903050603983694
1.5511157531771287 13.050301560002662 289.83986905006714 63.406251212387026
1.5738429423426215 13.041410887499342 263.82339319870437 66.0199234467404
1.5963419464491992 13.031383822371467 240.3250290840301 68.74972958698709
1.6185792471250793 13.020187771036678 219.0784158780721 71.60170809008748
1.6405543727759537 13.007816273132265 199.89778728563138 74.58230425846608
1.6622260143155165 12.994206185974093 182.55458893233322 77.6984035524319
1.683579986147413 12.97934017506025 166.84202952429405 80.95736779868827
1.7045903151867974 12.963187947089818 152.6031204835128 84.36707457561552
1.7252390459622553 12.945722221174178 139.71457196151135 87.9355381929718
1.7454993021322744 12.926910604526357 128.01913906723559 91.6716468703484
1.7653493114586294 12.90673252916448 117.41246802664452 95.5851613469774
1.7847672029544235 12.885161816655133 107.77507067057216 99.68570175700562
1.8037285055871004 12.862167305740465 99.01369787740985 103.98431651625205
1.8222116516096443 12.837730835363278 91.0416535421187 108.49265793311422
1.840194743129749 12.811826338269425 83.80007221074328 113.22293703177564
1.8576512030279053 12.784433253141126 77.20420338360555 118.18830649356798
1.8745639402755705 12.755535810073718 71.18341547405788 123.40294399127635
1.8909063784913767 12.725103672197166 65.70717435972449 128.88214348183746
1.906656764254365 12.693127795506522 60.701808848329385 134.64241534195938
1.9217949882203993 12.659587668989658 56.135546923317534 140.70159633910555
1.9362994974034817 12.624467220457744 51.961754988008124 147.0777803106747
1.9501392600206027 12.587731148627865 48.14890395318287 153.79235910619627
1.9633107278760673 12.549412958642353 44.6622229092971 160.86685245045973
1.975792575694952 12.509500725920443 41.47403208562177 168.32494988340756
1.9875492376888944 12.467934063367533 38.54954271401626 176.192585338614
1.9984165565639274 12.42499743805913 35.896712137259925 184.5358039324793
2.0047817163597736 12.384067390980666 33.99143798680974 194.24702765703202
2.005235262478831 12.341255570239001 32.77787060999689 205.7563286310375
