M[M_sun], R[km], Lambda[1], P_c[MeV/fm^3]
0.2416277750616976 15.618515526848569 2160321.870080337 3.5677787854173952
0.2522409761632086 15.314069595496216 1768066.8268793002 3.7594144935607976
0.2631504164230837 15.045819772437177 1454119.8725526978 3.9583753536271846
0.2743584755355462 14.808559200723694 1201325.5149461292 4.1649979126830825
0.28586213791284465 14.598373168184493 996805.3487096707 4.379574424621877
0.29766390549786753 14.411593203725385 830350.0176807236 4.60225957870709
0.30976401496204653 14.245293288905023 694190.1026200373 4.833464442947358
0.3221631660898016 14.097082007621635 582383.8423470223 5.073486337425944
0.3348619408183849 13.964737037839061 490167.6653484877 5.3226353770479715
0.3478587315168136 13.84659942331611 413853.4463461022 5.581159926984154
0.36115671798683524 13.740920860798713 350397.8523951087 5.849471012800619
0.37475668432213943 13.646452056538877 297490.37162265 6.127928876384585
0.38865921206799636 13.561999104903894 253234.2693333603 6.416900226632772
0.40286158304813546 13.486617946137436 216090.7942464876 6.716767183605377
0.41736757733905044 13.419293815315958 182506.12733142945 7.027927886899302
0.4321763941009987 13.359301021969268 158426.09979217057 7.350797134533786
0.4472876223138261 13.305856686836155 136087.08153205024 7.685807053989564
0.46270204861798264 13.258409420892605 117137.60595980803 8.03340780718329
0.47841858559531536 13.21637084042921 101027.8386013563 8.394068331328754
0.49443688269960256 13.179268859679489 87294.79941668037 8.768277117834126
0.5107568206915563 13.146622081070143 75556.04858504492 9.156543031614026
0.5273778677382486 13.11802925996482 65514.69038072881 9.559396173457515
0.5442976546437087 13.093142811891871 56895.264038672954 9.97738878838707
0.5615166926443685 13.071632995188935 49494.72778778317 10.411096223275331
0.5790298258573641 13.05317472871279 43120.127706260406 10.861117937352134
0.5968393030608644 13.037519263322846 37622.582267379104 11.328078569638928
0.6149402931881495 13.024398908579695 32871.82794493392 11.812629067791557
0.6333317871774293 13.013621993363019 28760.004147058324 12.31544788331441
0.6520100453171797 13.004907077325313 25199.43947979592 12.837228305384738
0.6709723039139103 12.998119464019329 22105.83985862846 13.37864051687613
0.6902151603714177 12.993027951725741 19415.377193961496 13.940527942728414
0.7097350279951884 12.98951214588075 17074.794546340585 14.52369343370139
0.7295273038105738 12.98739410709317 15034.882280316946 15.12897465977093
0.7495858992711728 12.986541527884894 13253.126016383025 15.757245847344805
0.7699092370936151 12.986809193326213 11696.60119207116 16.409419634655716
0.790489009279966 12.988073376633976 10333.182375396418 17.086449055707405
0.8113201803401973 12.990215527754053 9139.16001750583 17.789329664049863
0.8323962951212849 12.993122147260832 8090.969502918608 18.519101808616515
0.8537126897585412 12.996687019975278 7170.87983597291 19.276853074871827
0.8752578127664781 13.000829597057233 6361.555872742696 20.063720905594625
0.8970285813452757 13.005440798763813 5649.616334966918 20.880872118030084
0.9190138604491777 13.010441319522263 5021.722912871596 21.7295488416064
0.9412082885732695 13.015720960222726 4468.133576825222 22.611097599462276
0.9635978932922769 13.021230500302565 3979.6710029215333 23.5268885568863
0.9861784040504251 13.026879411328139 3547.3630338215276 24.478358333123722
1.008936772213047 13.032596790464728 3164.915748140591 25.46701407701203
1.031858090830188 13.03832523219848 2826.303302299613 26.49443785948008
1.0549452493217324 13.043964539232059 2526.2174619595535 27.562246773751077
1.078173519102092 13.049488299614708 2260.137876463668 28.672154461229766
1.1015356157280891 13.054814561243889 2023.680636314156 29.826035254306113
1.1250179535405875 13.059887532745927 1813.3833572963315 31.025817583807235
1.1486070912789688 13.064649590064851 1626.4816358798182 32.273532247086486
1.1722908108400256 13.069040359421253 1459.9932578364014 33.57131932028698
1.1960541257960697 13.073016315491547 1311.7341738578107 34.92143561982289
1.2198833822361173 13.076530492430116 1179.3763297657563 36.32613008016293
1.2437622350428459 13.079509490698163 1061.3867712917106 37.7877145765308
1.2676762982367549 13.081920163164401 955.885336781946 39.30910610601874
1.291607296831359 13.08372054333832 861.5945965324681 40.89310915083904
1.3155401092817336 13.08484944937486 777.2769725718493 42.54210019659394
1.339458855977598 13.085270464853041 701.7417639442283 44.25962982599372
1.3633433163895465 13.084943002036045 634.058038342748 46.04881899510471
1.3871764316510455 13.083815067812871 573.3889102241309 47.912825526626634
1.4109406334858727 13.081855048052146 518.8932862694139 49.855632097537054
1.4346166762400925 13.079017495301606 470.03303422751077 51.88065058842303
1.458184730651906 13.07526626058947 426.04381999358446 53.99214004567679
1.4816263336564228 13.070561739212422 386.50923789035414 56.19453761251263
1.5049185997595032 13.06486063030021 350.93649305314 58.491684841051296
1.5280446651566588 13.058135288695802 318.8939737840041 60.88894981170396
1.5509832475028327 13.05034715494306 290.0184742234443 63.39132157019021
1.5737097235329522 13.041464669739957 263.9763574023249 66.00411077652525
1.596207522653637 13.031445469338516 240.4585938105647 68.73297571760173
1.6184441168624644 13.020256538853667 219.2127873925052 71.58395053111411
1.640005838432787 13.00785196238054 200.72534911424168 74.5853523627181
1.6575775201861274 12.992337667476491 185.4674861899105 77.92231107986278
1.6708607580074017 12.971312547149312 173.80479730973215 81.64688930216609
1.6805036912475524 12.944237652692989 164.37021990221015 85.7717110966912
1.6870689125536587 12.911055324531196 156.50482001682667 90.30880307783232
1.6910292063294248 12.871928448441167 149.81698724107943 95.27227867986439
1.6927648088561762 12.827160419908536 143.96428679701603 100.67720536953829
