M[M_sun], R[km], Lambda[1], P_c[MeV/fm^3]
0.2416277750616976 15.618515526848569 2160321.870080337 3.5677787854173952
0.2522409915808063 15.314070795670398 1768151.8394818066 3.759415947660794
0.26315109638724743 15.04576930173313 1454088.863547105 3.95837835890548
0.2743586991840749 14.808576960696975 1201309.4074856746 4.1650026075280975
0.2858626913586085 14.598369492675845 996808.5213718837 4.379580888498848
0.29766436335657803 14.411581023975053 830327.8266756991 4.602267986665611
0.30976480922877436 14.245301117341636 694156.8195699321 4.833474938275239
0.32216384133231846 14.097088293514597 582369.9744307555 5.073499069983123
0.334862203431601 13.964803942258014 490165.29053998686 5.322650503613423
0.3478595887285843 13.846592582265087 413848.88380863605 5.581177473250517
0.3611578459159525 13.740903645232406 350391.60042042297 5.8494912682885385
0.3747578502540602 13.646445994696768 297495.1954659248 6.127952019798043
0.3886604826508164 13.562003714288169 253235.96414259335 6.416926445185737
0.40286293884904056 13.486603873946763 216077.73333059988 6.716796673491748
0.41736881444002066 13.419293679159573 184797.49040883835 7.027960853792816
0.4321777714643337 13.359273801847795 158425.9190164978 7.350833794120364
0.44728904965329286 13.305861971511394 136085.73762809424 7.685847632534077
0.462704057715963 13.258406715708281 117131.94344851407 8.03345254213366
0.4784205749693651 13.216368928465638 101022.16051558309 8.394117471959778
0.4944392098114034 13.179264587921539 87293.14114692707 8.768330925933919
0.5107592776892576 13.14661367867919 75553.31639955945 9.156601782216551
0.5273799727114704 13.118024692590243 65512.21788731385 9.559460155624317
0.5442996400481486 13.093163580959715 56894.10338299449 9.977458306041779
0.5615196632874805 13.07162922228736 49493.02431545233 10.41117159609524
0.5790331885337078 13.053172043973925 43119.728881883624 10.861199501720531
0.5968421455637233 13.037517623448421 37622.04366307266 11.328166679663154
0.6149438758772331 13.024412964898277 32870.8679180721 11.812724096391216
0.6333354211128476 13.01359341722882 28759.699031053144 12.315550223385253
0.6520136354913981 13.004897854294196 25198.152272353083 12.837339130764406
0.6709742792959449 12.998109129985073 22105.17191798872 13.378759553534595
0.6902199075081693 12.99302478805337 19414.908765390588 13.940655653352627
0.7097392435071426 12.989517319738379 17074.5205177092 14.523830306560379
0.7295320776726781 12.987402312627042 15034.473084608167 15.129121210354988
0.7495909503658004 12.986553122353001 13252.642485810165 15.757402620121379
0.7699125561222285 12.986802579263458 11695.877747224675 16.40958720495088
0.7904950816900009 12.988069685900257 10263.933711441037 17.08662803172188
0.8113257790524457 12.990216223900962 9138.861549013509 17.789520689020573
0.8324021621461245 12.993128276393312 8090.568502336357 18.519305563134406
0.8537178848494671 12.996695615297986 7170.9356626564595 19.277070279367678
0.8752665151406506 13.000833066332 6361.481904768486 20.06395232300643
0.8970329515172395 13.00544810050672 5649.370697448201 20.881120086987757
0.9190205245795209 13.010437152142558 5021.588151674568 21.72981276969321
0.9412152392228471 13.015729756314178 4467.922462689562 22.6113783985857
0.9636066497058274 13.021231035575758 3979.5985332239916 23.52718719441235
0.9861865424248701 13.026881385112242 3547.2461406026164 24.478675835700745
1.0089450844779462 13.032596611517523 3164.6903328660374 25.467351534682308
1.0318658270333727 13.038330949473155 2826.177282266127 26.494796430102966
1.0549533313157022 13.043968802758931 2526.1552870969513 27.562625511444278
1.0781822557812364 13.049496042326071 2260.046637682137 28.672556741450826
1.1015441941286936 13.054814532638039 2023.5634708710081 29.826462463541546
1.125026318037392 13.059881819923714 1813.3016014253772 31.026271197437737
1.148615894428053 13.06465161235337 1626.3828640406173 32.274013835778874
1.1723003596763053 13.069044120309007 1459.957877644628 33.57183055689042
1.196063746493156 13.073018380913204 1311.699186104962 34.921978286811246
1.2198929395291473 13.076528653792609 1179.320066831381 36.32670308018076
1.2437727681649586 13.079509672590163 1056.7164570935702 37.788586979328784
1.2655525392830842 13.080176499207948 963.7009536847276 39.36272044637058
1.2836294427425947 13.07534200779346 886.9332926790391 41.10326198216322
1.2986475614880675 13.064405859073089 824.2927668084498 43.01356856083256
1.3111200203855862 13.047313357171792 771.6238047865688 45.09682874372055
1.3215247202594074 13.02444863467687 725.9144331201253 47.35654932364973
1.330197968657001 12.996069854994957 685.5913950973564 49.79675338651294
1.3374418575919949 12.962452877221777 649.1954945924617 52.42187508822582
1.3434962437916405 12.9239735054225 615.7802365867509 55.236849428352926
1.3485699693458242 12.8809064594481 584.6890212991071 58.24725782280264
1.3528402181636632 12.833567873883279 555.4781803560427 61.45914973640266
1.3564475069751092 12.782164834715315 527.5927737328458 64.87883087958741
1.3595310355803636 12.727012702377875 500.9530433341054 68.51364393065231
1.3621832766897615 12.668354166378364 475.3760150686015 72.37298217279896
1.364492573492044 12.606469780199753 450.61507162892167 76.46732078081905
1.3665229961598953 12.54157300974027 426.7921488990125 80.80786860686302
1.3683264388097245 12.473889032072083 403.7354446301023 85.40704278159579
1.3699534063356256 12.403606408485262 381.51906376389195 90.27804000273137
1.3714412909694262 12.330967018871062 360.04109440345366 95.43541070181854
1.372815355061544 12.256118612973756 339.39546836725276 100.89541042982883
1.3741049537414203 12.17931435521098 319.5389021884287 106.67570093267248
1.3753055914356611 12.100828217463217 300.486764827423 112.80044290844536
1.3763338564834229 12.021076511724807 282.49968367471024 119.30932609228978
1.3771341894596278 11.939803665542954 265.4453096682656 126.2254430485392
1.3779975592748563 11.855844578658749 248.8336292481632 133.49164679987055
1.3790299753462465 11.76983168545056 232.68754290792444 141.1284010892156
1.3802631169645527 11.682296735383794 217.0853986267182 149.1602498958426
1.3817399744010246 11.593737452848735 202.11624947926197 157.61178202168756
1.3834407081443039 11.504417520603047 187.82653850609688 166.51148780557455
1.3853280844209517 11.414587682537721 174.2641217011013 175.88910513017515
1.3873903363966418 11.324504788885223 161.47078961267098 185.77704771842374
1.3895890832347735 11.234341770621262 149.4493176581041 196.20947026010884
1.3918728364113615 11.144198228750648 138.2251159261096 207.2250199412415
1.3942051136633262 11.054197132184674 127.76099147872472 218.86423008910614
1.3965466302143934 10.964449596726958 118.04460674059263 231.17139380837165
1.398848175370383 10.875018478227563 109.06253439469455 244.1949507100458
1.4010557909409838 10.785896871430072 100.76209966077599 257.9864126800091
1.403140365025264 10.697185082000649 93.12069012476536 272.6031909790365
1.4050387968145188 10.608834819424057 86.09878456405902 288.10691061016837
1.406728437735914 10.52090527392781 79.65032115661809 304.5648932570932
1.4081605597727103 10.433388172152934 73.74811438247016 322.0501774885106
1.4092883313444187 10.346226005867058 68.3370029790245 340.64308401153716
1.4100846741154858 10.259463496598837 63.39487153162033 360.43120677272327
1.4105126036079432 10.17310067586057 58.87559072514616 381.5096373586251
1.4105192386540213 10.086981262767011 54.74723908985984 403.9837510625236
