M[M_sun], R[km], Lambda[1], P_c[MeV/fm^3]
0.2416277750616976 15.618515526848569 2160321.870080337 3.5677787854173952
0.2522402935997662 15.314085272254696 1767992.4798108195 3.7594054564231367
0.2631499618543937 15.045819578723902 1454157.8435451828 3.9583566760528868
0.2743564606140251 14.808618832560994 1201354.4476447403 4.164968734637469
0.2858605556816743 14.598390822882276 996799.47259115 4.379534252274265
0.2976612390135714 14.411607065500979 830369.8121569568 4.602207324185033
0.30976173637575516 14.245337435956422 694221.4395540976 4.833399215778506
0.3221590418248026 14.097126516716484 582422.8891660521 5.073407206297054
0.33485691898052106 13.964788500111824 490196.33255121665 5.322541367649364
0.3478541188409751 13.84662349948935 413890.5690821411 5.581050879681597
0.36115116618118814 13.740940084717229 350415.12901958113 5.849345128330469
0.37474969732790125 13.646493165583403 297513.77472523897 6.127785044189761
0.3886494869547883 13.562089734974332 253260.59150650108 6.4167372832730765
0.40285306358491935 13.48665513644421 213326.5351828508 6.71658390983769
0.41735800645918436 13.419337579085576 184822.30280825618 7.027723004570507
0.4321660297376938 13.359324859803523 158440.9073094259 7.3505693032731605
0.44727621209203783 13.305918831130077 136099.77663557636 7.685554867686048
0.4626897863795182 13.258445334045033 117143.87231372828 8.033129790232394
0.4784054757457191 13.21640229843177 101037.79697682975 8.393762934631743
0.4944232416001151 13.179290795739963 87307.45576453565 8.767942714531678
0.5107412069585552 13.146653115915637 75564.89503313937 9.156177912534798
0.5273610418038073 13.118062744480957 65523.31647651258 9.558998542260566
0.5442803738272669 13.093185537428518 56905.0851394963 9.976956756375372
0.5614973644364909 13.071642391976548 49500.89815682329 10.410627803856467
0.5790105183435179 13.05320877545929 42743.25647405109 10.860611040119828
0.5968180512414245 13.037538416386722 37628.63344897202 11.327530994047411
0.6149184428664876 13.024427490084374 32877.3053946611 11.81203849639293
0.6333085428434971 13.013608801659878 28765.134286428063 12.3148118745262
0.6519865415932357 13.004898531798744 25001.36190304358 12.836539564501779
0.6709458420521655 12.998129861078752 22109.420582495255 13.377900746925487
0.6901890536808705 12.99303004626595 19420.38760809945 13.939734268438375
0.7097059965783186 12.989525583195855 17077.81279121112 14.522842820831098
0.7294973585179958 12.987393578890734 15037.483537024451 15.128063904924305
0.7495560662198754 12.986534011179945 13256.030968828478 15.756271567059487
0.7698769466555366 12.986795842068089 11698.747607774452 16.40837825371283
0.790456390348676 12.988053558202656 10335.341123981934 17.0853367946027
0.8112854037487407 12.990213660061416 9140.922189287514 17.788142525562936
0.8323601152845238 12.993123072874955 8092.585710558704 18.517835563409033
0.8536752795440404 12.99667817999591 7172.625424664246 19.27550324603952
0.8752189467970694 13.000834924110094 6362.938222276943 20.06228275209317
0.8969881243813915 13.00543688019964 5650.880597389354 20.87933110705783
0.9189727764928517 13.010425254264401 5022.9931906153015 21.72790865470874
0.9411651559706866 13.015717241631492 4469.294504845157 22.609352569904267
0.9635541912680002 13.021220401951583 3980.5279587608957 23.525032673317355
0.9861328913161567 13.026871357684712 3548.2002309520904 24.476385215816773
1.0088893524583298 13.032584134616807 3165.6792172284004 25.464916952314702
1.0318082172690755 13.038316551280493 2826.9324175010615 26.492209532332634
1.0548947155900368 13.043960101232122 2526.838039383344 27.5598931220859
1.0781215407251092 13.049479251214605 2260.725852393561 28.66965450949328
1.101481636029263 13.054797655426185 2024.0849802307514 29.82338038677433
1.1249632482756475 13.05986858017895 1805.2027130419942 31.022998632383295
1.1485516177722528 13.064634116567712 1626.8934244732159 32.27053945157966
1.1722340445159265 13.069029765070427 1460.4477235079041 33.56814228556585
1.195995482373989 13.073010847453478 1312.042761294779 34.91806326956991
1.2198237137373706 13.076517605791889 1179.7167293236562 36.32256923345585
1.243702290632401 13.07950853339445 1061.6604230848548 37.78393492884933
1.2676141395472191 13.081917211900473 956.1231464078855 39.30509426606553
1.291543952994472 13.083719430708442 861.8391058293054 40.888850823615556
1.315476217088175 13.08485015464759 777.5095053334893 42.53760228325182
1.3393936532718624 13.085274144498216 701.9274427295513 44.2548549393768
1.3632776113985634 13.084946398587533 634.2329266886225 46.04377374015267
1.3871090382964253 13.083824634948547 573.543915389707 47.90746851832716
1.4108731677102582 13.08186126765648 519.0452168858535 49.849969483657794
1.4345481913661688 13.079025750030286 470.16799942086004 51.874636466658686
1.4581149784559464 13.075278168861539 426.17217093419646 53.985779911749695
1.481556274136856 13.070575297723982 386.61482712694374 56.187780441134755
1.504848300260915 13.064881453319463 351.04000666561853 58.48453523961601
1.5279732057435882 13.058158155897296 318.9921640017751 60.88138252664397
1.5509112150461317 13.050374530749306 290.09838199832757 63.38330951336428
1.5736377350712634 13.04149516624933 264.0564827656193 65.99562487795875
1.5961331505975238 13.031482484995742 240.52851425087954 68.7239847650177
1.6183710816989578 13.020297007119742 219.2609992263637 71.57442099493701
1.640346458130777 13.007938377870891 200.0750420984276 74.55337168656116
1.6620189257308744 12.994344643703588 182.69821239712843 77.66771451915207
1.6833722219239182 12.979491680430328 166.98770584754612 80.92480288528066
1.7043845531136592 12.963354320958821 152.74534087879863 84.33250521475081
1.7250332431898527 12.945904591260886 139.8366094230138 87.89894915281174
1.7452960697437168 12.927108571381345 128.13100437960375 91.63277057615424
1.7651462283544672 12.906948758748067 117.5139471870499 95.54396853620601
1.7845667460753944 12.88539381935523 107.86533820039998 99.64189306869469
1.8035310740362787 12.862416994131943 99.10339533465859 103.93784566336116
1.8220167745204645 12.837996938296408 91.13022851107931 108.44333299459672
1.8400014699891984 12.812114629188988 83.87220196840066 113.17055062839573
1.8574628933733424 12.78474186209734 77.26809550811943 118.13258987311666
1.8743793530877035 12.755864717422927 71.24899092060585 123.3437435392657
1.8902964397154798 12.725697681806723 65.86931727459026 128.86974832872176
1.9023060228723574 12.694198071672185 61.66521237317953 135.0724708367088
1.9100380387667413 12.65885384482056 58.40711254828182 142.04966643033038
1.9139400261436001 12.618501598756641 55.831804833420904 149.8379419500155
1.9145587467478347 12.573038367605601 53.759551894414216 158.47525609188548
