M[M_sun], R[km], Lambda[1], P_c[MeV/fm^3]
0.2416277750616976 15.618515526848569 2160321.870080337 3.5677787854173952
0.2522409137023536 15.314049743980231 1768061.048848242 3.759416182273379
0.2631516091041359 15.045751824423181 1454101.1225207434 3.9583788437939402
0.27435873841967745 14.808571169644617 1201292.9220502875 4.16500336502097
0.28586271380172595 14.598394107825147 996824.5952834939 4.379581931417675
0.2976643561882816 14.411561809887383 830321.9210438466 4.602269343254061
0.3097654840501323 14.245278419783228 694148.3940302265 4.833476631652397
0.32216385636859884 14.097056888201827 582391.8793722163 5.073501124328451
0.3348621374356478 13.964805339666453 490167.41340046463 5.322652944222769
0.3478597031129911 13.846592009105253 413848.0174856055 5.581180304269455
0.3611579977277367 13.740903436707766 350393.9092548846 5.849494536430315
0.3747580213675072 13.64644524378205 297490.81948661455 6.127955753896057
0.3886606650879958 13.561989876192756 253235.50946184757 6.416930675446507
0.402863069939403 13.48660157651492 216077.88083342699 6.716801431570648
0.41736905673122376 13.41929315389503 184801.64980507726 7.027966172874788
0.4321782569443945 13.359263250253157 158422.43010047518 7.350839709005798
0.44728938787379885 13.305862948278474 136079.20929337406 7.68585417973027
0.4627048369743795 13.258397175346197 117127.98030940267 8.033459759952299
0.4784211102958701 13.216387956825109 101025.75023322251 8.39412540062076
0.494439543607459 13.179265310877232 87292.56137121192 8.76833960767618
0.5107596569892426 13.146617538870272 75553.69479595755 9.156611261416204
0.5273803776372572 13.118024243693768 65511.91105178367 9.559470478920804
0.5443001696734204 13.093168075160394 56893.54768438989 9.977469522472555
0.5615201141066122 13.071628867719529 49492.81700640639 10.411183757239593
0.5790336406299276 13.053171994260648 43119.90985984801 10.861212661853218
0.5968432864921417 13.037513965948362 37621.70457682607 11.328180895918665
0.6149444439789837 13.024415901345735 32871.6008644839 11.812739428939388
0.6333360106979464 13.01359217009773 28759.301289293537 12.315566735619132
0.6520141694517061 13.004893590013944 25197.86420761531 12.837357012080021
0.6709766929571466 12.99811347218706 22104.995720555384 13.378778759718244
0.6902203236947805 12.993025453583934 19414.52799783555 13.940676259058032
0.7097398736566085 12.989507983814756 17074.020957797118 14.523852390568907
0.7295328055842292 12.987389193251682 15034.494387405563 15.129144855840156
0.7495917420415258 12.98654385546662 13252.731740445037 15.757427914932139
0.7699159058454423 12.986801983777067 11696.141137201026 16.409614241915147
0.7904951530346515 12.988071957369087 10332.83410646426 17.086656908971943
0.811326682381452 12.99021633620751 9138.81339255431 17.78955151034177
0.832403106311347 12.993126994305996 8090.624066836985 18.519338438339066
0.8537187607824099 12.996702651321952 7170.790475688866 19.27710532469635
0.8752674974011558 13.000824204111387 6322.3846757284955 20.06398966155814
0.8970340789436172 13.005452681718799 5649.364308634058 20.88116009609692
0.9190221010450071 13.010441694329566 5021.559187517236 21.729855353774752
0.941216317818587 13.01572704458952 4467.969614677045 22.611423704774868
0.9636078246822491 13.021234126407785 3979.5582973921705 23.5272353787925
0.9861872486082215 13.026883864196975 3547.3054636941215 24.47872706392055
1.008945987237444 13.032601116877695 3164.7155539845435 25.46740598261895
1.0318670177742342 13.038328530403255 2826.138387636864 26.49485428457588
1.054955182139949 13.043967731117535 2526.110469270983 27.56268661983684
1.0781832662277862 13.049492685120759 2260.0686856366337 28.67262164838938
1.101545001992702 13.054814062489756 2023.586306488688 29.82653139273456
1.125027692421891 13.059884819603932 1813.312492357453 31.026344386936767
1.1486173798092725 13.064651797532568 1626.372721568043 32.27409153900988
1.1723017490736742 13.069041156569305 1459.9285078653102 33.57191304376653
1.1960654814534017 13.073017812728493 1311.6892537513675 34.922065844933655
1.2198944143655284 13.076530918444087 1179.3435118714667 36.32679553249219
1.2437735404472408 13.079510407292455 1061.3492812846325 37.78842091973902
1.2676871525137203 13.081926981626268 955.7946792471924 39.309855842849196
1.2916193017897226 13.083720328031369 861.5564071440925 40.89390495293749
1.3155521570532027 13.084854469675902 777.25799132542 42.542940774192495
1.3394699747771917 13.085271753348598 701.6447556123745 44.26052216651419
1.3633556445131962 13.084940665920493 634.0247333815811 46.04976186413042
1.3871888626968996 13.083815454103043 573.3627834748282 47.913826658796175
1.410953240034341 13.081853142188956 518.8763670165304 49.85669034386774
1.434630015983236 13.079012635387391 469.99460377268383 51.88177452786054
1.4581975793228175 13.075266246232147 426.0218311971316 53.993328651093975
1.481639606062324 13.070559085349945 386.4967842352234 56.19580042037461
1.5049319880565029 13.06485870835338 350.91279966419705 58.493020990248695
1.5280583656362443 13.058131627409471 318.8894460417347 60.89036402205762
1.5509960002995504 13.05034330939016 290.0004765925854 63.3928189044128
1.573723156083117 13.04145908733783 263.9581240625764 66.00569666774489
1.596221024480709 13.031439125953558 240.44519819642056 68.73465599935648
1.618457672849976 13.020249284353826 219.200973337359 71.58573147006119
1.6404326614839888 13.007887821076611 200.0015103272071 74.56536417580838
1.6621050171366045 12.9942858172724 182.63003610214426 77.68043502055785
1.6834579521469433 12.979429453865054 166.92719434754136 80.93830089221721
1.7044713963313602 12.963283209944112 152.68495237697846 84.346834011993
1.7251198585610519 12.94582851112664 139.78326989382072 87.91411505391126
1.7453794706237362 12.927027583172071 128.0913636745417 91.64888447629922
1.7652310783143303 12.906860805564014 117.46833530903648 95.56104256395243
1.7846498433014535 12.8852968288169 107.8255734868471 99.66005129168306
1.8036130175413458 12.862314779820048 99.06697157960349 103.95710726579583
1.822097894495162 12.83788503293999 91.09618633284641 108.46377751663854
1.8399693343607337 12.812068524916464 83.87807184265357 113.20428582658856
1.8540718410897643 12.784926838490424 78.20112352744827 118.4997678659295
1.8632968381593324 12.753650841021216 73.91560008923621 124.51067974408653
1.8683103925605564 12.71691559601502 70.5977118018439 131.26018470706933
1.8697524555819753 12.674431273352734 67.96020742676077 138.77338112504313
