M[M_sun], R[km], Lambda[1], P_c[MeV/fm^3]
0.2416277750616976 15.618515526848569 2160321.870080337 3.5677787854173952
0.25223936593098484 15.314113107235139 1768164.474273539 3.7593880315109183
0.263147033483596 15.045896468270822 1454158.0555833403 3.9583206631572767
0.27435303122416976 14.808691094490259 1201410.3590386608 4.164912475683372
0.285856570406282 14.598441749014787 996869.2159032666 4.3794567952819845
0.2976562493625159 14.41170218217005 830436.3610790229 4.6021065718200065
0.3097545683273909 14.245424209452786 694225.7242659794 4.833273451334062
0.3221511585222724 14.097196485194544 582476.5182087035 5.0732546343415645
0.33484706374005735 13.964895787542746 490254.5047161378 5.322360109871187
0.3478422304447034 13.846753140346324 413935.3523189138 5.580840628496934
0.3611393093049571 13.741084593610218 350477.8218703221 5.849102414927068
0.37473595883572824 13.64658971115034 297553.7542798153 6.127507727625664
0.38863515185599234 13.562158275184437 253296.7059274659 6.416423120669239
0.402836181546693 13.48673734197871 216140.08873135812 6.716230550749947
0.4173400085191899 13.41941501285656 184854.23650051336 7.027327985000627
0.4321458391735463 13.35938938626873 158485.9506808812 7.350130039293473
0.44725449019809277 13.305984357576651 136129.71509088742 7.685068648649491
0.4626655286050085 13.258551558331444 117173.06205111434 8.03259377153815
0.4783800394520318 13.216477082304639 101061.55947024352 8.393174130013927
0.49439627740212755 13.17934593213408 87328.52328466816 8.767297987836091
0.5107123322813568 13.146698636258245 75584.43872113813 9.15547396894618
0.5273294883678291 13.118106628475733 65539.93066475377 9.558231918939661
0.5442470314628769 13.093229104997697 56919.6899418027 9.976123812462427
0.5614612772499086 13.071709159217976 49514.59385353967 10.409724709794459
0.5789727913772021 13.05322937154879 43140.09989648994 10.859633766246924
0.5967779120620861 13.037572724404264 37639.392103323495 11.326475298405017
0.6148746797877533 13.02445221097611 32887.885310183374 11.810899911690925
0.6332636676746523 13.01364886125359 28774.3710710379 12.313585694203512
0.6519378795342388 13.004926821696719 25211.949212127376 12.83521172632369
0.670897175352385 12.998135940448353 22115.86737460632 13.376474534323014
0.6901370944889031 12.993043155499334 19427.23535818328 13.93820413891883
0.7096527355041574 12.989519274799802 17083.635479994522 14.521202925491624
0.7294392827251454 12.98741812603621 15042.786567376885 15.126308068819508
0.7494959196385227 12.986538692633701 13260.559666329362 15.754393268172437
0.7698151352774821 12.986806342327622 11703.279640377965 16.4063706004238
0.7903912841884141 12.988063778520647 10270.22874313386 17.083192501542356
0.8112183408641157 12.99020361021206 9144.726750960175 17.785853887726972
0.8322899047277866 12.993114129580855 8095.747696664563 18.515394428401333
0.8536015189338201 12.996679218713794 7175.64881093812 19.272900984300414
0.8751448496070845 13.000808079668518 6365.544744312928 20.0595102249558
0.8969104781117971 13.005418844797486 5653.24105692182 20.87636030110889
0.918892463469439 13.010405250246095 5025.009931302013 21.724746667107606
0.9410819074486885 13.015689000300425 4471.191265998795 22.605988477823804
0.9634682722970953 13.02119900369214 3982.3202719113565 23.521454889728485
0.9860439700430024 13.026849828534822 3549.794544930216 24.472581443696335
1.0087992343096759 13.032558269757937 3167.362200729154 25.460874135408343
1.0317200147071386 13.038286524439377 2828.4453497590466 26.487913802191667
1.0547982095292976 13.043933446692083 2528.0502062236615 27.555355808987432
1.0780227132894962 13.049451144560022 2261.7790328211654 28.664835182639987
1.1013806534416806 13.054771960494259 2025.158556787717 29.818262439639312
1.1248587172151665 13.059851299970013 1814.9024141921523 31.017564393855398
1.1484436604384431 13.06461033720625 1627.6753135248225 32.264770109417796
1.1721237269286173 13.069010455699157 1461.077898124895 33.56201780382784
1.1958835774945682 13.072990064063609 1312.709693569301 34.91156229949519
1.2197108087110764 13.076499781707469 1180.2982039577398 36.31570491876441
1.243584563787159 13.07949518179075 1062.2206564387386 37.776648859587006
1.267495236861009 13.081909584046938 956.5910718734056 39.29736063196089
1.2914216208982463 13.08371125825841 862.2744378776276 40.88064207278136
1.315353427321782 13.084848822831617 777.8936201225912 42.528931717185124
1.3392672686197005 13.085276537863672 702.2721274122039 44.24565049874957
1.3631499127998012 13.084949688797089 634.569876765084 46.03404815532023
1.3869802068167645 13.083827477814074 573.8652972094294 47.89714202565906
1.4107418325014547 13.081878251437905 519.340575137666 49.83905393214768
1.4344155613524527 13.079043749142077 470.41707479226267 51.8630433874901
1.4579811768149271 13.07530514620689 426.4025888071347 53.9735198969868
1.4814210054270223 13.070606795896772 386.83731924909677 56.17475514970924
1.5047127157992986 13.06491791548623 351.2385750808525 58.47075355130132
1.527836017562157 13.058202793897925 319.16730978156403 60.86679577046278
1.55077252082994 13.050426988732562 290.26646710038324 63.367865482944765
1.5734982638926243 13.041554320191086 264.19907054504347 65.97926754778473
1.5959938883953873 13.031547116890467 240.6698072074582 68.70665398122976
1.6182323958029647 13.020371664041251 219.3946270913536 71.55605213814162
1.6402072390683524 13.008027190394822 200.197868212527 74.53390391217984
1.6606920750249765 12.99414235008787 183.5760692016295 77.7109957217007
1.6776695346122765 12.97667299194993 170.15598005975792 81.210081673536
1.6914418518943874 12.954368703400215 159.0826862785692 85.04590500016958
1.7024079895544468 12.926926921654077 149.71195292841637 89.23017385826974
1.7109327438289303 12.894311567875658 141.6200444114473 93.77635100449228
1.717327900020838 12.856622052663596 134.49708624788565 98.69853451378327
1.7218694992316936 12.814075709470952 128.1421559137492 104.01226958942628
1.7247780586932162 12.76678240323953 122.37208219222086 109.73450982053049
1.726264266915844 12.715048038464346 117.06427150872757 115.88388852260313
1.7265042683124352 12.659068286194593 112.13742512621363 122.48062197871405
