M[M_sun], R[km], Lambda[1], P_c[MeV/fm^3]
0.2416277750616976 15.618515526848569 2160321.870080337 3.5677787854173952
0.25224172206082096 15.314049352907912 1768105.161335695 3.759428106263079
0.26315157713391774 15.045794409187016 1454116.7102402428 3.9584034879033516
0.27436052742976413 14.808546673100373 1201253.722628484 4.165041864140683
0.2858653093383576 14.598330687481376 996800.0341564575 4.379634937253503
0.29766804597438 14.41153335687963 830289.6954492274 4.602338291343787
0.30976899297665406 14.245251329436964 694127.7911800742 4.8335626970830345
0.3221691200158604 14.09702158905144 582314.6438109048 5.073605536088247
0.3348681554339278 13.96471235038146 490124.7215687018 5.322776988046089
0.34786664865332934 13.846537562406928 413810.1677160197 5.581324190919344
0.3611667453473162 13.740821319308393 350358.83767951344 5.849660640203069
0.3747674871679798 13.646375561781078 297456.4159351904 6.128145540343508
0.3886711006253139 13.561935987622963 253199.68652988895 6.417145679915176
0.40287446597957755 13.486548239876916 216061.28771977377 6.71704326305537
0.4173813792464162 13.419239017531156 184769.2643378021 7.028236518119601
0.4321921437324692 13.359221359485614 158397.60122857548 7.351140336869462
0.4473045140898603 13.30581930664138 136062.96659901965 7.686186945835611
0.46272060632542633 13.25838042832028 117118.2118777814 8.033826611639997
0.4784385689157284 13.21632188661995 101010.37900092869 8.394528382229625
0.4944591097693402 13.179211037624667 87277.63941361413 8.768780866174255
0.5107796799934489 13.146582423287056 75540.32740101064 9.157093052408031
0.5274016713778302 13.117991406980366 65500.12038517193 9.559995173058898
0.5443232511841152 13.093130887903696 56884.29693240088 9.978039612302823
0.5615427308634959 13.071617305497037 49481.470769570406 10.4118018645126
0.5790592749534158 13.0531471216743 43110.19136416551 10.861881545336074
0.5968693529714955 13.037499643534137 37614.05723444109 11.328903459743993
0.6149730098043391 13.024381542473776 32864.7404359443 11.813518731531614
0.6333667839116592 13.01357663046035 28517.007688011025 12.316405999240393
0.6520463752762022 13.004880794241592 25192.736669543232 12.83826586357739
0.6710107371521333 12.99809976567534 22100.15774194167 13.379754951885495
0.6902560854029148 12.993023476279905 19410.743126278685 13.941723586564637
0.7097765351874988 12.989513759418926 17071.43996643355 14.524974857901364
0.7295695525117136 12.987396272315507 15030.519651166022 15.130346690747125
0.7496322056172335 12.986537101687665 13249.268043674872 15.758713582826344
0.7699573208403698 12.986803147036692 11693.09465598845 16.410988461304207
0.7905390774639933 12.98807371961797 10329.836505436559 17.088124667995743
0.8113726120866904 12.990224462912566 9136.339529479557 17.79111808450089
0.8324505475554534 12.993136014387826 8088.103477535058 18.521009409504995
0.8537691992808896 12.996698653187234 7168.663541509899 19.278886601502062
0.8753171602463987 13.000842984785526 6359.763183299442 20.065887501276393
0.897088826779204 13.005450454861396 5647.6922152617035 20.883193678930418
0.9190780316647148 13.010451900308654 5020.164108566222 21.732019821255957
0.9412732458889251 13.015739488720774 4466.677904393337 22.613726536016834
0.963666596726327 13.021246451331434 3978.3267088191287 23.529684507777265
0.9862476186634407 13.026893480477353 3546.0784153170234 24.481330910864102
1.009008980072135 13.032619337740174 3163.7463893529366 25.470173487696965
1.0319316875743882 13.038351797558516 2825.3144327733 26.497794944201626
1.0550217661372634 13.043985891496277 2525.5344353884434 27.56579267637933
1.0782512794759922 13.049512472911644 2259.358282701448 28.67592078615564
1.1016154060201258 13.05482844565399 2022.9007541853075 29.830034983359
1.1250993474097597 13.059897420050637 1812.728644693975 31.030064531175313
1.148690583091249 13.064661566488239 1625.8587836605514 32.27804111917507
1.1723763610523166 13.069053489067501 1459.5017004238698 33.57610578029016
1.1961422559537533 13.073029019622522 1311.2401368699022 34.92651635741579
1.219972876948019 13.07653634000271 1179.0058188745038 36.33149482074517
1.2438535779008089 13.079525674135882 1060.9810907614421 37.79340898242865
1.26776932869257 13.081930434443633 955.4714657605017 39.31515035538581
1.2917023686260576 13.083727341067206 861.2495993122313 40.89952478365082
1.3156368100831557 13.08485341720109 776.9511553213791 42.548876814304606
1.3395559338094678 13.085276950847637 701.4068212811484 44.26682376421894
1.3634428742387819 13.084941771786117 633.7781024743904 46.056420301483705
1.3872775851851593 13.08380828072712 573.1453550619555 47.92089656154572
1.411042852910956 13.081845057786113 518.6848477050347 49.86416359736521
1.4347199251488139 13.079003267376121 469.83241924756305 51.88971172119435
1.4582894592867628 13.075248677143179 425.86035883224844 54.00172253014658
1.4817311147326517 13.070538776514281 386.3411723050599 56.2046909837379
1.5050260190944278 13.064834180604262 350.78314933653525 58.50245686326085
1.5281528936832198 13.058100916990021 318.7615103535561 60.900351185435326
1.5510897538829387 13.050311165987774 289.8711589559821 63.40339311421387
1.5738172558217238 13.041422007735259 263.8502272502705 66.01689629627795
1.5963161587214556 13.031394341556503 240.35181675706505 68.74652224704026
1.6185534981703984 13.020200730520278 219.10516056350988 71.59830859646766
1.6405283479097421 13.007831275743246 199.92448106506032 74.57869975181966
1.6622000670618455 12.99422288629232 182.5549034027099 77.69458020378107
1.6835542738062714 12.979356964397832 166.86074901388483 80.95331072803907
1.7045659870898835 12.96320791449208 152.6273131647953 84.36276776291923
1.7252141976980655 12.945744700114878 139.7283833589982 87.93097974059451
1.7454735015207552 12.926935758861191 128.03190197812654 91.6668034367485
1.765323665879505 12.906758345401004 117.41884599927559 95.5800292862223
1.784741619131603 12.885192075276539 107.78427006294132 99.68024376624108
1.8037039384489606 12.862198726826572 99.02216126934287 103.9785268281467
1.8221879766800289 12.837765455623396 91.05844962836213 108.48651263275823
1.8401704497975166 12.811862209993432 83.81202352984289 113.21641027784479
1.8576285880569257 12.78447172844555 77.21106354884307 118.18137034369063
1.8745409160611517 12.75557597811215 71.19285669453423 123.39556820962038
1.8908839978474863 12.725147216933099 65.71499844159759 128.87429532691328
1.9066350224771529 12.693174285926366 60.709531027553204 134.63405933239704
1.9217740460171868 12.65963623311306 56.14172089660066 140.69269399487902
1.9337250669212602 12.625992103142448 52.48341565701691 147.44481136091383
1.9397590782299154 12.58990402124992 49.97261178625233 155.34735455248736
1.940688072964117 12.548921813885892 48.21479689566272 164.4415522186596
