M[M_sun], R[km], Lambda[1], P_c[MeV/fm^3]
0.2416277750616976 15.618515526848569 2160321.870080337 3.5677787854173952
0.2522420121774702 15.314042149245754 1768058.5385858926 3.7594383002508116
0.2631542012112867 15.045693734641587 1454000.3760943906 3.958424556588093
0.2743626575578426 14.808485352714051 1201212.173467314 4.165074777852561
0.28586820676663416 14.598260685001014 996692.8568508528 4.379680253241655
0.29767110419209647 14.41148477619802 830246.7245546322 4.602397236987766
0.3097737662820716 14.245167283830972 681901.4976949132 4.833636277105233
0.322173780243823 14.096976133383366 582296.5203106857 5.073694801302778
0.33487433746859513 13.964675165109313 490125.8049845316 5.322883037791599
0.3478727303441949 13.846424707974146 413772.40740031895 5.581447205484864
0.36117386627881237 13.740777428669595 350312.99007627164 5.849802649618006
0.3747754617047815 13.646319557551356 297433.62592653715 6.128307797711407
0.38868009655928376 13.561889206930994 253177.5123654857 6.417329498022303
0.40288408653016955 13.486528447525862 216032.90237811158 6.7172500176662115
0.4173920798690526 13.419194407013356 184755.60151523963 7.028467651483678
0.43220388337408205 13.359164903795397 158371.0346814428 7.3513973614544925
0.4473179142163662 13.305749483611736 136041.23825131322 7.6864714483034495
0.46273491215552637 13.258310020931795 117099.00610169544 8.034140257082816
0.47845362444778483 13.216284187536434 100992.20034052181 8.394872918685587
0.4944745286812331 13.179216535123485 87263.6819862931 8.769158129442726
0.5107968219031709 13.14654626940693 75529.40442815737 9.157504971187059
0.5274188723436177 13.117975838853834 65488.97919970918 9.560443774427933
0.5443427814726783 13.09310460701205 56875.09064513809 9.97852702757676
0.5615632003267754 13.071576325931236 49018.98924455787 10.41233033549433
0.5790803495339885 13.053134295983625 43102.252935026285 10.862453430996768
0.5968927524907962 13.037495912704333 37607.43661993921 11.329521243363239
0.6149977137568953 13.024364376795809 32858.78473790525 11.81418502833093
0.6333924711319059 13.013579327322367 28748.306504712564 12.317123564546737
0.6520733448889594 13.004872986750925 25186.979787720586 12.839042928993637
0.6710394824914814 12.998081896942624 22095.19879581598 13.380589596119869
0.6902864030049288 12.993008101770272 19408.05084506028 13.942619054442362
0.7098084338039202 12.98949813225968 17067.279545267953 14.525934573674725
0.7296048725662441 12.987384176006197 15027.424537679257 15.131374269593902
0.7496669313722055 12.986539997373878 13246.475234052228 15.759812843166568
0.7699935120587609 12.986806656232197 11690.496164597693 16.41216343799662
0.7905761728288445 12.988080055451293 10327.668177774158 17.08937962648123
0.8114117704644098 12.990219725801692 9134.123295226473 17.792457535963944
0.8324921231121567 12.993138619523867 8086.302691546266 18.52243812713196
0.8538099866293772 12.996717515288044 7166.966576358759 19.280409637920126
0.8753611742552045 13.00084822201364 6358.018503190302 20.067510207264235
0.8971350583948855 13.005458405180672 5646.382214718307 20.884930694195187
0.9191243031590274 13.010465379035727 5018.841241107076 21.73387051474842
0.9413217479860766 13.015752927710373 4465.467800558524 22.615695541826916
0.9637167090697137 13.021259282366497 3977.145170181929 23.53177861060195
0.9863002175393153 13.026907922529999 3545.185164817477 24.48355731123073
1.0090622603842563 13.032629830651546 3162.922723023806 25.472539830806966
1.031986734981614 13.038357615362019 2824.518449820118 26.50030935095834
1.0550777631214427 13.043998481405769 2524.8294236930114 27.568448513094463
1.0783104986311995 13.049518536666808 2258.6995987970504 28.678741726951255
1.101675017914945 13.054844518359918 2022.3342751460045 29.833030752863518
1.125160137730279 13.059913419283045 1812.1783102078236 31.033245477584124
1.1487525907148093 13.06467420006971 1625.3458732548543 32.28141825909781
1.1724409686614263 13.0690637712573 1459.0639703516933 33.579690847129584
1.1962075314795408 13.073047391813835 1310.8446881286932 34.93032185358321
1.2200393914061616 13.07655159338768 1178.6374592459981 36.33551304967485
1.2439224427760005 13.079531520551726 1060.6382192476526 37.79767415009521
1.267839365174023 13.081933122701114 955.2197970189268 39.31967757768713
1.2917729084477543 13.083729541524825 860.9703919348375 40.90433019674462
1.3157094279558625 13.084859588496203 776.6650421215597 42.553952628558484
1.3396302754363414 13.085269505168935 701.2158329424108 44.27221218206535
1.363516022918094 13.084938903296209 633.6093761497143 46.06211386741862
1.387352838009762 13.083805524390243 572.9642102745922 47.9269419918859
1.411120063258805 13.081838323582627 518.525626454098 49.87055395243735
1.4347972531918098 13.078991769013285 469.7119121973939 51.896498817814084
1.4583678230102184 13.075232193609699 425.7279241024322 54.00890016447127
1.4818108680322954 13.070519281073002 386.2213522562158 56.212283920793716
1.5051052767044468 13.064810424849199 350.6606467727581 58.51052557445601
1.5282323500880106 13.058076353423278 318.6478062199307 60.90889134289802
1.55117155704195 13.05027833352524 289.77433458808105 63.412435297803405
1.5738984549291417 13.041386344258653 263.7635636917568 66.02647332356045
1.5963969558554472 13.031356569060097 240.27168608101456 68.75666935451191
1.6186348506086508 13.020155989967131 219.0213827865024 71.60906363718817
1.640609570086415 13.00778264818465 199.85042350343602 74.59010341110938
1.662282163379596 12.994169983129925 182.5052552528399 77.70667623481462
1.6836354280108674 12.979298346504446 166.80297277024027 80.96614620937353
1.7046464477355634 12.963142934844342 152.56711094509993 84.37639338021974
1.7252939192152434 12.945671736825954 139.68005676166652 87.94540149745447
1.7455536760656332 12.926858482639481 127.98619947733108 91.68212682267314
1.765403439951777 12.90667489312142 117.38181457202933 95.59626583624032
1.7848210483020268 12.885099181424753 107.74895564266834 99.69751150360852
1.8037810748758059 12.862100457413598 98.98880325369198 103.99684399983398
1.8222635199944077 12.837657428535634 91.0213920029513 108.50595490359208
1.8402457913089418 12.811748851573839 83.7764692429647 113.23705940786597
1.8577024637375479 12.784350892175066 77.18677749432851 118.20331474071189
1.8746135573800433 12.75544671162663 71.16791300240028 123.41890353804996
1.8909549521243902 12.725009223998672 65.69138354196018 128.89912517917367
1.906704979339416 12.69302788177187 60.68710403275185 134.66049597004343
1.9218410829282377 12.659482573784752 56.121429044254725 140.72083226097422
1.9363440225315265 12.624355223129118 51.95044549132236 147.09826756486189
1.9501831125961406 12.587612494490283 48.138425809925195 153.81416603992747
1.9633522945954305 12.549287469998893 44.65107912220385 160.89013299286358
1.975831216274687 12.50936815921065 41.46319953035733 168.34976737216755
1.9875849350159533 12.46779599379701 38.5391983809866 176.21906229578738
1.9986025720122627 12.4245887143161 35.86414252782052 184.52571994467795
2.0088631412434115 12.379734604685508 33.41089780871292 193.29995736844646
2.0160708666970284 12.33629115614135 31.476370376401732 203.18782024751079
2.0177931044295137 12.29253844772028 30.193565671717483 214.86063893770316
