M[M_sun], R[km], Lambda[1], P_c[MeV/fm^3]
0.2416277750616976 15.618515526848569 2160321.870080337 3.5677787854173952
0.25224090682503847 15.314085868460705 1767996.5484950752 3.7594154991660944
0.2631506514156959 15.045816541551511 1454201.371892437 3.9583774319736023
0.27435865495885986 14.808574899004087 1201345.5845583715 4.16500115947508
0.2858631341209443 14.598362401190553 996780.6161562605 4.379578894814663
0.29766424043342704 14.411588728143213 830338.8680911637 4.602265393358693
0.309764684639984 14.24530162521776 694158.2264462853 4.833471701150416
0.3221637925852883 14.097060888018632 582377.2819785397 5.0734951428181425
0.33486155096944276 13.964751964054846 490166.2342780739 5.322645838051943
0.3478593283403097 13.84659459613118 413850.30934396706 5.5811720613678135
0.36115744181951376 13.740906290796165 350394.8525571696 5.849485020786031
0.37475751025864124 13.646447970050586 297495.74387367954 6.127944881556875
0.3886600969769584 13.562005907323767 253236.80282738042 6.416918358462278
0.40286253072651795 13.486608109401327 216079.7303523706 6.716787577772579
0.41736854191429484 13.419317106533647 184807.6848003393 7.027950685640575
0.43217725269131535 13.359275357006572 158421.21079537718 7.350822487009589
0.4472886259958194 13.305873882930541 136085.50473194363 7.685835116676303
0.46270297865314924 13.258428246004092 117137.11245486939 8.033438744291228
0.4784201614556791 13.21637899069142 101026.58968562282 8.394102315247087
0.49443849540894247 13.179267124050197 87294.0528290101 8.768314329605806
0.5107584805353715 13.146614281524757 75552.77491147285 9.156583661442323
0.5273791909133183 13.118025605734077 65512.73191059436 9.559440421246693
0.5442985476892208 13.093151258725708 56894.23507128607 9.977436864319385
0.5615187610725724 13.071630462866391 49492.919569683545 10.411148348427679
0.5790321789627033 13.053173366071263 43120.714979725424 10.861174344354641
0.5968412822798649 13.03752051943987 37621.98817662099 11.328139503378997
0.6149427828349856 13.024398068070681 32871.80428493641 11.81269478616645
0.6333343250976484 13.013610001081721 28760.314925219554 12.315518658036089
0.6520131849708173 13.004903507893632 25198.732744283778 12.8373049482358
0.6709751017348552 12.998098427205736 22106.13707097785 13.378722838347178
0.6902182594725822 12.993026826335214 19414.475664316495 13.940616262796274
0.7097378773470369 12.98952240546861 17074.23911076835 14.52378809003454
0.7295306376957268 12.987402535785732 15034.336718086468 15.129076008863002
0.749589317121385 12.986541484453959 13252.846857569357 15.757354265728937
0.7699125604936782 12.986810763239621 11696.06411001332 16.40953552020562
0.790493045738565 12.988059943407691 10332.793146732254 17.08657282903168
0.8113240522142293 12.990216009201438 9138.953606871632 17.78946176998678
0.8324003210488296 12.993123770462399 8090.5280521772365 18.519242717836907
0.8537167933070614 12.99668590970947 7170.833495723933 19.277003285598152
0.875264491501666 13.000826553320978 6322.3518621303865 20.063880945445806
0.8970328153836417 13.005446196779648 5649.412530169308 20.881043604313934
0.9190189637736532 13.010440987377843 5021.645904792682 21.7297313646294
0.9412130668598846 13.015725466205952 4468.103331762694 22.61129178986467
0.9636035156344981 13.021232081093936 3979.562296502021 23.52709508366139
0.9861832223983794 13.026876606073055 3547.22333535812 24.478577906262046
1.0089416385769026 13.032599327834713 3164.7442057176618 25.4672474503449
1.0318634681823766 13.038330052920527 2826.2063943868707 26.494685833738473
1.0549509339902872 13.04397190516556 2526.2043839345474 27.562508694798677
1.0781792574104707 13.049494563114479 2260.090819836544 28.672432663403523
1.1015409068061972 13.054813828507726 2023.6153206824065 29.82633069644638
1.1250239436579021 13.05988943526717 1813.37487818732 31.02613128623013
1.1486127091270335 13.064642998088475 1626.3914383858819 32.27386529600428
1.1722975008330885 13.069037741389657 1459.982992914464 33.57167287257711
1.1960611337957572 13.073016535426568 1311.7123936706196 34.9218109081748
1.2198900450761738 13.076528300184584 1179.3892388374866 36.326526345687945
1.2437690775019863 13.079516293111888 1061.372610122885 37.78813519182929
1.267682575355094 13.081920101277978 955.8376075873794 39.30955256142513
1.291614243910819 13.083724046030126 861.5606946349128 40.89358303726566
1.315547295671151 13.084852508559651 777.2669292326639 42.54260074600897
1.3394659282012908 13.085270363006067 701.6930735451101 44.260161199268836
1.3633506569153409 13.084940829503934 634.0380497999124 46.04938045716914
1.3871846736126736 13.08381940621879 573.3688342110552 47.91342168330335
1.410948067444993 13.081853570024547 518.8796822639983 49.85626226462973
1.4346247748419787 13.079014533108422 470.0193703158166 51.881319874520784
1.4581920618123956 13.075266199561282 426.0333999165313 53.99284783914616
1.481633728897433 13.070558871140182 386.5003188305035 56.195289592124084
1.5049266319859453 13.064860709947848 350.91561197377024 58.49248049403201
1.5280532755609078 13.058133396096245 318.8918559635133 60.88979194861067
1.5509905912063393 13.050345570583703 290.006898946355 63.39221320576418
1.5737176554857193 13.041461190360227 263.96774407438 66.0050551460821
1.5962155737720094 13.031441681933941 240.4498793527793 68.73397629489192
1.6184522935398855 13.020251897955006 219.20519919019338 71.58501104780115
1.6404277874923188 13.007891412167362 200.00697763231943 74.56460031111155
1.660837867912465 12.994046750252958 183.45532415380802 77.74879223376094
1.6766564364273822 12.976155792785839 170.73144631507654 81.32366882392284
1.6882786658150546 12.952394701334537 160.70130715005791 85.3118905464448
1.6963747432238858 12.922473466912217 152.5470003993327 89.72494462427682
1.7015022247346123 12.886479323314422 145.73007848733104 94.57657460886375
1.7041172795974362 12.8445903809795 139.8844529233806 99.88121453999128
1.7045924859369954 12.79707698903148 134.75192667596613 105.65457039966279
