M[M_sun], R[km], Lambda[1], P_c[MeV/fm^3]
0.2416277750616976 15.618515526848569 2160321.870080337 3.5677787854173952
0.25224205148681406 15.314042522696937 1767971.420394568 3.75943885220427
0.2631544543764855 15.045694136759954 1422431.2925228055 3.958425697354275
0.27436276497601503 14.80849202114182 1201214.3847663992 4.1650765599725466
0.2858679943744397 14.59830132983134 977275.2062246177 4.379682706890227
0.29767126805008004 14.411482368902666 830240.3404081028 4.602400428624484
0.30977393516872637 14.245184296538039 694076.7853094431 4.833640261134044
0.3221740454114357 14.09694724356176 582311.8646877506 5.073699634623573
0.33487339442390507 13.964701150749704 490092.9149215785 5.322888779931916
0.3478733274718418 13.846470763450416 413778.6172246617 5.581453866209169
0.3611735361598875 13.740793772469823 350318.2293866297 5.84981033884781
0.3747762093194763 13.646314816370458 297430.84037688165 6.1283165833007684
0.38868057153548047 13.561886512808044 253176.1793100738 6.417339451057219
0.4028846265654299 13.486499255095815 216033.77894393538 6.717261212643032
0.41739297342289194 13.419184850821102 184758.6879030863 7.028480166498995
0.43220383517792094 13.35917610790102 158372.76540758717 7.351411278407311
0.4473182035950626 13.305747166219385 136039.46786074498 7.686486853110541
0.46273557689647526 13.258309199220841 117097.31774295254 8.034157239908037
0.47845425960785243 13.216287331950491 100996.42280150768 8.394891574184431
0.4944753462279365 13.179180520826115 87264.1942036871 8.769178557023167
0.5107977322622236 13.14654924791207 75527.39050009433 9.157527275287618
0.5274192969376286 13.117992820569537 65488.27185305655 9.560468064814716
0.5443437653052688 13.093083521968625 56873.25477812722 9.978553419660363
0.5615642083388102 13.071590371785646 49473.92127818519 10.41235895066849
0.5790818167555473 13.05313216105918 43103.09610871595 10.862484397000195
0.5968942373536382 13.037480725575566 37280.42468340304 11.329554694666124
0.6149991073128737 13.024387861818283 32858.934437460106 11.81422110654842
0.6333930462599341 13.013567795125093 28747.607309970295 12.317162418880963
0.6520749265213692 13.004885746808263 25187.33732986867 12.839085005183549
0.6710407203203145 12.998079022334608 22094.974421835628 13.38063479013387
0.6902880418471231 12.993007731838718 19407.83852130561 13.942667541990147
0.7098101568934185 12.989503887508052 17067.13654996908 14.525986540182467
0.7296057558162627 12.987401754802711 15027.702431987642 15.131429910826853
0.7496688082148584 12.986539952135061 13246.321751157053 15.759872365896065
0.769995522287747 12.98681725628746 11690.418226963202 16.41222706071483
0.7905794579159239 12.988074514799948 10327.254898051342 17.089447580166986
0.8114139622696298 12.990229134810908 9134.08892532797 17.792530064903936
0.8324945172310685 12.993139417489424 8086.323383887694 18.52251548980099
0.853811540195915 12.996714929850391 7166.913878605741 19.28049210792555
0.8753635884170763 13.000860750811704 6358.040382345924 20.067598074359534
0.8971375598515833 13.005463485792001 5646.336831541074 20.88502426536716
0.9191268504936229 13.010465984166197 5018.773447764606 21.7339707273755
0.9413243829000588 13.015752228487527 4465.396267116819 22.615802161084147
0.9637197123648858 13.02125762724242 3977.191462368089 23.53189200389484
0.9863030341723575 13.026905831578937 3545.180614847019 24.483677868483383
1.0090651657770637 13.032627135491058 3162.92159511607 25.47266796602456
1.0319894345753668 13.038358314655838 2824.506330218273 26.500445503907397
1.0550812851649065 13.04399965637738 2524.7457256271005 27.56859232455228
1.0783132175631158 13.049522725012157 2258.6827920007545 28.678894478922086
1.1016789557373956 13.054843914573622 2022.3294697576002 29.833192971962497
1.1251633778874497 13.059912527310509 1812.150649358285 31.033417724195488
1.1487569794686905 13.064669899852198 1625.3435052979141 32.28160112980367
1.172444227263882 13.06906963171095 1459.0306460794623 33.57988497733014
1.196211170705841 13.073040218349458 1310.8184045453868 34.930527920324224
1.220042950838131 13.0765497767431 1178.6404963768737 36.33573063616856
1.2439256734283428 13.07952613394712 1060.6289679694426 37.797905108701734
1.2678425760029135 13.081939533231782 955.2011114929333 39.31992272698644
1.2917770186497464 13.083729563490207 860.9625470280189 40.90459041057007
1.3157135049941566 13.084858598985319 776.6806953722354 42.554227485077064
1.339634308555207 13.085271833122786 701.2068557295453 44.27250396669506
1.3635212401362844 13.08494039323935 633.5801003840365 46.062422176417726
1.3873570595325126 13.083808667918671 572.9454920619488 47.92726935513028
1.411123825829194 13.081837402688056 518.5200092144404 49.87089999411658
1.4348014668501294 13.078990649917866 469.66690325996296 51.896866344032354
1.4583722666584114 13.075231052678912 425.71159672183205 54.00928883926367
1.4818153264722058 13.070519899909367 386.22118491211387 56.21269508529612
1.5051094791159594 13.064811731577064 350.6561108765611 58.510962503484905
1.5282367664983527 13.058074308577808 318.645863871988 60.909353802076986
1.5511760775351318 13.050278153481832 289.7724716435855 63.41292494318145
1.573902963212293 13.041387063793069 263.761607543489 66.02699193237456
1.5964010856632198 13.031354644980809 240.2639780839616 68.75721883500199
1.6186393612548524 13.020155003710691 219.03435327324817 71.60964603930074
1.6406139555115664 13.007778878149617 199.83970342369065 74.59072093818003
1.662287278196721 12.994165999132738 182.5102394017228 77.70733125632775
1.6836395389235064 12.979296749944139 166.7949160044325 80.96684127490998
1.7034519248147069 12.963103468031056 153.24581275787267 84.45305357282635
1.7168160276639608 12.94267099600964 143.7341643417756 88.50755812867733
1.7243440579693334 12.91524208342689 136.98981721754558 93.18136421673883
1.727254848422834 12.880391464098238 132.0264522826232 98.48246877549337
