M[M_sun], R[km], Lambda[1], P_c[MeV/fm^3]
0.2416277750616976 15.618515526848569 2160321.870080337 3.5677787854173952
0.2522370478557274 15.31415584822741 1768151.2911145312 3.7593439606184424
0.26314303542308853 15.045954593794612 1454371.0381726609 3.9582295807849657
0.27434674347545057 14.808788529912482 1201540.3126366048 4.1647701894012545
0.28584546355823637 14.598640292187849 997004.2799044411 4.379260898514455
0.297642874344242 14.411870358198119 830604.5257992388 4.601851761430065
0.30973860059901465 14.245624552581475 694483.5346680325 4.832955386934446
0.3221321036810398 14.09740259561937 582623.3520816626 5.072868776565038
0.3348221029939976 13.965167741402132 490408.3339020539 5.32190170986901
0.3478155301924698 13.846971465290471 414082.58342307695 5.580308909589688
0.36110870536782524 13.741267532846553 350584.29080107633 5.848488606355573
0.37470426667093254 13.646765241626907 297681.5021341171 6.1268064167362
0.3885969540017396 13.562393108005226 253415.63107336598 6.415628637161703
0.4027945510938684 13.486948316622724 216233.86986902528 6.715336952454161
0.417293646283489 13.419615177156166 184947.7479176768 7.026329042740777
0.4320956524514808 13.359578673932829 158553.98532995099 7.349019220775637
0.44719945881513556 13.30614020042412 134630.0751429841 7.683839101302102
0.46260542196708904 13.258700069312663 117253.8182241942 8.031238304229326
0.47831539403651147 13.216636112264414 101120.36389985526 8.391685193563639
0.49432674198268656 13.179497919529547 87382.72528666572 8.765667654234795
0.5106382482843156 13.146844396138397 75632.26552365579 9.153693909184808
0.5272483246605761 13.118262269762923 65583.77374213767 9.556293379348721
0.544161144582737 13.093355759872798 56959.577548841095 9.97401758945021
0.5613713153791388 13.071792712501047 49549.35394047696 10.407441122866093
0.5788768849864233 13.05335503208866 43172.121282747954 10.857162629177555
0.5966771913905299 13.037651416988684 37668.95308697611 11.32380588843064
0.6147697458993053 13.02451030001815 32912.34787220095 11.808020936570308
0.6331513691480781 13.013706677984258 28797.537096338387 12.310485256993852
0.6518211082142402 13.00497728665527 25232.674031323684 12.831854278693198
0.6707728786570766 12.99816743364772 22136.095736258536 13.3728683792052
0.6900063048382062 12.993086999211922 19442.939731258277 13.934335266811708
0.7095152392576191 12.989552919169324 17099.294374680732 14.517056552542817
0.7292968403680355 12.987420344413378 15056.084941127016 15.121868587219826
0.7493457121741972 12.98654075324747 13272.999046261846 15.749644193020735
0.7696586084180336 12.986795038107683 11714.31961897745 16.401294512797417
0.790227834505474 12.98804661779767 10349.163058085383 17.077770987486133
0.8110486613556198 12.990182707854574 9153.789219485436 17.78006747285039
0.8321140790471101 12.9930827318948 8104.75010979288 18.50922250774864
0.8534187546967222 12.99664484452335 7182.784249912838 19.266321747129453
0.8749547166846375 13.000779160620452 6372.310540317945 20.052469201883785
0.8967132357000533 13.005365321756805 5659.278975339769 20.86884943184544
0.918688037958662 13.010360507660877 5030.27911590744 21.71675252136733
0.9408707802677411 13.015645375644608 4475.92215951386 22.597483450037643
0.9632503680686797 13.021138892387395 3986.775995923631 23.512409696003747
0.985820270648509 13.026783418683273 3553.8507977716317 24.462965006130837
1.0085676544245556 13.032504111829121 3170.9953868309435 25.450653457703645
1.0314816826734161 13.038218190077547 2831.779703580003 26.477053835855433
1.054553648456695 13.0438769072861 2531.0257073345497 27.54382435278389
1.077770543234784 13.049397671347922 2264.451405534744 28.65265173382025
1.1011217704285494 13.054720781814474 2027.5961450828343 29.805324192783253
1.124594081613268 13.059792084871654 1816.9448060748289 31.003826692447625
1.1481731925573078 13.064566086137821 1629.6672233863255 32.2501854138183
1.1718472833131577 13.06896741014044 1456.1099588494617 33.5465354826992
1.1956009729154593 13.072944762864266 1314.436391954443 34.89512840469641
1.2194197395874578 13.076458036488763 1181.8702711426915 36.29834009215231
1.2432890332180242 13.079457509928112 1063.5986608314283 37.758230647866405
1.2671930121627724 13.081883366136177 957.9069386997629 39.27781124040971
1.2911158277894683 13.083693988416522 863.4108460894555 40.8598918817499
1.3150405355486785 13.08483253330011 778.9038540742255 42.50701433974181
1.3389502222060319 13.08527496009243 703.2285126608663 44.22238385082684
1.3628275819657785 13.084959285351673 635.4302410352367 46.009464405449506
1.386653600194502 13.083849744596918 574.6738204669332 47.87103962847396
1.4104112179928316 13.081908650629472 520.0563332251477 49.811462827826446
1.4340813473230445 13.079092643808288 471.0735203420916 51.833740041851264
1.4576430464378431 13.075364642731667 427.0025690604613 53.942531073006826
1.4810787834767412 13.070684381561923 387.3836539126203 56.14183237731053
1.5043671387612918 13.065010228431236 351.73461716184465 58.43591926590864
1.5274890232525837 13.058311336202872 319.628162818198 60.829927000613495
1.5504238260891392 13.050552658419798 290.69516806092423 63.32883032683322
1.5731475079286323 13.04169968131635 264.5894525841965 65.93792445670736
1.595636917237178 13.031703906014894 241.01705259601988 68.66282082178013
1.6178848878749756 13.020572662572961 219.72565044371163 71.50959202274686
1.6398531378690293 13.008233318245237 200.47575671112378 74.48467050342167
1.661525522869956 12.994669772165453 183.0714791936418 77.59484380332509
1.682880228505535 12.979850405620319 167.33829283929165 80.84747925349072
1.7038946707468583 12.96374877744111 153.05995787695085 84.25042358206855
1.7245447670045704 12.946335796559836 140.12858735059604 87.81207335120493
1.7448100972938383 12.927580330333571 128.4094770749553 91.54046570340887
1.7646664035653936 12.90745918290817 117.76238203850646 95.44602859035648
1.784090055667596 12.885943795117525 108.0941835891243 99.53788084601392
1.8030606279466683 12.863012373288715 99.31313856781172 103.82751476876118
1.8215522629669036 12.838638214373812 91.31451599097483 108.3262055663455
1.8395454231368717 12.812798861405797 84.05257100199816 113.04585090397612
1.857016611749273 12.785473029858146 77.43696710557413 118.00005697642484
1.8739405187862068 12.756644235392871 71.39961805113995 123.20294853863489
1.8902974932173995 12.726285783534367 65.89918948104797 128.66961200840973
1.9060649968534984 12.69438277095885 60.88341183047544 134.4161354801181
1.921219824472957 12.660917298916148 56.30542393578122 140.460526763349
1.9357313658239055 12.62584237635668 52.12115565180131 146.8213928756823
1.9496108356684112 12.589242144203743 48.294017605248186 153.51919997525266
1.9627918537532096 12.55097179515373 44.79719225250208 160.57552228967901
1.975299118268353 12.51115140028088 41.595765220857295 168.0144713327888
1.9862641153047218 12.470391387834495 38.79045118043484 176.01737840240426
1.9945523487919694 12.428208947888958 36.46357663917794 184.8147989244356
2.000113752073517 12.383204064663405 34.50555044469364 194.46072984718208
2.0031234032527307 12.334908468927672 32.847581197290936 205.0128686912798
2.0037308970869403 12.282962540035832 31.418139573068352 216.5337822726594
