M[M_sun], R[km], Lambda[1], P_c[MeV/fm^3]
0.2416277750616976 15.618515526848569 2160321.870080337 3.5677787854173952
0.2522385893522999 15.31413237435092 1768208.19654292 3.7593770111929223
0.26314597808951234 15.045915594666685 1454257.2966943062 3.9582978870616548
0.27435146870174626 14.80872860359679 1201462.7114948558 4.164876895300558
0.2858541550109221 14.598482467076265 996882.82874355 4.379407808670413
0.2976530863860367 14.411736769628584 830485.2157612799 4.602042852692584
0.30975089975720166 14.245472291883885 694304.1457966791 4.833193914138449
0.322146818496938 14.097254556908082 582517.8544882773 5.073158143751204
0.3348425093954639 13.964983150242947 490296.356768423 5.322245478158313
0.34783602249847895 13.846792934912584 413980.6031550334 5.580707661276896
0.36113116835700804 13.741097752324618 350503.4604285651 5.84894891865477
0.37472826192434805 13.646626405892746 297589.55547665484 6.127332348524314
0.3886258650496329 13.562210550101682 253329.10775837852 6.416224440512215
0.40282660344230475 13.48678971465465 216164.64470530144 6.716007083302581
0.41732865297647276 13.419479754882087 184881.12354148345 7.027078172233914
0.4321333674695957 13.359432452245303 158495.500729762 7.34985224735329
0.44724120346311963 13.305998781951997 136149.99149693616 7.684761163563956
0.4626504300172884 13.258566409829069 117193.35971279879 8.032254794643922
0.47836210062036977 13.216528845125033 101060.90175819318 8.392801773081024
0.4943785048698427 13.179387446962705 87340.63853498416 8.76689026786906
0.5106937948725909 13.14673338691523 75595.42821377242 9.155028802637887
0.5273098266692312 13.118136907162611 65551.24553200431 9.557747116751985
0.5442258376693829 13.093259959127979 56929.90989504206 9.975597072306535
0.5614379634808649 13.071723151507426 49523.86731614074 10.409153610280917
0.5789490176884863 13.053272333636755 43149.771265167044 10.859015759473888
0.5967515793033243 13.03760118627681 37646.26888065066 11.325807702250644
0.6148493928284136 13.024462654135403 32617.496139171417 11.810179901572866
0.6332359244817549 13.013647389442239 28779.826470993263 12.312810294266704
0.6519093326192955 13.004949211777806 25217.302135055197 12.83437204501184
0.6708655660804929 12.998136107675272 22121.796866992656 13.375572648057707
0.6901046443513089 12.99306695291954 19430.9202690887 13.937236543356416
0.7096193429314929 12.989529248899228 17088.212506646585 14.520165922572186
0.7294052421728381 12.987411749980803 15046.43715125157 15.125197754355947
0.7494584221679531 12.98654070750486 13263.664599206559 15.753205518556456
0.7697759424942829 12.986805139196989 11706.07183066412 16.405101058382858
0.7903494132831725 12.988063669013455 10341.727140966372 17.08183656087504
0.8111759153207448 12.990198234022948 9146.990405936267 17.784406676939625
0.832246540050746 12.993105577508802 8098.68212067743 18.51385079316174
0.853556095434866 12.996661770495736 7132.494363538889 19.271255468617518
0.8750971827518608 13.000794239476352 6367.11790602136 20.05775705098718
0.8968614573509036 13.005398346517342 5654.859480877005 20.87448175727419
0.9188413648348006 13.010395878702916 5026.377423719223 21.72274724103001
0.9410292841333489 13.015680944062105 4472.4301332059395 22.60386126375504
0.9634137674729667 13.021184811161222 3983.4277302242112 23.51919256202993
0.9859886289275963 13.02683452812394 3550.8253647624965 24.470176227892914
1.008740263859671 13.03255430297755 3168.2336235273924 25.458317777065385
1.0316605951004534 13.038270083793343 2829.2760870683846 26.485197533436715
1.0547372802664934 13.043914147422855 2528.802497914626 27.552475355915973
1.0779597991075025 13.049436945396835 2262.453482164713 28.6617878588616
1.1013167664791084 13.05476214283661 2025.7471515470113 29.815026308889355
1.1247919911202653 13.059833063656153 1815.3216370618418 31.014128284396303
1.1483758898683711 13.064597402481272 1628.0744746900325 32.26112212815701
1.1720548863509408 13.068998458042213 1461.535349517526 33.55814528412657
1.1958126253899979 13.072985812917253 1313.12557175391 34.90745174483986
1.2196370848242473 13.076492129367312 1180.723038716847 36.3113646388247
1.2435103656745239 13.07948176743636 1062.577555807167 37.77204192786425
1.2674195518891271 13.08190212715027 956.9570952699253 39.2924707317073
1.2913454183852633 13.083708619679413 862.5707274649776 40.875451786350304
1.3152750879959918 13.084842807570409 778.1770656309894 42.52344945370969
1.3391881139462132 13.0852714754819 702.5290369065355 44.23983070397744
1.3630687546437676 13.084950407254142 634.7527000708083 46.027898877166905
1.3868988172241166 13.083833568539355 574.0679679639603 47.89061284013237
1.4106581476136113 13.081884071653139 519.5134136399275 49.832152329839275
1.434332135905144 13.079054122146683 470.5764903794535 51.855713442114876
1.457896562126054 13.075320160428744 426.5504706936269 53.965768304405934
1.4813352349782387 13.070625017693406 386.9805151302912 56.16651974377657
1.5046257686377773 13.064939423144477 351.35023876726603 58.462039945311446
1.527749158458581 13.05822723412001 319.285564209064 60.85757319729786
1.5506846935896488 13.050457294843051 290.3567753148977 63.35810094085209
1.5734110805706607 13.041589678280678 264.30560829515343 65.96892562104853
1.5959068842625441 13.03158741741681 240.76326490745902 68.69569664475924
1.6181438199441132 13.020418627173923 219.47633250549777 71.54443854437228
1.640118450368514 13.008074840881967 200.2626669374123 74.52158155015825
1.6617908050136252 12.994495382329122 182.87531553319968 77.6339947968605
1.6831446660505394 12.979659533315854 167.15053137201443 80.88902241554054
1.7041579384778265 12.963538820484668 152.90017102452273 84.29452279015445
1.7248083540132533 12.946102097457274 139.97104138725612 87.85874803724312
1.7450702682430195 12.927329344154874 128.2554488665873 91.59005690024854
1.7649254830391459 12.907184513938411 117.63001056250766 95.49871015396165
1.7843463858490969 12.885646068763682 107.97072080688439 99.5937612123776
1.8033135144069894 12.862692932583789 99.20047633471692 103.88678949023893
1.8218025469331705 12.838294202346733 91.2151252521358 108.38914172998076
1.839791302958724 12.812430626990729 83.9571722281015 113.11285746198254
1.85725624776429 12.785080272087102 77.34578521555571 118.07125826725887
1.874176701102388 12.756224924024481 71.32008883333268 123.27865415883024
1.8905278284532354 12.725839437769892 65.82337415151052 128.7499490819796
1.9056030761646907 12.694300627160993 60.97857917358464 134.58792691218002
1.9173832967851614 12.660904650364992 57.04865057590975 141.04933608673034
1.9258789104083471 12.624058418820546 53.82667350364547 148.18423341511252
1.931310147533143 12.58294838640826 51.15014044755472 156.03129920450988
1.9339975394302535 12.53737110607775 48.88800024765057 164.63188347713194
1.9342120770467814 12.487256857005317 46.94778149043376 174.031182182722
