M[M_sun], R[km], Lambda[1], P_c[MeV/fm^3]
0.2416277750616976 15.618515526848569 2160321.870080337 3.5677787854173952
0.2522367797353381 15.314186238044876 1768203.247732378 3.759337069657104
0.26314299494482346 15.045950868598249 1454322.289786171 3.958215339204254
0.2743488234321912 14.808709120169805 1201538.4148514788 4.164747941818985
0.2858443951001921 14.598656620847448 977608.967418226 4.379230268786873
0.29764101265515125 14.41192727536352 830646.0512255664 4.601811920537988
0.30973543127934844 14.245653022088211 694435.3995588358 4.832905656404139
0.32212906863718416 14.097439221172861 582647.7170613207 5.072808446826897
0.3348220856607726 13.96514716553258 490423.5219788226 5.321830038616613
0.3478120676431223 13.846994813789927 414106.89323109516 5.580225775543796
0.36110325077191857 13.741364098740794 350620.7946473702 5.84839263843969
0.3746957049861966 13.646858917881719 297687.7132448718 6.126696768907374
0.3885906941404616 13.562430022669426 253429.27670711686 6.415504423113417
0.402788019057546 13.486977937794878 216253.55874767626 6.7151972433936615
0.4172867003527103 13.419646705520783 184965.75822311 7.026172865024032
0.43208753172136477 13.359625035722727 158565.41851099022 7.34884555338949
0.44719111834873443 13.306166817774203 136205.32354125212 7.6836468731830045
0.46259830330061336 13.258694964962444 117263.80323520757 8.031026391406423
0.47830535368942406 13.216671661066407 101130.56139634723 8.391452416113681
0.49431585081752216 13.179522256556734 87391.20908739098 8.765412773034958
0.5106266766428149 13.146863319874567 75641.18375791762 9.15341562244845
0.5272361616672115 13.118273983981299 65590.3345945181 9.555990318928314
0.5441492687044146 13.093363954621852 56965.67678929952 9.973688316890094
0.5613573378925916 13.071837844863037 49555.131246512414 10.407084125186785
0.5788617611416387 13.053344090114416 43177.513738173446 10.856776314371428
0.5966604149577763 13.03767051085237 37672.650252862375 11.323388580648109
0.6147545580710105 13.02453631510703 32916.02940559186 11.807570870973288
0.6331335530218236 13.013703115265447 28801.267351751612 12.310000574252328
0.651801338714113 13.004980404078049 25233.59728730463 12.831329422734987
0.6707528698136416 12.998176403882004 22138.563075710743 13.37230464809159
0.6899858101109113 12.99309163130949 19445.597878078916 13.93373047110739
0.7094942027171034 12.989552325498526 17101.580596379492 14.51640838181444
0.7292751307116976 12.987419216424298 15058.114300320933 15.12117460228574
0.749322555334507 12.986544964736987 13274.853675760063 15.748901817649429
0.7696342357364285 12.986799789309545 11716.165484146031 16.4005010248132
0.790201812168881 12.988047868535851 10350.485935618484 17.07692350923732
0.8110221241034558 12.990179532564117 9155.207878688618 17.779162960991332
0.8320882724292332 12.99307856389274 8106.1886875454675 18.508257742283426
0.8533905209045737 12.996633206003251 7183.90159063191 19.26529331966065
0.87492476263035 13.000760707634702 6373.991031350588 20.051366630269573
0.8966829339235101 13.00535795683085 5660.209516790682 20.86767539652876
0.9186563051121382 13.010351638667043 5031.342678505808 21.71550295395704
0.9408379590511057 13.015629578107655 4476.754225169324 22.596154036735932
0.9632174160578474 13.021136264342067 3987.4867002794444 23.51099586079171
0.9857851679900184 13.02677599643917 3554.476653647702 24.461461892696857
1.0085305143730792 13.032499684867581 3171.572906235314 25.4490559100127
1.0314445336825384 13.038209852463144 2832.242965071642 26.47535637724855
1.0545160760126717 13.043864580274798 2531.418576130273 27.542021163487043
1.0777333034932794 13.049384922165881 2264.948520737533 28.650747437023995
1.1010819632764877 13.05471284314241 2027.9765001267535 29.80330193588275
1.1245521973112007 13.059781891974783 1817.3104248043405 31.001679497712143
1.148130424631893 13.064557444933795 1630.1105452687634 32.247905853098814
1.171802841720324 13.068955480028537 1463.184802476544 33.544115644849896
1.1955558497090204 13.072940690953965 1314.680903836168 34.89255986041488
1.219371864367172 13.076460570747704 1182.0067344846257 36.29561385601182
1.2432428808372071 13.079453912646654 1063.8149612678528 37.75535200859973
1.2671458543005247 13.08188066660758 958.0680088039586 39.27475583202617
1.2910673246574191 13.083688275827663 863.609708333329 40.85664882678543
1.314991780520573 13.084831008609104 779.0621555436891 42.50358889021711
1.3389015014308596 13.085268710919278 703.3900564111879 44.21874755762437
1.3627766511809454 13.084958921364668 635.5797917082224 46.005622294719466
1.3866013823414232 13.083851520405771 574.766847285158 47.86696021126458
1.4103595859780047 13.081917185910864 520.1758913243826 49.80715078196122
1.4340282927118357 13.079099115319204 471.17927564754535 51.82916044384537
1.4575899793859606 13.075373757369857 427.09703327053353 53.93768810412826
1.4810257409317538 13.070693972657697 387.4745587046524 56.136687219334945
1.504313960068291 13.065022281739878 351.81770867236423 58.43047542385273
1.527434721652218 13.058328442988802 319.6999375146954 60.82416526295113
1.5503686842441164 13.050571675350257 290.760063854942 63.32273008715048
1.5730926071137015 13.04172352510271 264.652343167575 65.93146360180303
1.5955817418168055 13.031729478116215 241.07743677667546 68.6559489731247
1.6178289930128746 13.020601487203752 219.77328300659656 71.50230935502313
1.6397984824602114 13.008265348752733 200.53403231646274 74.47697815951129
1.661470191171272 12.994706995688198 183.1165963638155 77.58668471263596
1.682824638730524 12.979890286642098 167.37228741795892 80.83882170188045
1.703839554494414 12.963793063348268 153.09564345340112 84.24123342741825
1.7244905242454098 12.946383678755252 140.16365595851445 87.80231997139647
1.7447557695219955 12.92763291842836 128.4397498505999 91.53013119500642
1.7640076115502903 12.90749921333418 118.04233449977269 95.47753888991267
1.7808937043779607 12.884979375027553 109.24505930165691 99.75006159411433
1.7954351920699134 12.859064961890581 101.72286982656402 104.36861331799568
1.8077751107685358 12.829294143717222 95.18599926473578 109.35165650411851
1.8181024002278148 12.795586902063178 89.44211359896299 114.71885551212196
1.826569307019094 12.757839907075443 84.34506014504416 120.49166442852558
1.8333344073010516 12.716140747031046 79.76662049844273 126.69331015584282
1.8385288346969373 12.670545585542971 75.62142411155963 133.3490719111133
1.8422824876291426 12.621187363613704 71.84950303365615 140.48632579518429
1.8447004944923235 12.568174518955304 68.37549241319255 148.1350628110048
1.8458871168614202 12.511663506154063 65.17385145304254 156.32779820204186
1.8459264285749117 12.451789704671242 62.200359363003614 165.10000354979312
