M[M_sun], R[km], Lambda[1], P_c[MeV/fm^3]
0.2416277750616976 15.618515526848569 2160321.870080337 3.5677787854173952
0.25224139627187786 15.31405081109891 1768157.4189089616 3.7594213088160036
0.26315168692477825 15.045759809815827 1454028.0516542087 3.958389439150128
0.2743589675152034 14.808575637560947 1201301.2144110827 4.165019917105262
0.2858640917370205 14.598336866919205 996789.2611297951 4.379604720406381
0.2976659111328523 14.41155182804112 830304.6669711303 4.602298986317159
0.30976704300971625 14.24527893408621 694198.443905912 4.833513633981983
0.32216567146183883 14.097036903856063 582364.4929812438 5.0735460142889846
0.33486560392676135 13.964757694080046 490149.8053835878 5.322706274574113
0.3478625999205242 13.846566407605557 413824.91876935074 5.581242165609859
0.3611617814645517 13.740867169877037 350374.0887097639 5.84956594952085
0.3747627707881863 13.646403889395204 297473.16827250033 6.128037348800813
0.38866507888823226 13.561964757561451 253212.61112193117 6.4170231122345385
0.4028681397356541 13.486576152281245 213288.26308868045 6.716905401972683
0.4173746891702767 13.419287577923033 184793.6722837715 7.028082402046152
0.4321857066340139 13.359234796238136 158402.8138003343 7.3509689574032
0.4472953121630329 13.305857855726869 136076.10509716716 7.685997245110487
0.46271194810706473 13.258373066267179 117126.55826810769 8.033617479501842
0.47842893944518855 13.21634056969978 101024.47940784028 8.394298653225846
0.4944474509356849 13.179246412691128 87287.83479368786 8.7685293163435
0.5107682518981873 13.146595221599219 75546.92553650154 9.156818395855467
0.5273896068530152 13.118009114037534 65505.683422314665 9.559696058300949
0.5443107217832094 13.093142266514382 56890.01309617954 9.9777146183646
0.5615289240328087 13.07162777467336 49487.728191703696 10.411449496759696
0.5790450011562879 13.053182811080806 43116.28905936391 10.861500231021019
0.5968545487267232 13.037512715742558 37618.15217474638 11.328491543246363
0.6149567922914531 13.024387839448964 32867.75930889674 11.813074469269162
0.6333491851061707 13.013590555260027 28756.301466596287 12.315927554226777
0.6520284074781597 13.004885932809737 25195.637839395193 12.837747747657867
0.6709917781801386 12.998105183020593 22102.95224904049 13.379198446132293
0.6902357733314434 12.993026225232065 19412.67418499682 13.941126527660737
0.7097544768670044 12.989510730817203 17072.857293327976 14.524334962912386
0.7295485867336712 12.987403469655233 15032.857390334902 15.12966154945623
0.7496095433618146 12.986537669588186 13251.206070537268 15.757980649523574
0.7699332477532509 12.986808046773447 11694.838180630744 16.41020504598912
0.7905151425621942 12.988063800829245 10331.646411714584 17.087287926949276
0.8113464214059852 12.990218786632045 9137.761096325557 17.790225010178176
0.832423541387259 12.993123217168735 8089.583029094922 18.520056819697338
0.8537418231328815 12.996688718283439 7169.789298484291 19.27787112771208
0.8752881802252167 13.000832755651636 6360.506884620512 20.06480557624474
0.897058864453068 13.00544801358079 5648.8246873343305 20.882034368098143
0.9190456251652239 13.010448099674731 5020.984968189884 21.730785894369927
0.9412408192552009 13.015732587826495 4467.4778965017185 22.612413729236174
0.9636325372843285 13.021232353069779 3956.724188189546 23.528288297936104
0.9862133493880596 13.026890856487059 3546.7836940898096 24.479846497589868
1.0089735456275848 13.032613638291739 3164.4404886222574 25.46859577418258
1.0318947894745953 13.038335383557813 2825.813186733818 26.496118516522788
1.0549836652660392 13.043977744114956 2525.9986518994588 27.56402195713281
1.078212786936508 13.049503016580456 2259.7472508959513 28.674039992500298
1.101575627461315 13.054821713726659 2023.3235772981557 29.828037632284655
1.125058569525495 13.059892599214901 1813.0424970357099 31.02794372398956
1.1486492042721987 13.064657281570028 1626.1421620299434 32.27578951160871
1.1723331995616388 13.069044486394931 1459.7781614768933 33.573715550249815
1.196098880491378 13.073024343601375 1305.5056914301658 34.92397917017774
1.2199279675734949 13.07653046661553 1179.1647046275882 36.32881580733632
1.243807864023431 13.079514861193198 1061.189752749102 37.79056533938668
1.2677229106327481 13.081922243463426 955.6643136101802 39.31213200581788
1.2916544920904285 13.08372072798561 861.3929042075587 40.896320970558335
1.3155883446159475 13.084852507285278 777.1333483181332 42.545492730653685
1.3395078277379848 13.085270900263229 701.5770092199742 44.263231276182616
1.3633932704046638 13.084943656022487 633.9167603889958 46.05262437922777
1.3872275744235623 13.083812329945966 573.2691595224715 47.9168660623819
1.4109917668305407 13.081849927387346 518.7846522557113 49.859903147531554
1.4346685055422026 13.07900841021751 469.92225594244775 51.88518677814813
1.4582365593661084 13.07525840360156 425.9499951332577 53.99693722954399
1.481679410833098 13.070550011051724 386.42206332361866 56.199628816571284
1.504972638036609 13.064847766047633 350.8515096658019 58.49707751815192
1.5280991546749094 13.058118861279203 318.82845794510445 60.8946575473982
1.5510356705056456 13.050329265574263 289.93143265973004 63.39736479820092
1.573762956503438 13.041442669499263 263.9165374501164 66.01051142564887
1.5962619661028663 13.031420843239912 240.40602370076004 68.73975733277274
1.6184988498655402 13.020228959646634 219.1645301466363 71.59113840543036
1.6404741939443739 13.007861933561532 199.96688314687955 74.57109716300762
1.662145858126131 12.994258797322983 182.59776493756945 77.6865160512899
1.6834993086749654 12.97939836303478 166.8984876744729 80.94475362942075
1.7045112303371834 12.963250700062735 152.6585324614875 84.35368393141131
1.7251594473614509 12.94579310353396 139.76081409955694 87.9213651737321
1.745420021449943 12.926988967375753 128.07169444513642 91.65658781674902
1.7652704813044577 12.906811589365553 117.4445572460516 95.5692648720363
1.7824872047572047 12.885243322108469 108.65861693554109 99.83986613924445
1.7943986314655151 12.859581247474571 102.13775114474063 104.71342768915984
1.801721111751976 12.828057286591273 97.15408839311344 110.20915592949218
1.8052041565030081 12.790354984402457 93.23357309632952 116.34734892343548
1.805444133698438 12.746377156933615 90.06731707171713 123.14787771335901
