M[M_sun], R[km], Lambda[1], P_c[MeV/fm^3]
0.2416277750616976 15.618515526848569 2160321.870080337 3.5677787854173952
0.25224151846462045 15.314076619393331 1768007.986985364 3.75942545621076
0.26315178089968916 15.045776887306234 1454134.042131478 3.9583980108530423
0.2743596898057156 14.808561097333136 1201199.733295413 4.165033307857643
0.28586534797532054 14.59832434700562 977328.2342792704 4.379623156888562
0.29766720009828285 14.411538738958901 830334.9794260605 4.602322967842366
0.3097681869806759 14.245267297667043 694148.4526598521 4.833543569273899
0.3221675710831391 14.09703623892682 582356.0640533384 5.073582330819697
0.33486756416182345 13.96468148858975 490111.6438556166 5.322749419553594
0.34786519481929407 13.846547914224782 413819.10557066486 5.581292212350358
0.3611646956231385 13.740856372428004 350350.83539386856 5.849623723858221
0.37476511789066624 13.646395038666801 293300.20465287624 6.1281033604906785
0.38866880330565007 13.561946596345363 253205.24214745092 6.417097895309157
0.40287210175138954 13.48656053536333 213282.09138444072 6.716989516081301
0.4173785970048159 13.419254559803413 182491.2766499368 7.028176433881435
0.4321894811376443 13.359221926307857 158407.70581112878 7.351073522219689
0.4473012095995813 13.305810927131187 136064.47266213965 7.68611298834179
0.46271619636938527 13.258372908856812 117115.61793913876 8.033745078483669
0.4784350199303294 13.216324435152456 101015.23687880812 8.394438819032729
0.494454422044224 13.179224690012866 87284.15290182106 8.768682795747361
0.5107752466312581 13.146583191469501 75543.24553979133 9.156985973415239
0.5273966337432756 13.11800812466412 65503.45745897035 9.559878558592604
0.5443165370819418 13.09313022990094 56886.20428396598 9.977912908362253
0.5615371247771463 13.07161923904156 49483.09680260221 10.411664488378662
0.5790541451816297 13.053165220926175 43113.604391880406 10.861732883834986
0.5968638675752498 13.03750292462231 37616.39956297524 11.328742867391556
0.614966822137196 13.02438350262418 32865.48212336853 11.813345528549041
0.6333599436215094 13.013579231141925 28755.03474469854 12.316219469432545
0.6520386852001877 13.004892788008723 25192.977915933614 12.838063867260704
0.671002246146476 12.998100127916159 22101.422078282772 13.379537988504723
0.6902481096807902 12.993017228858202 19410.840881311364 13.94149081269458
0.7097691068849884 12.989506319269651 17072.38391291984 14.524725383480316
0.7295624366934411 12.987404894958523 15031.77119173071 15.13007957608834
0.7496235222513716 12.986534938955094 13250.24880269283 15.758427835416848
0.7699479257433546 12.98680270919429 11693.743464654392 16.410683032374752
0.7905288537217435 12.988073967186839 10330.316019127085 17.087798448845003
0.8113624066037005 12.990222713489722 9136.88002621694 17.790769902554743
0.832440151222179 12.993132312078952 8088.831052083393 18.52063802409092
0.8537584820573205 12.996706458616993 7169.3743926684365 19.278490699316826
0.8753039572249003 13.000845407747066 6359.736016683698 20.065465691522757
0.8970773000714825 13.005446208556856 5648.189615254084 20.882741698472643
0.9190653228829629 13.010451216030855 5020.442574838827 21.73153874994064
0.9412606934918794 13.015739688250395 4467.027871594134 22.613214711460678
0.9636522368837713 13.02124477552269 3978.503486667812 23.529140166490212
0.9862342930878367 13.026896402061038 3546.356516093913 24.480752181277428
1.0089942426405247 13.032615028120974 3164.009045617858 25.469558382666527
1.031917304954982 13.03834734275825 2825.5261837862317 26.497141352943725
1.0550062352252825 13.043984487260474 2525.7422094487097 27.565102323164385
1.0782369867337016 13.04950384594714 2259.5114542619535 28.675187517573306
1.1015997399922277 13.054822291259025 2023.0588963428713 29.829256271804176
1.1250834202964368 13.059896023256444 1812.8456997230278 31.029237686973612
1.1486742655386242 13.064659914162482 1625.9813338359838 32.27716327892743
1.17236002313074 13.06905180062191 1459.6147627471628 33.57517389429975
1.1961250080811534 13.073026906676738 1311.3266041181707 34.92552717611721
1.219955729605237 13.076539087064745 1179.01836531129 36.33045034462632
1.2438356588143449 13.079517949146599 1061.050793870281 37.792300320819
1.2677512366736432 13.081931793464866 955.5520481549314 39.31397357946791
1.291683831867652 13.083725325776351 861.3105235060276 40.89827569944054
1.3156183859068904 13.084856113782072 777.0344843309795 42.547557446448955
1.3395374814843901 13.085271517427234 701.4778510879258 44.26542314378519
1.3634228985430799 13.08494099283081 633.8360850969103 46.054940366258016
1.3872577359847622 13.083812649295455 573.1843275595479 47.91932516946196
1.4110225682251882 13.081846295895575 518.7167711510768 49.862502552122635
1.4346999268380722 13.079004329788493 469.8644935187673 51.88794755514509
1.4582689774922815 13.075250443418737 425.89183081164407 53.999856855724246
1.4817109771343278 13.070541673774608 386.36640441354024 56.20271736430938
1.5050049083429553 13.064837930973773 350.8034018253657 58.500359581937914
1.5281316441713206 13.058106230410003 318.7865572431317 60.898131367050425
1.551068798126576 13.050316670027634 289.89622018052506 63.40104281089289
1.5737961353644887 13.041430572898964 263.8732327311796 66.01440697858439
1.5962951082062884 13.031405366162277 240.36934178427438 68.74388475687884
1.618531132954364 13.020214085455708 219.11625062166024 71.59551309572367
1.6405066525844938 13.007844678544359 199.93422402742064 74.5757356663053
1.6621790396538845 12.994235723383959 182.5709551200518 77.69143616201042
1.6835321197974313 12.979373645623422 166.87838579933177 80.9499744943037
1.7045447706978711 12.963223110602511 152.63678575350372 84.35922616407525
1.7251930244946314 12.945763482325788 139.7419108721236 87.9272312161661
1.745453069386275 12.926955521155623 128.05085785599624 91.66282057040249
1.765303207943892 12.906781401792475 117.43102553039205 95.5758090798753
1.7847223232937803 12.885213264722443 107.79256356684515 99.67575554633795
1.8036835612777256 12.86222407731966 99.03197079028698 103.9737658522117
1.8221682790004126 12.837792123910479 91.06620236633196 108.48145923592568
1.8401511597217397 12.81189171206795 83.81360009613802 113.21104321122962
1.8576088018968304 12.784503178261213 77.21935946285198 118.17566663079963
1.874522062311331 12.75561012578684 71.19801771357865 123.38950298814136
1.890865458832042 12.725183014160889 65.71873388800846 128.86784167424065
1.9066171886193397 12.693211946756598 60.71226963394063 134.62744720187985
1.9194170058131579 12.660783329072967 56.64854135950066 141.00013034107724
1.9269488332329734 12.625694947293477 53.69907120004219 148.34132841094873
1.9297805974006552 12.585703370301056 51.52774082549008 156.69121858531926
