M[M_sun], R[km], Lambda[1], P_c[MeV/fm^3]
0.2416277750616976 15.618515526848569 2160321.870080337 3.5677787854173952
0.2522425301570741 15.314016265537719 1767942.042804834 3.7594464074931393
0.26315429129472345 15.045697446887585 1453956.4997251658 3.9584413124953115
0.27436352025875754 14.808478251209511 1201236.593182409 4.1651009541880315
0.28587007076142845 14.59825264937571 996649.2985000446 4.3797162932472
0.2976735199162191 14.411441884546868 830239.0672482038 4.602444116871628
0.30977623706235013 14.245155165848933 694042.1491105882 4.833694796001062
0.32217855320250705 14.096871785218314 582268.7461106789 5.073765795007957
0.334878296249466 13.964579134829192 490083.9304013708 5.322967380702426
0.3478780423049718 13.846385716261656 413747.0494302956 5.581545041053454
0.3611793463671721 13.740738484153836 350289.86324848526 5.849915592457722
0.37478161555127537 13.646280477137008 297408.59680888575 6.12843684453111
0.3886871181226103 13.561867371673896 253162.63957465702 6.4174756930057875
0.4028923209883248 13.486458309717971 216015.43245884206 6.717414455093649
0.41740028994691997 13.419159709633744 184734.58622453178 7.028651478521097
0.4322128241652203 13.359133069506646 158359.6748962371 7.351601781123586
0.4473269792361927 13.305732137083545 136034.73954554592 7.686697722644243
0.46274559851756797 13.258297667417795 117088.649492428 8.034389710523572
0.47846510030272077 13.216255114867284 100981.02492721098 8.395146941634783
0.49448678616315 13.17915893037661 87252.31618310271 8.76945818211976
0.5108105059419209 13.146520272385912 75522.32637963963 9.157832587708766
0.5274326154980608 13.117959665580686 65480.92438454705 9.560800567170268
0.5443595050605791 13.093055981153206 56868.624643012976 9.97891469183161
0.5615812279050038 13.071549678392646 49012.98625958841 10.412750654443258
0.5790983709749148 13.053114542504394 43098.37695872184 10.862908281025414
0.5969117209537181 13.037466838753199 37601.16670265237 11.330012599741146
0.6150167360777434 13.024361301636674 32851.80467777714 11.814714971284062
0.6334141990379322 13.013563703278393 28743.984558504715 12.317694285751665
0.6520958548156567 13.00487314916647 25184.28567529775 12.839658231502371
0.6710623660868408 12.998074718336362 22092.19699360935 13.38125344082136
0.6903101821413373 12.993005335380843 19404.974511420198 13.943331277917636
0.7098343886024168 12.989501609521632 17065.15675440761 14.526697899719803
0.7296303393439937 12.9874014526763 14916.213628747757 15.132191573883693
0.7478414778621433 12.985117881458459 13385.031734749056 15.783750094529609
0.7623195225309156 12.978069589337704 12184.822104142751 16.516636340926418
0.7740057567078672 12.965029547334494 11248.558273418694 17.331482663181934
0.7835766731461322 12.945727426349666 10483.945652847062 18.22814802523831
0.7915677086428489 12.920514866145693 9831.527464301485 19.20635493285738
0.7983764024830987 12.889708791851954 9255.381892026797 20.265654060865128
0.8043075097567469 12.853580187358512 8730.23985229698 21.406002418443293
0.8096061036355056 12.812572236829807 8242.78494831354 22.627388026696867
0.8144772244437894 12.766920100487994 7778.946642094981 23.929916365481386
0.8191014340698074 12.71703386303699 7334.233449688055 25.313852682946756
0.8236067978261098 12.663185098204481 6903.2580602593525 26.780033396020297
0.828112633772159 12.605819311563806 6483.121790124522 28.329613184795992
0.8327041341260505 12.545204676133498 6074.068530141715 29.96489070154288
0.8374505039638577 12.481657568660385 5675.029616370737 31.687841768585322
0.8424151067398404 12.415504396959353 5287.793127753041 33.50074394890244
0.8476506343463402 12.347107850066232 4912.589360247411 35.40622062717826
0.8532060266137632 12.276743493426379 4550.362045036776 37.407281933562544
0.8590931843131978 12.204696928963248 4202.251561784974 39.50732561907548
0.8653554228846554 12.131316693401843 3869.8612229582295 41.709081391726016
0.8720041221991361 12.056875436187775 3554.088885726208 44.018008651961594
0.879036198831948 11.981676006906984 3255.6334822659783 46.43789826909819
0.8864497203211738 11.90608886790567 2975.0303968819444 48.97561548296506
0.8941911223831571 11.830275927703708 2713.5807463092933 51.63849473928792
0.9021898153564677 11.75468602980608 2472.161317772151 54.43862796413775
0.9103062628441302 11.679631753033727 2252.0284201065992 57.39327214193752
0.9188418489255251 11.603454591972945 2045.2359584431688 60.474871508944
0.9280002238445214 11.526507985654444 1850.3380970861056 63.67693875896108
0.9378071517178561 11.449558255402884 1668.6541223074244 67.00470782450788
0.948242070002079 11.373183706450025 1500.5608338151737 70.46548449149012
0.9592886826020448 11.297671074975657 1346.0522488433664 74.06514412773977
0.970931751788615 11.223437602108177 1205.0601131107692 77.81146706997039
0.9831161957515008 11.150639277751687 1077.1888474787154 81.71095783379225
0.995799656872247 11.079431180787525 961.7053954264965 85.77223035801742
1.0089340655717232 11.009881367408143 857.9420448940875 90.003809594189
1.0224733910576584 10.942074010745097 764.9045843148523 94.41450686456801
1.0363695936462174 10.87604453884649 681.7450002802639 99.01372232093999
1.0505707343703168 10.811773315116067 607.7770422981476 103.81257073370945
1.0650211810927768 10.749154147659612 541.8833217183638 108.82074985854335
1.0796771092486688 10.688208368721659 483.4077262427098 114.05085839336142
1.0944829861753993 10.628772007284631 431.49328598401 119.51507622962768
1.109390884325334 10.570815870248394 385.48253877254825 125.22665875144921
1.1243616946361863 10.514213580393106 344.70147237333873 131.19999282799407
1.1393352463147335 10.458838348256418 308.53247168399747 137.45003059746145
1.154268435616649 10.404586088195456 276.5401870687468 143.99332694993302
1.1691325448958427 10.351381467741684 248.16245419037904 150.84703843649737
1.1838568005557304 10.299024598120136 222.99492463156247 158.03024900621415
1.1984306901019341 10.247465113719068 200.64847184419537 165.56303209184145
1.2127837844117053 10.19653747113904 180.8292199614992 173.4669460053034
1.2269029707761956 10.146213586324224 163.19091169856358 181.76494045430917
1.2407232671970185 10.096262178860593 147.50176680768774 190.48244152256973
1.25423763691498 10.046716638981732 133.54469481312327 199.64622843764366
1.2673981668830039 9.997358643049118 121.09099408856142 209.2852062578426
1.2801708481534702 9.948180971664454 109.98003888881546 219.43083257035502
1.2925186662210963 9.899056268652284 100.06413202526048 230.11678253359858
1.3044103223007562 9.849711063849083 91.17988473471245 241.37975821021124
1.3158383265190663 9.800428360124318 83.23284393900272 253.25891583419227
1.3267515575555997 9.750920873256364 76.11100637866008 265.7969800612357
1.3371345070403835 9.701053143412661 69.71496099658971 279.04054708381506
1.3469578589960909 9.650950833058982 63.96731775283656 293.0398139723697
1.3561968825699304 9.600379100828972 58.79417889609935 307.8492637487078
1.3648334702293954 9.54933413065353 54.1322684949753 323.52804594976504
1.3728436023379766 9.49777482948472 49.930091770385516 340.140855151072
1.3802100583708135 9.445669227172607 46.136488854720824 357.7575183335835
1.386909240426153 9.392955943259523 42.70714039848265 376.4548499990177
1.3929353955992145 9.339587243539587 39.60562574459446 396.31625652185505
1.3982671093714019 9.285582598070679 36.79474310366594 417.43289337988944
1.40288687872578 9.230877410780176 34.2488252059595 439.9045518023155
1.4067903992840105 9.175402488433093 31.935294049976825 463.8401374790133
1.4099562627158597 9.119250652525004 29.830851058811987 489.35934835254153
1.4123885836721333 9.062385566218081 27.926099678571035 516.593833022841
1.4140674206617578 9.004767261364773 26.19025062518872 545.6874245921812
1.4149971205824268 8.946366471373608 24.610855952055687 576.7987237184572
1.4151659851900473 8.887295949530133 23.17444194779133 610.1027763191702
