M[M_sun], R[km], Lambda[1], P_c[MeV/fm^3]
0.2416277750616976 15.618515526848569 2160321.870080337 3.5677787854173952
0.2522384956660006 15.314125512616512 1768135.5920840022 3.759375276592859
0.2631457598234245 15.045893980701027 1454209.6134139176 3.958294302108545
0.27435184532248935 14.808714585100349 1201460.2205268627 4.164871294968218
0.28585283842719167 14.598539927584703 977465.6351707934 4.379400098222599
0.2976525572395946 14.411752437198627 830487.6184076517 4.602032823383067
0.3097505277135177 14.245454201812572 694272.849522351 4.833181395113227
0.3221459657575305 14.097250322131737 582519.9374469175 5.073142956322877
0.33484045535599255 13.964959526788595 490330.5581276412 5.322227435392658
0.34783497869681035 13.846800791007677 413983.13490320585 5.580686732588005
0.3611303396844928 13.741095842091184 350507.5604709071 5.848924758798821
0.3747268075632061 13.646636482678183 297608.98059385415 6.127304744434507
0.38862411099679517 13.562224949807112 253327.6734204949 6.4161931689787055
0.40282473324535334 13.486818807826902 216168.57963569032 6.715971910412568
0.4173266351121367 13.419464913289406 184877.8251792723 7.0270388527757355
0.43213139243924703 13.359447661051892 158503.28826586503 7.3498085241820394
0.4472388628060623 13.306031117049953 136148.80134320047 7.684712766926009
0.4626486270834253 13.258587568303692 115887.50871520692 8.032201441457103
0.4783603466131255 13.216550546270861 101080.72126087923 8.392743166167369
0.49437579382506325 13.179393547480869 87344.96370925572 8.766826095136736
0.510690878258975 13.146738809285319 75597.6128419363 9.154958736208249
0.5273065786731339 13.118143553930354 65551.73303681612 9.55767081202809
0.5442234718896168 13.093257723858232 56933.793065692356 9.97551416697864
0.5614347522179163 13.071742059105004 49524.84660195111 10.409063723264127
0.5789452446074003 13.053263927687487 43150.65002095206 10.858918489773318
0.5967480482651285 13.037612348017982 37647.352640782 11.325702627748386
0.6148450989211419 13.024479307737803 32895.62756967109 11.810066577731266
0.6332314841817023 13.0136496251597 28780.47879622786 12.312688252741404
0.6519050213618798 13.004956774322334 25218.887873635347 12.834239886414869
0.6708607193550353 12.998150388658038 22122.20272771033 13.375430699206122
0.6900994320979318 12.99306264695973 19431.87943703764 13.937084252735364
0.7096127274438061 12.989538773128068 17088.492959276206 14.520002708180847
0.729399565017133 12.987412163363782 15047.219146091747 15.125023001754474
0.7494534641858688 12.986547117284724 13264.241473712473 15.753018578774025
0.7697697499937346 12.986797665054016 11706.474006000364 16.404901245676097
0.7903433422121872 12.98806221631987 10342.09216721393 17.08162315032594
0.8111692377116239 12.990197385172921 9147.346770446255 17.78417890188051
0.8322395868250465 12.993105205424529 8099.09618536871 18.513607842413933
0.8535488623582212 12.996669293114675 7177.657261419973 19.270996483529885
0.8750894530857255 13.00079293464301 6328.523770954333 20.057480995195366
0.8968533647570717 13.005394764057273 5655.127819730459 20.87418609747884
0.9188333180389009 13.01038627743633 5026.617529747233 21.7224325564539
0.9410209352567311 13.015674610824068 4472.5217616523805 22.603526467598137
0.9634050161131353 13.021184470756939 3983.6413382419328 23.51883650141399
0.9859796336344812 13.02682611371824 3550.9636140419943 24.46979767930681
1.0087311490871833 13.032552145481677 3168.3525069207903 25.45791544146727
1.0316508109835267 13.038262136617357 2829.369516725141 26.484770030985754
1.0547272908199306 13.043914602782795 2528.898739549436 27.55202122030321
1.0779499933366963 13.049439553013404 2262.5680543343046 28.66130825475889
1.1013061719947659 13.054755040801336 2025.8539504554738 29.81451699036397
1.124781429047821 13.059834419652768 1815.3580527586957 31.013587493317278
1.148366399517783 13.064601775389848 1628.2648897578963 32.260547992876404
1.1720434088336544 13.068999360877154 1461.5813060185737 33.55753581126713
1.1958023352664935 13.072975988314765 1313.2603890027644 34.9068048104307
1.2196258417923598 13.076486389505568 1180.7998958311623 36.310681550595966
1.2434992912473262 13.079486163407221 1062.624162478895 37.771316874611855
1.2674076885205585 13.081901082849255 957.0087490884231 39.29170114565626
1.2913335383627744 13.083704007674156 862.6300603742276 40.87463492648441
1.3152619310075868 13.084842434565152 778.1886780214321 42.52258664339189
1.3391756792132017 13.085271105537341 702.5656959580625 44.238914774328244
1.3630572754465544 13.08495304061608 634.8231814515902 46.02693109469344
1.3868859287308828 13.083836650993257 574.086511001729 47.88958526965566
1.4106465717097598 13.081885998380528 519.5541955380129 49.831066150150015
1.4343172842111274 13.079058871093766 470.60383769726263 51.85455985220298
1.4578830298146837 13.075321828766635 426.57465985964944 53.96454835798588
1.481321968888741 13.070628081550911 386.9912245278913 56.16522365795166
1.5046126623596514 13.06494494306152 351.39219691176663 58.46066860342571
1.5277356932826587 13.058233483976611 319.30205033509077 60.85612175763506
1.5506709701644006 13.05046187900497 290.3736927625855 63.356564210056774
1.5733973010293096 13.041595403814991 264.31278627969664 65.9672980259084
1.5958927252340636 13.031594208333448 240.77233918589403 68.69397220145758
1.6181306867349945 13.020424814050983 219.49947758073492 71.54261082495644
1.6401051330082324 13.008082329893806 200.2740659792435 74.51964364594657
1.6617768449190122 12.994503111236849 182.88105018935084 77.63193927847404
1.6831307128573165 12.979668591763208 167.15863757759269 80.88684128921564
1.7041445113018288 12.963547783426801 152.90613213404154 84.29220744995291
1.7247941278139647 12.946114488919733 139.98014176514073 87.85629746294711
1.7450563725415287 12.927343000316744 128.2656370507321 91.58745318228492
1.7649119882709605 12.907198959887392 117.6389425525232 95.49595133295966
1.7843330051437991 12.885661018332733 107.97403645989898 99.59082725230729
1.8032999816302524 12.862709729304918 99.20591441943131 103.88367729230178
1.8217894890388586 12.838312143376843 91.22220295259042 108.3858384489445
1.8397783667735388 12.812450211330185 83.96309812262221 113.10933925770902
1.8572416166378405 12.785098691872024 77.35149891513734 118.06815818011587
1.8726936526957318 12.756548660527974 71.70381288339591 123.42723728121008
1.8848572552346343 12.72530648546234 67.09692210775628 129.34079901341974
1.8938647400563222 12.690014600635026 63.27727894406097 135.83841375453827
1.9000485485501042 12.650346600643953 60.052414202089906 142.95128134501334
1.9036754960659603 12.606118711279825 57.28522864491226 150.71329958723294
1.9050158214455417 12.557288799087338 54.88075253951278 159.1609456570299
