M[M_sun], R[km], Lambda[1], P_c[MeV/fm^3]
0.2416277750616976 15.618515526848569 2160321.870080337 3.5677787854173952
0.25224253082538023 15.314028486114148 1768026.656876871 3.7594479781687427
0.26315452439382175 15.045707515529468 1453999.9101112655 3.958444558746102
0.2743647578198703 14.808450815934908 1176487.1394681402 4.165106025539886
0.2858705688937675 14.598206103955045 996642.085256815 4.379723275579116
0.297673946774635 14.411433805883359 830185.7136837294 4.6024531993195685
0.30977745228186476 14.24512784215727 694073.9985542735 4.833706133395394
0.3221788788191526 14.096865017851156 582275.0621820466 5.073779549282908
0.3348786884150808 13.964589577382583 490067.9386904964 5.322983721271091
0.34787909502834063 13.846379231121578 413737.2708170181 5.581563995714918
0.361180073751888 13.74076671790935 345190.22135611303 5.849937474037021
0.37478284555484487 13.646266396261439 293242.9221165672 6.128461846140321
0.3886884691296085 13.561835451039322 253154.010375248 6.41750401695554
0.40289435522528916 13.486467758586794 216006.39235260803 6.717446313401184
0.41740172964633465 13.419173706397087 184732.02162531248 7.028687093450709
0.4322146168001572 13.359125549203952 158356.92018254392 7.351641385762036
0.44732864133806244 13.305747664528129 136031.60951760778 7.686741561513579
0.46274626384440776 13.258306429515123 117084.43431079794 8.034438040234098
0.47846790421898366 13.216247295433863 100980.30567985403 8.395200031581064
0.49449016502216414 13.179142308013109 87252.65453668406 8.769516315222782
0.5108121203550149 13.146529063511148 75518.2423689895 9.157896061207836
0.5274359939942638 13.11795176226067 65480.232022795586 9.560869693468137
0.5443639098279871 13.093056154369952 56867.75059307449 9.978989799396714
0.5615838591792844 13.07156008434295 49464.305467702274 10.412832088773547
0.5791017151226792 13.053110946258599 43095.61199308343 10.862996405678015
0.5969147027351835 13.03746740475596 37600.6813044693 11.330107797432964
0.6150209635125624 13.024379502763214 32852.583082043144 11.814817645068311
0.6334172926399732 13.013551559878456 28742.925481488113 12.317804860276402
0.6520998896392477 13.004871848101555 25183.323677922228 12.839777154356447
0.6710668638108113 12.998084767898177 22091.262236143983 13.381382057976163
0.6903150972508969 12.993016831932517 19404.083067909938 13.943469268456818
0.7098393487933695 12.989504330280596 17064.72035653068 14.52684579139563
0.7296355922827529 12.987398280114725 15024.376778575384 15.132349923876713
0.749699919760092 12.98655633144803 13243.789003693235 15.760856559870847
0.7700278868997117 12.986817129710303 11688.098949665196 16.413279048518593
0.7906137713898316 12.988071168040921 10325.77064128824 17.090571181185254
0.810793510449289 12.989774105263763 9165.048465103075 17.8023271001127
0.8270008660817969 12.987142654400406 8316.938856958346 18.60277405802522
0.8396720511991478 12.977678310748992 7678.422636194048 19.501166076899015
0.8497244066039827 12.961313920091426 7169.355059815619 20.496987823990395
0.8578087909784998 12.938337541033938 6743.85096915543 21.589862094914313
0.8644138945205316 12.909205292182673 6372.376494314593 22.779246612040147
0.8699301250822618 12.87437845668263 6037.875998282786 24.064606281137564
0.8746287099319275 12.834168712136577 5728.865266242994 25.445774779534073
0.8787633230744956 12.789016421265455 5435.568871584109 26.922641287317493
0.8825389434085066 12.739229862278815 5153.277578185438 28.495312590569096
0.8861121924221811 12.685173735581818 4878.1799145585255 30.164458667598428
0.8896076389173432 12.627226528886169 4607.786668876555 31.93179568429955
0.8931287652306624 12.565733962732969 4342.627937368854 33.799402921742335
0.8967620292606904 12.501003244670189 4081.602234140131 35.76974678571226
0.9006010567079924 12.433440332044803 3825.46852773497 37.845715915943266
0.9046603515180278 12.363243364242438 3574.7075717565667 40.02973846179342
0.9090302203678469 12.290836460333391 3330.084924035611 42.32584845045249
0.9137241486754947 12.216429661343275 3092.8889369302597 44.737586641650346
0.9187855831571813 12.140475125582684 2863.710615285026 47.26991851628649
0.9242178232534951 12.0631827355403 2643.8978126662887 49.92721004338944
0.9300395506634269 11.984957258610379 2434.657852624634 52.71650342181888
0.9362043597604593 11.90609318805286 2236.6687703409084 55.64679272301191
0.9426364277508835 11.82712348855738 2051.621624402699 58.73279962822831
0.9491942243122926 11.748244948216223 1880.5630876178725 61.992283997904735
0.9562408153263647 11.667656024975296 1717.3893151985023 65.38752612080091
0.963942915068951 11.585954812274565 1561.7378470205074 68.91677024362741
0.9723281932735249 11.503926819721036 1415.1048425785395 72.58579362193741
0.9814145618992448 11.422187744308001 1277.5926630661427 76.40230863840915
0.9911691674438033 11.341227610570188 1150.338369007436 80.3726050800016
1.0015596140138654 11.261333552355158 1033.2390276859987 84.50540979625093
1.0125496222782886 11.182792814226081 926.0774607587181 88.80911964413612
1.0240967548090603 11.10577299396607 828.8638059665577 93.29249483217731
1.0361447922602152 11.03049020925362 740.9463702370938 97.96472146852983
1.0486501016447503 10.956940775119312 661.6881472251224 102.83693314558505
1.0615560943070788 10.88521392251197 590.7067691176172 107.91865355571436
1.0748048233652319 10.81529983356545 527.2366985743533 113.22237441954901
1.0883411432720256 10.747159654791133 470.556994859033 118.76010288936158
1.1021214347353507 10.680787474868584 420.0743580465381 124.54492164845963
1.1160820611537186 10.616075591557502 375.26044814901405 130.59103994275017
1.1301710897678556 10.552982097653906 335.4547225719406 136.91321747967987
1.144333101574324 10.491325492488398 300.0927784779105 143.5277116760691
1.1585356809662983 10.431076742073259 268.7399138543368 150.4514703741862
1.1727014028500502 10.372090553808032 240.92457153465287 157.7032681885959
1.1868137500467835 10.314270664372458 216.24856963294 165.30284791961452
1.2007966917928588 10.257457548323115 194.3558878071641 173.27143314252498
1.2146315386340967 10.20164581306999 174.92181156897533 181.6314834164342
1.2282596985505436 10.146527073305613 157.6683547310779 190.4080658159465
1.2416504837170186 10.092162673202775 142.32597033455042 199.62741620804232
1.2547522400897093 10.038375056793436 128.67422136723405 209.31787614588225
1.2675407751390364 9.985079322191945 116.52967454060915 219.51029299573935
1.2799679652657354 9.932111688608247 105.69754447240247 230.23767458160603
1.2919946078730988 9.879344777485738 96.03448097631593 241.5359386960636
1.303615326599101 9.826859995665291 87.39550742158607 253.4433478617687
1.314765125370206 9.774388794388884 79.6778011517324 266.0017584701822
1.3254322887104244 9.721981672166102 72.77330184971493 279.2566525909479
1.3355837701732833 9.66941641756903 66.57573494638666 293.25710582313155
1.345196602388852 9.61659079155489 61.01026137786305 308.0562739220526
1.3542384060407133 9.563702348304401 56.01764908663843 323.71185547657075
1.362686280196622 9.510376706382312 51.52166421070961 340.2869460835
1.3705296552771484 9.456809492865617 47.47236269576342 357.8495858018671
1.3777314896788768 9.402758465315566 43.823149164452666 376.4745847593406
1.3842825354149901 9.348285158544261 40.52740096632657 396.24312222230355
1.3901596117703539 9.293271893129484 37.487970082306916 417.2438912108584
1.3953502510636746 9.237743646622983 34.860972030049574 439.57388272576884
1.3998371227853408 9.181665280396544 32.42260336113603 463.3389590144782
1.403608049554223 9.12494110985762 30.210080730235628 488.6553205496885
1.4066537768165621 9.067633403616984 28.2082597008462 515.6508077376109
1.4089588177087782 9.00973070176237 26.39102290844731 544.4649158657886
1.4105225487113264 8.951134781089626 24.73696735255646 575.2514235942574
1.4113297500830284 8.891960856660207 23.200760642123868 608.179999350356
1.4113835810402455 8.832117886546378 21.870819332418026 643.4367527842697
