M[M_sun], R[km], Lambda[1], P_c[MeV/fm^3]
0.2416277750616976 15.618515526848569 2160321.870080337 3.5677787854173952
0.2522416615603176 15.31405631387942 1767946.9490948552 3.759433216220367
0.26315238045877876 15.045767891136347 1454030.5957375648 3.95841404902824
0.27436120674773007 14.808534994128774 1201266.28988257 4.165058362821111
0.28586804418137074 14.598242497818301 996705.8430018846 4.379657652811548
0.29766955575235715 14.411502098967604 830284.1149567566 4.602367839016457
0.30977117868538634 14.245242915336183 694134.410889905 4.83359958049493
0.32217172916809095 14.096972900778084 582328.2610335252 5.0736502819672005
0.33487064564048774 13.96467696375279 490102.69224430725 5.322830147442601
0.347870104212365 13.846500460973218 413802.1946776483 5.581385854195114
0.3611697476351186 13.74081568809085 350332.26327335165 5.84973182493016
0.37477144697657977 13.646368981420665 297439.7226547988 6.128226874646199
0.38867546284593746 13.561910322512391 253184.71125008666 6.41723782183335
0.4028794412064881 13.486524166938224 213262.55804993093 6.71714690219637
0.4173862223304922 13.419232475083803 184773.4003585559 7.0283523774159775
0.432197726330281 13.359195962267936 158386.26428999097 7.351269174450167
0.44731054699596035 13.305802025443581 136052.29465760177 7.686329557018908
0.46272641561978156 13.25834590189533 117099.99198916242 8.033983831056823
0.4784458810305996 13.216302933483739 100997.96246050773 8.394701086086963
0.49446631407979585 13.179197954056727 87266.55516271245 8.768969974668762
0.5107882676209707 13.146563905510158 75534.70129329259 9.157299532301092
0.527410448751483 13.11798643540056 65495.07065044569 9.560220040424836
0.5443330706134679 13.093098147322534 56879.823093333966 9.97828393546305
0.5615528940811679 13.07158868870747 49477.463959549445 10.412066767169735
0.5790695012278364 13.05314674947845 43108.44430456602 10.862168209922261
0.5968811148341137 13.037493173800067 37611.13539091148 11.329213130999891
0.6149855126481408 13.024372789348234 32861.89417582217 11.813852720332488
0.6333796510463543 13.013569555894449 28750.493034090112 12.316765686687946
0.6520606358478561 13.00487432091978 25190.407551787102 12.838655375771046
0.6710247967672095 12.998092194817282 22097.702088146114 13.380173325750313
0.6902708504990183 12.993013958228888 19410.15676395971 13.942172448557903
0.709792674193882 12.989515037545603 17069.61190625766 14.525455924416205
0.7295874152991703 12.987401466588766 15028.712292692497 15.13086177387575
0.7496497004426576 12.986548619005227 13247.826691956914 15.759264596533674
0.7699754063741923 12.986803437767868 11691.71150556607 16.41157742804236
0.790558507046886 12.988075639171067 10260.024694726859 17.08875372579309
0.8113922256391477 12.990221171046928 9135.223607036363 17.791789494561474
0.8324730207838555 12.993124995895949 8087.48254903801 18.521725564357595
0.8537905209400777 12.996711829909282 7167.922136300804 19.279650033741177
0.8753391781363593 13.000848184352364 6358.843659222619 20.066700892940514
0.8971123208443178 13.005470132209112 5647.154573977997 20.88406525108408
0.9191006838968262 13.010460558303324 5019.52051402392 21.7329474915677
0.9412976799111029 13.015752072572488 4466.06373187697 22.614713510271034
0.9636913707331882 13.021248547915079 3977.784150609096 23.53073418674018
0.9862738303902295 13.026899156273057 3545.626388759074 24.48244690372969
1.0083886115208458 13.03212238360157 3172.745896446754 25.482466302651062
1.0267840201539398 13.03255847528056 2888.935996270655 26.592523764839896
1.041772933265684 13.026398993416807 2666.688604534344 27.8240957492334
1.054089559432915 13.013580217341628 2485.242739007024 29.1779401869798
1.0643083720435544 12.994461713619964 2331.5828482749807 30.654778146402947
1.0728600323547735 12.96934740095922 2197.322890427848 32.255537020548715
1.0801133138176857 12.938736750000835 2076.9192419266274 33.98150751588377
1.0863377261650957 12.902988767694017 1966.4548649407006 35.83410869216566
1.0917614118098826 12.86243711461075 1863.5763338607267 37.81544795135556
1.096599394641437 12.81747342039271 1765.7013896746596 39.92724919509421
1.1009916675790463 12.768348414245942 1672.1837756272835 42.172021680886516
1.105091923086118 12.715400043923733 1581.9586821639105 44.55277125800376
1.1090009420620703 12.658968002872806 1494.4652669553263 47.07385780076911
1.1128078416753113 12.599326655347902 1409.4855620652174 49.74017841302823
1.1165776480409044 12.536744500391208 1327.0688787269912 52.55720431630825
1.1203628299746757 12.471461675607689 1247.087828784333 55.53063415363724
1.124231435533922 12.40377208695047 1169.501585964045 58.66680588277077
1.1282120275687366 12.333902457274206 1094.4266240314655 61.97310300217619
1.1323265608522937 12.262067301452163 1022.2746724276432 65.4574998296479
1.1365996284130635 12.1885560590035 952.8076031249972 69.1284905332653
1.1410345744380568 12.113604457994267 886.5442321819415 72.99738643087665
1.1456005461154153 12.037477477813749 823.6942004697516 77.07884947387623
1.1502030672540022 11.960635536908043 764.6635118301216 81.39754429908962
1.1547507515127515 11.883001604073112 709.4496921137156 85.97140613431269
1.1596066547179487 11.802990895467115 656.1320494436764 90.75249926200024
1.1648982277290847 11.72143332880017 604.8730169375305 95.74737300949775
1.1706553693534594 11.638897787339795 555.8734253989513 100.96850674711445
1.1768748177640327 11.555889894976499 509.5864120458122 106.42894607534029
1.1835488988268665 11.472762431273258 465.98972604224815 112.14248637105254
1.1906460026279253 11.389828897919017 425.30489341409816 118.12414709475026
1.1981227482786776 11.307274963520243 387.4974387082318 124.38905047418965
1.2059469074041695 11.225292595918477 352.5917210534598 130.95541256848787
1.2140613882719948 11.144004176164284 320.471119927253 137.84027747753547
1.2224242814887156 11.063554688553738 291.09538649087887 145.06408250049827
1.230975460946325 10.983919448156493 264.24271513378875 152.64785084501565
1.2396686246152897 10.90518988872271 239.84974724048493 160.61380738067174
1.2484486350632773 10.827356301630706 217.69242959494332 168.98675660360277
1.2572633792376113 10.750407993630736 197.61998824115906 177.79272409974413
1.2660607095078789 10.674325274962284 179.46433955091996 187.06021771647687
1.2747915881754348 10.599054781359754 163.07259955788632 196.81964359863656
1.2834058428243416 10.52456312499799 148.30200222114405 207.10415160549846
1.2918558717277715 10.450777216712606 134.96528133400508 217.94893112088448
1.300098445060454 10.377667675245094 122.96139068812127 229.39305089262155
1.308100332720258 10.305164410829754 112.13931796471012 241.47783700548374
1.3158013203189858 10.233184067684348 102.4114303456452 254.24845223071074
1.3231593369052337 10.161584704012226 93.63755712457619 267.7542244807581
1.3301651847179456 10.090494400610911 85.73980184428433 282.0480551119195
1.33675038871642 10.01965194944835 78.62029139207824 297.1879621425744
1.3429027085384104 9.949079993987715 72.20199328586213 313.2366876882585
1.3485837462873613 9.878727001213003 66.42077720212906 330.2629440150402
1.3537649510930412 9.808506200765507 61.19653696847846 348.3406896117574
1.3584184234771466 9.738348358326416 56.483656917332546 367.5518893941917
1.3625179963884697 9.66821575178406 52.22034616853674 387.9853287086435
1.3660386137618867 9.598055405310499 48.3704748476277 409.73793044222003
1.368971385372454 9.527910659243885 44.885579281902025 432.91634784232167
1.3712903876615423 9.45765893673869 41.72852088847565 457.63672522192195
1.3729732460817106 9.387259585711794 38.86482318831979 484.0269837733664
1.374011262695182 9.316748856789003 36.278360958540404 512.2276944215005
1.3743900386576624 9.246067066383311 33.926706506362635 542.392892241543
