M[M_sun], R[km], Lambda[1], P_c[MeV/fm^3]
0.2416277750616976 15.618515526848569 2160321.870080337 3.5677787854173952
0.25223917041520183 15.314108334823015 1768042.6463068086 3.7593845755528883
0.26314679268790425 15.045894483163002 1454190.054978787 3.9583135205919793
0.2743526134581476 14.808706437778541 1201485.7523510824 4.164901317688357
0.28585501242871697 14.598505821092992 996911.3021818183 4.379441433077941
0.29765527632300826 14.411697495543807 830444.4786234694 4.602086589471257
0.3097537249820948 14.245438650167209 694279.0538758424 4.833248508398394
0.32214959244377867 14.097224145082427 582485.9081715407 5.073224374766376
0.3348462409858948 13.964888821748948 490254.73294089606 5.322324161169588
0.34784147701939927 13.846733791676197 413948.16470450663 5.580798929697997
0.3611367408372395 13.741054348135114 350478.22076698765 5.849054278113472
0.3747339804967785 13.646587810302192 297580.19209257164 6.127452728233513
0.388632572001472 13.562167751018055 253311.79111581558 6.416360813921623
0.4028334492430605 13.486748869706307 216154.11610412496 6.716160470540963
0.41733634928235663 13.419450275480225 182571.4255252784 7.027249642707873
0.43214113656025493 13.359419600668168 158477.869537719 7.350042922513903
0.4472502971290295 13.305976886285512 136128.13023266476 7.6849722198531
0.46266124778441464 13.2585457732554 117183.93761467516 8.03248746663354
0.47837486162792153 13.216478603435718 101066.82186415177 8.39305735681933
0.4943908207377016 13.17935825213785 87334.39448956051 8.767170124448818
0.5107065414593955 13.146710760489873 75587.60439005804 9.155334362003178
0.5273225601168219 13.118121191905574 65542.45495916155 9.558079881761037
0.5442395448878045 13.093227509212586 56922.23430764482 9.975958623069378
0.5614538826235985 13.071701315336606 49062.87104107902 10.409545608792344
0.5789653567836368 13.053239036140024 43143.77427724536 10.859439954563328
0.5967702334643263 13.037578882369148 37642.971455101906 11.326265934872474
0.6148671818331982 13.024455325675957 32890.08520364565 11.810674110462376
0.6332547691503756 13.01366505637364 28776.225021008235 12.313342521988565
0.6519294660334746 13.004924856719267 25213.898695382097 12.834948394570457
0.6708880800761425 12.998122876987965 22117.161123422302 13.376191694209027
0.690126856099006 12.99305617077191 19428.372437153983 13.937900691404163
0.709641634251923 12.9895361396005 17084.91955199951 14.520877710781276
0.7294288889405718 12.987406650043503 15044.313172729371 15.125959862470785
0.7494841569168516 12.986542592829117 13261.502452981138 15.754020776925502
0.7698028458716505 12.98680598778827 11704.15406454051 16.405972457734528
0.7903776835116332 12.988061275350875 10339.658372168824 17.0827672627948
0.8112050360340971 12.990201927532752 9145.436550539012 17.78540002510117
0.8322754646857399 12.993115117864775 8096.208802883029 18.514910325370124
0.8535874330304021 12.996670495301254 7176.044088552836 19.27238492972669
0.875129731919382 13.000800231734067 6366.045834773311 20.05896040675925
0.8968950508067943 13.005405742272366 5653.70773898074 20.875771164510198
0.9188762434103495 13.010395612923318 5025.482088035471 21.724119619498804
0.9410654924965819 13.01569210729993 4471.616618154335 22.605321353374805
0.9634510452265628 13.021190693564655 3982.656249941327 23.520745390916893
0.9860264745744145 13.02684347188606 3550.1003887090983 24.47182713222891
1.0087797670077903 13.03256202275264 3167.6076442390604 25.46007242245924
1.0317007780815934 13.038274482049738 2828.698366910376 26.48706193790238
1.0547797469222215 13.043923069966933 2528.2621739052397 27.554455914599757
1.0780029048894724 13.049451876137248 2262.020066852522 28.66387949226227
1.1013597434807152 13.054772366017717 2025.3080648358134 29.817247535105402
1.1248378267773746 13.059845392580286 1815.0588350181552 31.01648677136469
1.1484212575468153 13.064616626331716 1627.6534531067234 32.26362603892469
1.1721012542493834 13.069011455959458 1461.1765427224161 33.560803312672085
1.1958617477245497 13.072991081486254 1312.9118439744711 34.91027315473432
1.2196865424209178 13.076499724448825 1180.4029764888044 36.314343726552785
1.2435628241341248 13.079486673410115 1062.3506028392126 37.77520403859912
1.2674711052233565 13.081904010851089 956.7044688732537 39.295827064713066
1.2913985782416377 13.083708766132412 862.370684294633 40.879014296501296
1.3153276021968452 13.084847973677444 777.9121037444054 42.52721236924544
1.3392427146396397 13.085269896683931 702.3670174516539 44.24382529177683
1.3631245855032301 13.084951681521082 634.6208390968088 46.03211961340978
1.3869548822794433 13.083831632728575 573.9348053085298 47.895094334058314
1.410715875486011 13.081878210289535 519.3970525050363 49.836889440168584
1.4343898528265377 13.079047771481958 470.48179242038043 51.860744554595165
1.457954943470268 13.075308009739818 426.456458849628 53.971088823244024
1.4813945103106159 13.070613500894487 386.8830573561111 56.17217233745126
1.5046850727687404 13.064925357917998 351.2747478630826 58.46802076107416
1.527808946541439 13.058210673158078 319.2058944926549 60.863903352514875
1.550745097823027 13.050436775237792 290.30167268218133 63.36480308663641
1.5734713705814467 13.041566140058123 264.236472096526 65.97602406534054
1.5959663077205077 13.03156114332154 240.6926334139476 68.70321748644596
1.618204467399074 13.020386780665309 219.430127814743 71.55240981954516
1.6401788566374982 13.00803834136321 200.21146242474833 74.53003339173407
1.661851044849969 12.994455637324288 182.82233527215283 77.64295960891862
1.6831985360759216 12.979610016857615 167.10412204681757 80.89934563424744
1.7024112883048315 12.963057886846101 153.8199452723248 84.41264946759631
1.718050939472546 12.942633401690522 143.089220859999 88.2872822309829
1.7304995355229216 12.917352321385511 134.18571013579754 92.53677276962658
1.7401552164874743 12.886913670599013 126.6327206294157 97.17456164816406
1.7473731366521223 12.851344878733611 120.1132805692172 102.21567861784378
1.7524770664529978 12.81075131361222 114.37414736565593 107.6764555066834
1.7557096763599382 12.765248410706056 109.23060627407396 113.57452261351162
1.7573246070600597 12.71512240787773 104.54043801198736 119.92929869678349
1.757515034267383 12.660560433379226 100.23573460444165 126.76201535247891
