M[M_sun], R[km], Lambda[1], P_c[MeV/fm^3]
0.2416277750616976 15.618515526848569 2160321.870080337 3.5677787854173952
0.2522416055532565 15.314045977335534 1768014.1728262706 3.759432290998379
0.2631521082056595 15.045756440129669 1454026.5710586344 3.9584121368023713
0.2743611746768451 14.808541388517948 1201228.8103707817 4.165055375523063
0.28586642863167666 14.598303196560902 996736.095061975 4.379653539864889
0.297669248394389 14.411495809845295 830297.2163559288 4.602362489022763
0.3097710929616651 14.245212769293518 694118.046471788 4.8335929022645265
0.32217077653910253 14.096997729439257 582318.5663402821 5.073642180127069
0.33487025280875404 13.964739876414765 490129.3399915397 5.322820522215613
0.34786938825175445 13.846462750944731 413780.5264950913 5.5813746892183556
0.3611696206675038 13.740804581203445 350333.9588142454 5.849718935955813
0.3747707927515927 13.646350919305545 297442.283313251 6.128212147941346
0.3886746739862245 13.561924781782967 253188.56698894952 6.417221138248218
0.40287843366939574 13.486530392651156 216051.3777142317 6.717128136865238
0.417384507567507 13.419244716226741 184763.2907148895 7.028331399438894
0.4321967134803331 13.359195410282412 158389.74321272352 7.351245846554147
0.447309111893777 13.305808211785283 136057.63296271622 7.68630373519707
0.4627256647664625 13.258351162035153 117106.8632983864 8.033955364183885
0.47844429088546286 13.216327290772245 101005.52071259021 8.394669815509436
0.49446589165618837 13.179192708562134 87272.74186376238 8.76893573376786
0.5107866916146693 13.14656157762375 75534.88765960382 9.157262146026508
0.5274098179588278 13.117992954025246 65497.617602184546 9.560179324797103
0.5443313497061152 13.093119665580366 56881.34057020509 9.978239697042248
0.5615509925453162 13.071602214490099 49023.67669078398 10.412018802487987
0.5790674153699041 13.053146661934173 43106.98922170792 10.862116304877441
0.5968788126217588 13.037496582230355 37610.05824454321 11.329157060207555
0.6149826438904306 13.024377782220085 32584.334772485203 11.813792246433046
0.6333772864214825 13.01357080445011 28750.97269223992 12.316700559605804
0.6520575685961341 13.004898448617336 25190.273793797067 12.838584848398735
0.6710225999278971 12.998086683893328 22097.644566269955 13.380097572466765
0.6902681495682939 12.993014294160915 19408.923518129213 13.94209117486044
0.7097897246168559 12.989505241295632 17069.620734462773 14.5253688195172
0.7295829158569456 12.987409745774384 15028.892187406153 15.130768509659124
0.7496464505616858 12.986540530763898 13248.152902096748 15.759164826437026
0.7699720922180903 12.986802572841412 11691.93036149501 16.411470785859137
0.7905550595355868 12.988075703987432 10260.239857912211 17.088639824389084
0.8113886489343181 12.990213924378478 9135.472767161235 17.791667924498668
0.8324686429654661 12.993128088192135 8087.489521195164 18.521595892418546
0.8537866173369404 12.996709675452294 7168.209998683441 19.279511801346327
0.8753351681253516 13.000849956602972 6359.078699621525 20.06655361444993
0.8971079946468495 13.005453337701313 5647.14459189986 20.88390743790399
0.9190970415800407 13.010445424705784 5019.620454345402 21.732779520742156
0.9412932353179064 13.015744693969738 4466.228931932139 22.61453480132341
0.9636867161615986 13.021253903527864 3977.8280068806203 23.530544123887708
0.9862688011028825 13.026900309199068 3526.216560671956 24.482244833448622
1.0090298622584908 13.032628714922136 3163.4031696982465 25.47114485495201
1.0319542088350295 13.038356917283256 2825.001274527583 26.498827089585358
1.055043789851532 13.043991873193887 2525.182687455125 27.566882876871624
1.078274725432474 13.049520694157453 2259.1048010170844 28.677078759507992
1.1016402036755095 13.054836674770307 2022.6751960714662 29.83126472131128
1.1251244640238596 13.059904627332044 1812.513600266019 31.03137028142223
1.1487164405644594 13.06466605680246 1625.6625966173392 32.27942740377403
1.1720079339511036 13.068807909086152 1461.771557974015 33.58641541001433
1.19136738251036 13.068324214500334 1336.0223188325908 35.0372910365193
1.2067124448249213 13.060912066883423 1238.6626692850118 36.65684192148744
1.2188526111879148 13.046304180542371 1160.357288420573 38.446150159918716
1.2284770428361882 13.02504146266749 1094.444532940345 40.407092368007106
1.2360759143024873 12.997407956789539 1037.615593342366 42.54155904480242
1.2420479105735078 12.963848002019535 986.8999413130391 44.85175171713956
1.2467268900611268 12.924840509288284 940.6999928096728 47.34037879924362
1.250376806566207 12.880718382005707 897.4908314549256 50.0107574268673
1.2532119993218456 12.831817773867536 856.7967985779483 52.86633769664237
1.2554158269305127 12.778405974751823 817.5927690862245 55.91093481689924
1.2571536463658337 12.720901475975303 779.5303234154728 59.150093420109854
1.258535669120979 12.65957395516062 742.47933091077 62.59141277647173
1.2596611219547942 12.594690671516057 706.2771307727497 66.2427926032761
1.2606212856559689 12.526601975480512 670.7827967888138 70.11297725091929
1.2614703386236836 12.455484961297296 635.9703762437183 74.21167025231293
1.2622673484000888 12.381599905924043 601.873888383866 78.54879326471497
1.2630640620945641 12.305212755991171 568.6235875873206 83.13740290920467
1.2638897834136902 12.226648049938726 536.2035842879683 87.99062718828536
1.2647511517792334 12.146184765089155 504.8578707810808 93.12854920504684
1.265565728540677 12.064466708755491 474.86367607034015 98.58835830281609
1.266284233699662 11.981058211163157 446.2314920385558 104.38065449222644
1.267214147914419 11.894408578491168 417.9033761343803 110.44602367858968
1.2685354364905894 11.805550078189333 389.9526311759286 116.79814832086413
1.2702725605895893 11.715100467985799 362.69886608363976 123.45566323188532
1.2724694062241568 11.623602016801685 336.3468061405147 130.43564887643726
1.2751084115131728 11.531487528568857 311.040582310467 137.75883496990798
1.2781842923198197 11.439147338660062 286.96435710014566 145.4465074927427
1.2816458827543087 11.346761667218196 264.150090672468 153.52105079493992
1.285460050180927 11.254591439200523 242.7597618817523 162.00766711837372
1.2895898320467312 11.162884858326244 222.77007085424722 170.93258228703675
1.2939770630015799 11.071724183487872 204.1709969456329 180.3246767065657
1.2985701254035393 10.981220967620493 186.9989151592757 190.21467506128008
1.3033186561722485 10.891448546742767 171.14570692021445 200.63611350191613
1.308163993756807 10.802482755878804 156.5822440460719 211.62448837589108
1.3130588506163272 10.714363263167577 143.25058568767136 223.21938278280794
1.3179448253667534 10.627051298010281 131.0820330559149 235.46252246051387
1.3227727892835754 10.54055122006489 119.99150889458356 248.39955167066776
1.32748825475217 10.454881877303754 109.87693724320332 262.08035947675245
1.3320417079770355 10.369961138200168 100.70116826361503 276.5583535233435
1.3363960771784587 10.285813396918591 92.36501969750927 291.8922062275707
1.3404973745751507 10.202357421462203 84.8089062098565 308.14530094677474
1.34430172842634 10.119531978753102 77.95433519292543 325.387090284774
1.3477801909729634 10.037350040947771 71.75211084083995 343.6922125270643
1.3508819724537455 9.955714965396952 66.12913203482718 363.1435509215299
1.3535887582760204 9.874606059286796 61.03832332808154 383.8307848660248
1.3558454591537112 9.793916691020772 56.419488783499574 405.8517786425592
1.3576401771314028 9.713717531826147 52.249786216142404 429.31430400795983
1.3589417745227719 9.633818263802306 48.46061325543045 454.3356295017949
1.3597227118274235 9.554303862194235 45.0375494578451 481.04495685097737
1.3599658775674006 9.475136085546627 41.928227014787126 509.58425001218427
