M[M_sun], R[km], Lambda[1], P_c[MeV/fm^3]
0.2416277750616976 15.618515526848569 2160321.870080337 3.5677787854173952
0.25223820676078046 15.314132928121184 1768180.283857426 3.7593656371938327
0.2631447710688195 15.045955842543329 1454244.641756969 3.958274380098005
0.27434894907542295 14.808810521115065 1201343.1846524838 4.16484017332094
0.2858505906248388 14.59856040931065 996913.1799211374 4.379357250523873
0.29764955831268997 14.411798347220113 830520.1911718962 4.601977089660086
0.30974507280554225 14.245547213539478 694347.5563558281 4.833111825968275
0.322141230420645 14.097312557319075 582567.6043677635 5.073058558832227
0.334835461392815 13.965009863954894 490364.5358251921 5.322127170809394
0.3478294121538304 13.846794564499234 414001.6626960179 5.580570430993121
0.3611248355213717 13.741124427969662 350523.92520448903 5.848790501729402
0.3747182679554415 13.646708851545093 297622.7139601016 6.127151347939169
0.38861625120685683 13.562261988558241 253348.1041603772 6.416019392746937
0.40281544914082484 13.486846444547124 216195.00835474307 6.71577645466333
0.4173167613209764 13.419534357845686 184903.28977188678 7.026820354946569
0.4321191609332305 13.359505831666553 158521.60100574885 7.349565555404536
0.4472263594185139 13.306079548635973 136164.69963979014 7.684443828272055
0.4626350307309084 13.258619994721093 117204.18986118515 8.03190495993965
0.47834672536547584 13.216558193737193 101096.63605657151 8.392417490477436
0.4943610384211229 13.179420548598097 87351.05088735731 8.766469491097432
0.5106747137286904 13.146770560825113 75610.46340515034 9.154569381925134
0.5272895901276982 13.118201764999725 65562.05778257246 9.557246792713297
0.5442050373868124 13.09327906841231 56939.52284826793 9.97505346942483
0.5614156333163082 13.07174228848992 49532.04688563858 10.408564229942357
0.5789248370280413 13.053275739694628 43157.17248883233 10.858377972527103
0.5967255481512141 13.037620355193322 37654.78370768989 11.325118741054137
0.6148208765014249 13.024486836541035 32900.31096536125 11.809436851493002
0.6332068448897964 13.013661502950535 28786.108237774635 12.312010084585257
0.6518782585244908 13.004947737180789 25221.433521785984 12.833505500475729
0.6708343346158826 12.99814012379433 22126.490370462565 13.374641911588899
0.690070785151662 12.993065583765414 19434.55148073586 13.936237998944085
0.7095818873705657 12.989544381819412 17091.33638196731 14.519095754330293
0.7293682861856938 12.987401139419356 15050.148213102157 15.12405193371846
0.7494206803367006 12.986542559466205 13266.980796576116 15.751979790561764
0.7697353556025739 12.986791821977842 11708.582654495283 16.403790926978644
0.7903081876796874 12.988047909572158 10344.203527866719 17.08043727316952
0.8111321244260081 12.990192809366592 9149.328717372615 17.782913206319208
0.8322023745180336 12.993091181426422 8100.7763244138405 18.512257821188324
0.8535085348324272 12.996652862551624 7179.188070511914 19.269557365611746
0.8750473294905682 13.000788278263919 6368.846746299914 20.055938108468006
0.8968099627801919 13.005391686944774 5656.265938879297 20.87254319307098
0.9187885231783789 13.010383431904799 5027.821099635916 21.720683939291852
0.940973564447363 13.015673393050541 4473.538819613115 22.60166609901371
0.9633573393413535 13.021165776516 3984.6324585422253 23.51685797559825
0.9859305380795911 13.02681196177294 3551.9089785241576 24.46769419800245
1.0086806473651655 13.032531334181678 3169.1316125802673 25.45567978675764
1.0315990422446293 13.038253935081586 2830.1119677207516 26.482394536025044
1.0546741084354578 13.043901948064496 2529.5577105506077 27.549497737818637
1.077895063383773 13.04942308358587 2263.1982015735675 28.65864325616999
1.1012499542164769 13.054742480788876 2026.3932754548887 29.81168688381956
1.1247236087387031 13.05982067422512 1815.8661389887952 31.010582510153103
1.1483058484069415 13.064584004422395 1628.7091289833766 32.2573577337218
1.1719831279315231 13.068988310154982 1462.0077568121062 33.55414920041646
1.1957407364856614 13.072965271101644 1313.6277191557197 34.90321004659834
1.2195621104256709 13.076481418094527 1181.1561321679806 36.306885899950764
1.2434345363729387 13.079477438465737 1062.951275835456 37.76728804865598
1.2673418780935681 13.081889229312294 957.288406238935 39.28742487732504
1.2912668391305921 13.08370132017174 862.8502066646137 40.87009598619325
1.3151943250527656 13.08484398663709 778.3753143732633 42.517792384071385
1.3391056128526482 13.085273129796265 702.7697122561601 44.23382536435636
1.3629863936622473 13.084953120555685 634.999934136441 46.02155357104504
1.3861266696365542 13.08341867487352 575.7051391149143 47.90449692206076
1.406580944763677 13.078437203252141 527.0690194208636 49.949079389643735
1.4245310693694861 13.068914710736703 486.22029298835486 52.16374780529713
1.4403282651681146 13.05461641239471 451.2175938749611 54.553057407973334
1.454288016239486 13.03562979244914 420.67900219496715 57.121706798778206
1.4666788001622169 13.012073115987233 393.4816742366021 59.87475437490878
1.4777114289385225 12.98409287930725 369.013521589024 62.81778520930138
1.487578010622793 12.951912506838147 346.6582960290318 65.95703932218467
1.4964581472854444 12.915818708742911 326.09117045072384 69.29921802016212
1.504482952405793 12.87597784504424 307.01866109107954 72.85190839850308
1.5117785433318496 12.832610798219813 289.11054166716286 76.62304287599588
1.5184356477308985 12.785916447426533 272.3539477314939 80.62161276305619
1.5245635042536345 12.736123480372196 256.47802215108004 84.85713276717942
1.5302256309454283 12.683381281994976 241.485710638331 89.33981690602224
1.5354906429704542 12.627894302514463 227.26194347565618 94.08112240043519
1.5404173071340674 12.569867112906085 213.73219756462387 99.09364275429928
1.545040007618432 12.509459674848259 200.93686566303842 104.39193747774267
1.5493896887340841 12.44685015323985 188.73298903433408 109.99131730640336
1.5534938336102855 12.382180417078553 177.17047663071432 115.90835932106987
1.5573725891262815 12.315598876239076 166.2067240693125 122.16039273692724
1.5610396187118671 12.247249199876206 155.8303274138425 128.76729448605911
1.564503806561197 12.177270605204205 145.99586727321125 135.7490750968308
1.5677790034207324 12.105765991525951 136.71818233092344 143.12849122089668
1.5708503014357336 12.032860486731893 127.9532144907857 150.92976916437658
1.5737218402370583 11.95864889862785 119.68659433300314 159.17908186805798
1.5763915441403475 11.883292745795638 111.93145539440961 167.90687214584582
1.578819961455347 11.80687952797367 104.64508446498218 177.14885256389007
1.5809529528357378 11.729765248754116 97.87033321726275 186.959291273851
1.5828330669425696 11.651230976022092 91.48519344040328 197.3300182687388
1.584552881974091 11.57135271701848 85.45345806933682 208.274908886461
1.5861401468401448 11.490434286821278 79.77213290905497 219.83526247593267
1.5875972687430797 11.40878304057985 74.42404958930533 232.05442759019505
1.5888992240383866 11.326446769861978 69.411350755023 244.9799129531656
1.5900129245816685 11.24363508929815 64.72902131160639 258.6637605914429
1.5909201774546582 11.16041874173296 60.36138175592591 273.16248158938055
1.5915782668315945 11.076896956353973 56.30204633863276 288.53726603463787
1.5919584282370178 10.993108430263545 52.53192034160961 304.85496102242803
1.592038364545332 10.909166314286523 49.04760341222909 322.1889713377101
