M[M_sun], R[km], Lambda[1], P_c[MeV/fm^3]
0.2416277750616976 15.618515526848569 2160321.870080337 3.5677787854173952
0.2522388485996771 15.314126901665128 1768200.452054482 3.759379617261099
0.2631462892435093 15.045888020348398 1454224.6365153329 3.9583032731099923
0.2743528512400624 14.808707825121273 1201470.929061199 4.164885309269668
0.2858543595994894 14.598479086219774 996879.7018904558 4.379419392897122
0.29765376847950675 14.411724983872979 830501.0532664816 4.602057920803814
0.30975175459519994 14.245454865881829 694257.0228293147 4.83321272283192
0.32214798788651366 14.097236597655373 582508.948093029 5.07318096149414
0.334843464388687 13.964971734876361 490302.4816390934 5.32227258580858
0.34783760321720103 13.846774711090344 413973.6240501929 5.5807391047921
0.3611324994529751 13.741148489481812 350501.61130913533 5.848985216740743
0.3747296725101967 13.646623049360135 297590.89667764056 6.1273738213024185
0.3886286444772723 13.562191601984987 253320.48881922907 6.416271423343404
0.40282828735265214 13.486779288856255 216157.1984617226 6.7160599276287645
0.41733094474535304 13.419449645563642 184869.93967575507 7.027137246473311
0.4321365664367166 13.35942274856212 156599.7720754931 7.349917937853373
0.447243286914003 13.30600627287395 136135.66946201792 7.684833875616602
0.4626544231582362 13.258555003732058 117188.04876045 8.032334953566806
0.4783673421193158 13.216502155396244 101076.98058955466 8.39288982537036
0.49438305939789456 13.179374510473098 87340.14586048988 8.766986682428994
0.510698187721818 13.146733661902735 75592.56560646484 9.155134072091714
0.527314494538091 13.118129754697938 65548.44834734351 9.557861758841968
0.5442308677984526 13.093235561583862 56928.0568670193 9.97572163138804
0.5614438435649578 13.071710851325626 49519.716578124964 10.409288658918587
0.5789546424141516 13.05326136654271 43146.77605460476 10.859161900146818
0.596758768325867 13.03758742870608 37644.77655206398 11.32596556917478
0.6148550248366377 13.0244809486508 32892.743336577565 11.810350162649621
0.6332425514780012 13.013646710394497 28777.797997910064 12.312993653166417
0.651915509835516 13.004950448936011 25216.453079815274 12.834570604253
0.6708730919982616 12.99813239526549 22120.707530278007 13.375785916623297
0.6901123262639193 12.993046075945761 19430.34588465816 13.937465349879458
0.7096267296306992 12.989531975514517 17086.870355126226 14.52041114149048
0.7294130555237522 12.987413491105691 15045.565294874646 15.125460308846538
0.749467387769559 12.986539056050816 13262.816997907286 15.753486383678936
0.7697852142315063 12.9868054741341 11705.40934615342 16.405401264447182
0.79035938808058 12.988060060702503 10341.166736023966 17.082157197050726
0.8111859478620876 12.99019950807257 9146.455034421699 17.784748895124746
0.8322569833182382 12.993104950479067 8098.029007134509 18.514215812131802
0.8535669584332856 12.996674438453976 7176.908973272185 19.271644578475357
0.8751081861851548 13.000797150870628 6366.727292356292 20.05817161793732
0.896872570544719 13.005401515247586 5654.301474985703 20.87492596934717
0.9188534193832341 13.010402585624153 5026.191464875705 21.72322003706577
0.941041694482518 13.0156838380809 4472.10990493288 22.604364276650088
0.9634265079589858 13.021190239998601 3983.123904310789 23.519727523963063
0.9860004733158946 13.026836797031873 3550.5547685095553 24.470744977169453
1.0087538161442877 13.032555421349999 3167.9016307588545 25.458922265475753
1.0316744910793147 13.038267950704832 2829.146508892534 26.48583983417219
1.0547513877933923 13.043918374090126 2528.6078588795176 27.55315767208697
1.0779757327297346 13.049439533236725 2262.338949470343 28.66250844057763
1.101332033887275 13.05476825244197 2025.6339585016754 29.815791535598112
1.1248078340054877 13.05984010449592 1815.1722314702524 31.014940797673574
1.1483924959042904 13.064603775889852 1628.0554129242373 32.26198474013908
1.1720707729988828 13.069000943260255 1461.424853228291 33.55906098985049
1.1958298376591718 13.072981877205594 1313.0837767748747 34.90842373556117
1.219653712489267 13.07649956725587 1180.646058851623 36.312390949696805
1.2435280127740234 13.079489988786321 1062.4878552373702 37.77313129018533
1.267437407062197 13.081901657877696 956.8647507904734 39.29362700355781
1.2913635559692722 13.083710862092039 862.4787990858957 40.876679086108844
1.315293995585821 13.084840077786717 778.1213732154441 42.52474579303117
1.3392070392864956 13.08526949834065 702.4832450131852 44.24120685410684
1.3630883075983875 13.084948368611213 634.7428190958577 46.02935293517949
1.386918451138285 13.08383552995474 574.0135163688603 47.89215672866486
1.4106788958114935 13.081883022021842 519.4635503871478 49.83378427775565
1.4343523194256875 13.079052928326254 470.54397112336534 51.857446672997376
1.4579166175956453 13.07531608144101 426.5140997089356 53.967601235040604
1.4813562772083226 13.070619466750262 386.95732020160773 56.168467073072414
1.504646772577575 13.064932173755981 351.3276968979211 58.4641003460325
1.527770058396778 13.05822102641216 319.26397053066773 60.85975394418106
1.5507059712116735 13.050450074825529 290.3349669038134 63.36040983698589
1.5734318363004536 13.041581382687857 264.27830134296295 65.97137104027092
1.5959274151035594 13.031577882460013 240.7343050026787 68.698287577859
1.6181655940943727 13.02040617260488 219.46786931880587 71.54718464947078
1.6401391741367657 13.008063230404 200.24455005205172 74.52449320769533
1.6618116967968768 12.994481476178194 182.85695084536079 77.63708316964886
1.6831653514391802 12.979642474885424 167.13251758466893 80.89229951440878
1.7041783348632957 12.96352217300693 152.88534336850225 84.2980015457556
1.7248288875761488 12.946084858418965 139.9593255217615 87.86242998243284
1.7450901326039843 12.927308291806076 128.24384141666573 91.59396894472917
1.7649453349453965 12.907162709160072 117.62324130120143 95.50285524169279
1.7843666324053318 12.885623364193096 107.95998748013834 99.59816944821442
1.8033333731977739 12.862666592263071 99.19254322407177 103.891465530173
1.8218220077196694 12.838267156195643 91.20973789540271 108.39410487442878
1.8398110954636138 12.812401490866716 83.94902172529316 113.11814353176533
1.857274958241319 12.785048545290657 77.33885424228552 118.0768752984503
1.8741954134930796 12.756191849547179 71.31547136379872 123.28462658202231
1.8905459129636528 12.725804047471486 65.81878702578086 128.75628692771105
1.9063063639131435 12.693871174709185 60.810499503563584 134.50841615060125
1.9214545794628797 12.660373636826048 56.23391652390255 140.55883767681553
1.9359708104449092 12.62530194247231 52.05739868307657 146.92594934904665
1.9498298292991134 12.58863802790803 48.23883852966289 153.63073857646526
1.961793698084055 12.551198587165342 44.95618932833233 160.89403136359812
1.970444769444633 12.511953077683664 42.31322127398438 168.9620019745025
1.97587010452609 12.469419358667789 40.148922268717826 177.88764336343135
1.9782741831647976 12.422839692667225 38.360511472085314 187.72718775071218
