M[M_sun], R[km], Lambda[1], P_c[MeV/fm^3], rho_c[fm^-3]
0.23848912294887037 16.21570186450063 2784644.0411725277 3.4469561053153734 0.1694538074003404
0.2484576546631343 15.873347570443972 2286241.735479345 3.6322799949231594 0.17192862271418913
0.2587174681741936 15.570182900090522 1885399.8416484178 3.816456371788597 0.17421122169141495
0.2692638560099352 15.301128882113037 1561950.7779071038 4.01213248104385 0.17661024728376162
0.2800860959834472 15.06166146784477 1299118.4119783237 4.215903171827325 0.17903917350213944
0.2912027321499081 14.847539492961937 1084526.7940287653 4.422283410714882 0.18136547099389072
0.3025969555546896 14.656191928005075 908584.1025713355 4.643596940548801 0.18386009505343442
0.3142729505392589 14.484458071338326 763702.4444236328 4.865728768641239 0.18622487014056574
0.32623688419146524 14.330682485692707 644036.7425447078 5.098591242722244 0.18865606033085425
0.33847502213215463 14.19221983499271 544689.8045506197 5.3454301795277 0.19121088820343687
0.3510049944610386 14.067855894153286 461984.76666042465 5.590544486105941 0.19358403471127897
0.36381449112117376 13.955948866454143 392911.87962094665 5.852609962663652 0.19612129897463762
0.3768984815093751 13.855234495672502 335019.1409291461 6.1227413157087955 0.19864698319578364
0.3902712038244964 13.764318829485905 286319.2122684319 6.39813178355061 0.20110293401084095
0.4039355547908991 13.682578177944556 245240.6273351893 6.692317684451163 0.2037265037689275
0.4178652873753714 13.608966530310116 207956.70830639842 6.988645710587593 0.20622851906259446
0.43209377223248 13.542843325423616 181158.78033222383 7.297320860522211 0.20877343262051226
0.446599115774086 13.483372949625474 156170.86690576654 7.626804644544085 0.21148990574524854
0.46139140057399697 13.429833998559937 134877.44867048867 7.952527005585313 0.21399903128340425
0.4764664036692269 13.382101780680102 116716.79751340444 8.29799332119088 0.21664803837753807
0.4918120180412692 13.339268446303961 101170.35339240485 8.662298996118619 0.2194147510727077
0.5074432894520865 13.301073667210503 87853.82113594598 9.025018516750016 0.22200484742242246
0.5233530569270479 13.266988511145593 76406.38964053827 9.411329688926001 0.22476340630881847
0.5395369256017561 13.236818585681466 66568.69134972077 9.812641981781528 0.22755972191777335
0.5560090649980499 13.21013369538772 58074.19058331153 10.218060003201188 0.23023652426233615
0.5727509474773689 13.186676936284803 50742.33842830414 10.649613248641403 0.23308588634829605
0.5897549634715776 13.166144465068829 44403.04943920992 11.092615423285531 0.23591471098829364
0.6070508341755622 13.148306701489627 38904.84530179015 11.545365019868596 0.23869549134300688
0.624615452618408 13.132938849870417 34132.73637420933 12.027066878356655 0.24165409600002216
0.642439986467211 13.119820495503621 29987.69852865684 12.516588847486778 0.24454183423054934
0.6605357646331844 13.108628120222445 26374.53590776369 13.02213503004341 0.24744480977740083
0.6788804201413896 13.099485972476343 23230.48042751817 13.559787471979398 0.2505321476814316
0.6974908478095007 13.091911110915156 20482.4136023305 14.101014247910259 0.2534927696262969
0.7163607484436166 13.085971060730046 18081.31025452249 14.665699221878995 0.25652941367512
0.7354650858239423 13.081316132167272 15980.718454848778 15.266045257300219 0.25975782827748434
0.7548095783369099 13.077939275631692 14138.972618986092 15.86452271066715 0.26277541489630113
0.7744171058206994 13.075763738340848 12521.886671314202 16.49534993372463 0.265930458220957
0.7942533027504538 13.074516029481186 11101.802962256043 17.164656587779604 0.26927291841090245
0.8143127895512562 13.074231328590601 9853.137508954243 17.828623506597847 0.27238681406047704
0.8346272683917578 13.07489043066549 8753.565297383622 18.53358573080297 0.2756929709500008
0.8551308873241823 13.075969501342408 7783.889145771913 19.274240046593977 0.27913382079855076
0.8758524666818603 13.077701043622099 6928.465783791894 20.01710170273375 0.282414403822197
0.8967915084021234 13.080175924915165 6172.928435100082 20.80572197225525 0.2858970634088278
0.9179096378364657 13.082891971145463 5505.220622170022 21.625344207142017 0.28945052846624686
0.9392275028058329 13.085983902625392 4913.913976740794 22.45753985351742 0.29291841100641036
0.9607247597238323 13.089425599307837 4390.350451471011 23.340945920118166 0.2965996949539802
0.982389464845339 13.093059106927326 3925.991083469369 24.247916965641437 0.30025743506255376
1.004234041194871 13.096741132504054 3513.7036028094644 25.181221606676363 0.3039046610464027
1.0262268867656736 13.10060128218045 3147.0671252635198 26.171965963525057 0.3077763535279094
1.0483659396208311 13.104414034277358 2821.3866086696307 27.176701081475656 0.3115510764163479
1.0706565397653134 13.108181073621845 2531.27946878993 28.22480856407959 0.31542896661130215
1.093056817456225 13.111872517046647 2273.1059293647627 29.337503890162722 0.3195458252031988
1.1155966440945122 13.11560428775826 2042.9109527189423 30.45072630094833 0.3234636500871763
1.1382196424198463 13.118849692374113 1837.4580504288588 31.630042610465427 0.3276086460861988
1.1609236598335548 13.121862617265537 1654.0205951121145 32.862986731574914 0.33188846127073685
1.1837168106729503 13.124556765826163 1490.0826836588524 34.11617485846277 0.3360822673528866
1.206570372666743 13.126910213613138 1343.4874406968806 35.44602820713507 0.3405326343348012
1.2294699407252219 13.128836527824754 1212.2641752398586 36.81079148060508 0.3449560302358979
1.2524226827755494 13.130320272244951 1094.645544638175 38.22640530189862 0.3494425705532988
1.2754031537867265 13.131328575930922 989.2229345106967 39.72909312431751 0.35420507668197543
1.2983868280768178 13.131725997315867 894.6775330211123 41.241973758656755 0.35879755586039913
1.3213725976057704 13.131544133641082 809.7539820751641 42.84463693346201 0.3636558461449678
1.344338070077005 13.130778496594745 733.4639224810095 44.51148496058364 0.3686274420858551
1.367278597535679 13.12929708438752 664.8582770029828 46.22538973322858 0.37360886777246355
1.3901563506869437 13.127139022838097 603.1080431076554 48.04480182692721 0.3788969481155095
1.4129809099257178 13.12423470562573 547.5265127082474 49.893454276939735 0.3840834844469517
1.4356919568482414 13.120520324096736 497.46832401316163 51.843747424655035 0.3895277223281697
1.458313886325312 13.1160169723697 452.34592754087504 53.87329300131147 0.39509195875791636
1.4808269774033325 13.110640133167879 411.5836103328476 55.9689779928478 0.40069237248320383
1.5032014028290164 13.104424981092635 374.824183499173 58.193046396241805 0.40663292115367716
1.5254170831746143 13.097207882624954 341.5742356724229 60.45049907729043 0.4124549664576373
1.5474743535903304 13.089092362013105 311.50642603600687 62.84759090209241 0.41863714574268296
1.5693271348486777 13.080042721430935 284.3353547675586 65.32058987530202 0.4248744677996896
1.5909733560323676 13.069923755820929 259.71741989017056 67.90942135109344 0.43133042580710435
1.6123968984016053 13.058767487175727 237.41480190653382 70.61591403246499 0.43799592675764243
1.6335677888426914 13.046545683015394 217.2038737647843 73.41914656187238 0.4447620493346248
1.6544660018662938 13.03317515380438 198.85784459224053 76.37800777059506 0.45186297647820794
1.6750824138068525 13.018783159651413 182.21913546271446 79.42086141276505 0.4589606541813004
1.695393200486526 13.003143839913326 167.09805307301107 82.65422032305666 0.46650099324837724
1.7153730481524951 12.986358291082423 153.3490999313266 85.96539378065846 0.4740095868161705
1.7350115721800832 12.968372567369908 140.8514929319556 89.48572572799706 0.48199247933290035
1.754294700715786 12.949212571248415 129.47939576560813 93.10980797348182 0.4900138083337611
1.7731790270946066 12.928739563583724 119.11456352671603 96.95160615196296 0.4984959940795258
1.7916568035232006 12.906953651301443 109.67256875128818 100.91966229667972 0.5070580712881952
1.8097065764615576 12.883960420051306 101.07205188559524 105.12325503036139 0.5160974395948611
1.827313344111132 12.859598040194372 93.21499883264416 109.47002709811464 0.5252226080464375
1.844449972970957 12.833879582908764 86.04537777363169 114.08117938770935 0.5348750920413501
1.8611036380088126 12.806829894729137 79.49347371572236 118.84741041137474 0.5446351716325805
1.877255566799745 12.778432268590407 73.50965885034614 123.90273861602465 0.5549567456532224
1.8928695234618864 12.748622172285115 68.03462484645345 129.15113599212643 0.5654685888546809
1.9079501144494115 12.717410143240386 63.02239249639678 134.69707032972036 0.5765043038228322
1.9224376576248112 12.684729293746228 58.43819510837728 140.49627654888192 0.5878701599121505
1.9363765023812176 12.650681164877776 54.23202899447062 146.59156339013177 0.5996758173306137
1.9496959395109412 12.615080245913834 50.37316348848603 153.01602054096952 0.6119975834096437
1.9623650238607981 12.578175470532928 46.84689659711063 160.31309302878316 0.6257666373363141
1.974341192986801 12.53968822674695 43.61465571887448 165.83033939900346 0.6396353172474117
1.985492553238042 12.499854287518144 40.67070761451362 173.63231959333822 0.7263006099906552
1.9953115772248042 12.458648647240398 38.05399700491996 181.98347567068785 0.8190662115636457
2.003680494192397 12.415658827842698 35.72274678798491 190.91897997633524 0.9179251059716846
2.010632186365758 12.370508441296009 33.633924046715855 200.0616697820053 1.005412464570617
2.0162302054203467 12.322951396227529 31.744630650114743 209.82173147665577 1.09602472873456
2.0205951949704595 12.273109547047415 30.026140421951247 220.2480680266211 1.1898701231017583
2.0236892154425172 12.220875835201847 28.46151200507369 231.35587207129274 1.2850772148760403
2.0256016696812758 12.166413080850592 27.030715034053564 243.2175866398595 1.3834617151140827
2.0263355493488877 12.109432314784598 25.716063603060736 255.8956400108711 1.4856219413564147
