M[M_sun], R[km], Lambda[1], P_c[MeV/fm^3], rho_c[fm^-3]
0.23848912294887037 16.21570186450063 2784644.0411725277 3.4469561053153734 0.1694538074003404
0.2484794863157084 15.872541706871312 2285059.898138674 3.6326728633851193 0.17193386907982522
0.2587606846351803 15.56908001214155 1884105.7083895642 3.817227865796706 0.17422068035183516
0.2693294845242938 15.299530927627265 1559987.8037592445 4.013375643281713 0.176625488684643
0.28017779984051727 15.05965414913699 1297057.5664969517 4.217532600720216 0.17905754026228543
0.2913156834307098 14.845601028625389 1082538.6429214927 4.424466594433761 0.18139007962326648
0.3027371490974493 14.653818261630066 906619.0499346274 4.646407995682386 0.18389178098684394
0.3144422697121642 14.482194890858207 761878.0024795085 4.86894851662391 0.18625848577460707
0.3264370463955918 14.328319397957326 642255.8295141625 5.102531330312501 0.1886971966381795
0.33870019760278564 14.189867186786442 543064.430002118 5.349792390949125 0.19125312224087734
0.35126378536836483 14.065512958476837 460449.63719404495 5.595724432572755 0.19363418589192663
0.3641010030966896 13.953583853370125 391499.07605536876 5.858705388013421 0.1961803136343062
0.3772243071923235 13.852789135147818 333691.97580405546 6.129280031382976 0.19870529590433625
0.39063124179104547 13.762101717024493 285144.59230646497 6.405695796631893 0.20117039039100423
0.4043261718912701 13.680439696676935 244198.25846809917 6.701024347458645 0.20380415037840252
0.4182977071555778 13.606951820047396 209603.31920659452 6.997812271359227 0.20630409399887342
0.4325617307724072 13.540773105265453 180281.023254089 7.3077535627610715 0.20885944642946003
0.4471086512879995 13.48137458458565 155370.9906592201 7.638643157699362 0.21158750995031927
0.4619380312629422 13.428127248592926 134162.59998843892 7.964844550858944 0.21409348120033744
0.47705001294510224 13.38028605243645 116060.88256462279 8.311856577471836 0.21675434067844887
0.49244720066833153 13.33760633432146 100584.37605153667 8.676680984334446 0.21951744952994706
0.5081211055065096 13.299507241907426 87325.69807071846 9.041095889203154 0.2221196522270588
0.5240778347130292 13.265469203485488 75929.71369923638 9.429277613390346 0.22489156829348128
0.5403063832707535 13.235481424106295 66138.54471368111 9.831136509524171 0.22768183339927517
0.5568187471220574 13.208929114810378 57695.25885028256 10.238595342535845 0.2303721103526755
0.5736131538913402 13.185639630921097 50400.038004018024 10.672395139268088 0.23323630545899454
0.5906747000686774 13.165178119302272 44090.388421867945 11.115972873984909 0.23605817205492122
0.6080188238552372 13.147410420073845 38622.09278537819 11.571162847485404 0.23885394116333253
0.6256283008000643 13.132158300392614 33880.6439233197 12.055545832071607 0.24182901325143666
0.6434978142237593 13.11907601832264 29760.383894587416 12.545690551727237 0.24470894366327123
0.6616513013467477 13.108087356780098 26173.573705807266 13.054141097077913 0.24762859680449728
0.6800545924610378 13.098871255348897 23043.61369337612 13.594979060954568 0.2507342267906697
0.6987138696570834 13.091415126937699 20315.609497357986 14.136895237736315 0.25368572286437474
0.7176377159801585 13.085583022042158 17931.142101541376 14.705024890302283 0.2567408909810314
0.7368030198991694 13.081066430919106 15844.434626104783 15.309143663271024 0.2599895938176318
0.756209087142279 13.077721857125908 14015.048658858055 15.90837803367842 0.2629947545808612
0.7758712801776632 13.075583156713428 12411.20229185298 16.54327773718612 0.26617016616451034
0.795763380069398 13.074465253167082 11001.487573049184 17.213483119161584 0.26950190681280173
0.8158853162687734 13.074240966460025 9762.632607683476 17.88184861891942 0.272636431083568
0.8362372783411675 13.074830385309111 8672.07950785901 18.591613572461878 0.2759651119838003
0.8568125037966173 13.076038554301562 7709.910816374221 19.333312035235938 0.2793946911254954
0.8775888049972669 13.077960235561289 6862.0526587067 20.081359600989238 0.28269817586563184
0.8985934867670032 13.080339984642261 6112.286708189295 20.875637192468766 0.28620581899290093
0.91977324898526 13.083096512171423 5450.109458971549 21.696497915016547 0.289747036507692
0.9411563230823469 13.08628081445834 4864.040106125932 22.534804189482475 0.2932403829403391
0.9627128964832545 13.089766967331254 4345.302305454484 23.42487151638517 0.2969494253463883
0.9844423082246653 13.09337514383679 3884.79197652787 24.33329810781268 0.30059109280576646
1.006345473615296 13.097180116469126 3476.3189541632314 25.27379871471248 0.3042664396330435
1.0283914163988204 13.100928948353966 3113.4826142599013 26.272382886508293 0.30816876903150797
1.050605394487181 13.10487927085803 2790.8006388883455 27.278853035414073 0.3119290281695297
1.0729475332937468 13.108657454789508 2503.516769996105 28.335434075562464 0.3158382696583765
1.0954073523390495 13.112385853159065 2247.908564929866 29.45193928178018 0.31995316849295263
1.1179837198263616 13.115860559171423 2019.9557527170787 30.572716940350045 0.32389241606637775
1.1406620039260063 13.119098656126901 1816.567740437542 31.762020997639315 0.3280725164510691
1.1634360538590975 13.122112749324362 1634.954402050732 32.9976555520439 0.3323391317696358
1.1862819136998746 13.124850010428034 1472.801291073389 34.26168428357386 0.3365692160391596
1.2091961789344414 13.127206414283307 1327.7011512959505 35.60332747627024 0.34105903784714137
1.2321393522764217 13.129005611652142 1197.8214389190816 36.97137266546229 0.34546496420449924
1.2551389049368553 13.130389318580455 1081.5117945314573 38.39980140363517 0.3499921191587302
1.2781810975695063 13.131369808178 977.2496075728064 39.908935157851225 0.3547566016629986
1.3012037585492644 13.131740224309567 883.7767111749168 41.43334312155956 0.35937767021703415
1.32423937463617 13.13142600745823 799.7798149314154 43.05118100687431 0.36428196090255943
1.3472418014545793 13.130624063891815 724.3795069603451 44.723016627754234 0.3692422541204517
1.370232030806993 13.129088256951547 656.5195783475821 46.453496329394355 0.3742718544655173
1.3931443770474665 13.12681220682047 595.5105487318704 48.28996263255569 0.37960734199482915
1.4159792148133754 13.123775053673176 540.6220703457212 50.14579191377209 0.3847878842562363
1.438755231460003 13.119979516597848 491.09982646283095 52.11581213493539 0.3902871902079528
1.4614027121251194 13.115340342111685 446.5176346170834 54.15284130950052 0.3958390110049791
1.4839441440674086 13.109841140540865 406.2363095460691 56.27018991731977 0.4014973175979734
1.5063353972905575 13.103404978964651 369.9199533787446 58.50321374967048 0.4074328530409016
1.5285866124841263 13.096185892933011 337.09748744131775 60.784526236096575 0.41331643357393544
1.5506568016319107 13.08787099686075 307.4086773691126 63.207539160798966 0.4195654642349659
1.5725269532163577 13.078625346850382 280.5667947124138 65.69169122726521 0.42579991032739867
1.5941925702232815 13.068306715776947 256.25033692483345 68.30915692823575 0.4323272755921262
1.6155984866627284 13.057001518738145 234.24933326145657 71.02895107795887 0.4389928684131522
1.6367856160903884 13.044550684369014 214.2729864060537 73.8639171777644 0.4458355858586896
1.657683888966161 13.031079947409337 196.1831263398489 76.8384985007925 0.4529371046396506
1.678282614383025 13.016359487387128 179.748288862051 79.91662656372344 0.46011706249787593
1.6986032861737614 13.000531313163032 164.81543969143638 83.16852107681196 0.46766724907308876
1.71857734239721 12.983594594203458 151.2538221165797 86.51902552532417 0.47526503169399154
1.7381974132491935 12.965351494015247 138.92000377789168 90.07282092855127 0.48330853985639255
1.7574463671996083 12.9458770848646 127.69321810989906 93.72929158137232 0.49138154676885537
1.7762940515648598 12.92516391273688 117.47064273182606 97.61362610795076 0.4999488005670727
1.7947491066406736 12.903169019367288 108.1597285438001 101.61419906857596 0.508551596965264
1.8127666784936538 12.879841734340948 99.66917784489421 105.86228187491714 0.517670547121619
1.8303246907356665 12.855228733913956 91.91934491536426 110.2502134501999 0.5268557651845233
1.8474087854946306 12.829239425812267 84.85189121885556 114.90057335430777 0.5365581792400588
1.864001738542038 12.801875223331766 78.39009107093099 119.72556843444286 0.5464322753815312
1.8800965678432076 12.773159999783262 72.48749059733322 124.82217525747826 0.5567982551876651
1.8956421587765984 12.742974778149401 67.08896863328994 130.1416618702954 0.5674524806929229
1.9106509550747752 12.71146081321477 62.14882413801218 135.7359373125776 0.5785403777572417
1.9250912073794735 12.67850817821949 57.62488344201472 141.61593748924645 0.5900645818099208
1.9389292363504904 12.64406780379893 53.47660325769298 147.7678080690571 0.6019317918736974
1.9521748359579183 12.608306108256429 49.68255942879431 154.27886125715858 0.614411706635855
1.9647852308051337 12.570963666222376 46.196576792387624 161.06398067546547 0.627185461876745
1.9767351737637373 12.53202505916026 42.99727195663464 168.24036276636718 0.6405971727254531
1.9880322018690142 12.491684123785685 40.05860123375714 175.79430505863616 0.6545509543825091
1.9971375336181523 12.45195101467783 37.61519852977168 184.38920908588437 1.0398223271832068
2.000040398407377 12.413539115953048 36.105856974490486 194.09060534344886 1.538533535751998
