M[M_sun], R[km], Lambda[1], P_c[MeV/fm^3], rho_c[fm^-3]
0.23848912294887037 16.21570186450063 2784644.0411725277 3.4469561053153734 0.1694538074003404
0.24845541907894864 15.873256029614458 2285989.846244654 3.6322217103811214 0.1719278443823858
0.2587105760826351 15.570343443897128 1885800.0059971397 3.816341924800179 0.174209818549993
0.2692548431265079 15.30137062528124 1562190.898931945 4.011948080671129 0.17660798650080206
0.28007540369954914 15.06176008034422 1299378.6938972322 4.215661492604659 0.17903644931801926
0.2911867300399528 14.847819501547733 1084826.3418188505 4.421959625887593 0.18136182132357515
0.3025775009691074 14.656326985614731 908812.4411732499 4.6431800742742135 0.1838553961783183
0.314247870420879 14.484842984878988 764005.8952754701 4.865251322644993 0.18621988538710965
0.32620861018811703 14.330969442203303 644303.4387188962 5.098007031897039 0.18864996090400196
0.3384399149894021 14.192645159945336 544979.8413504789 5.344783411307139 0.19120462632600738
0.3509664269979029 14.068212703045603 462231.2144786687 5.5897765435652 0.19357659964890245
0.36377039611312834 13.956314209010024 393120.6911711121 5.851706380060596 0.19611255067296188
0.37685229773597495 13.855524690145339 335201.55169298546 6.121772059187769 0.19863833930058467
0.3902172328558265 13.764686978654975 286499.9127396364 6.397010645469307 0.20109293562561673
0.4038732407656174 13.68296255180536 245435.91068002998 6.691027303307574 0.203714996062629
0.41779858155922667 13.609353724521442 210727.3557992312 6.987287212384842 0.20621731874246724
0.43202299643014275 13.543139668409605 181288.5614616007 7.295774861954484 0.20876068642854845
0.4465234218039946 13.483658642697925 156282.85969628027 7.625050489655383 0.21147544338065621
0.46131410962587166 13.43012630141375 134971.5096700411 7.940016649462673 0.21383190835297308
0.4764034252145859 13.382279076958046 116779.96646016222 8.272648572524476 0.21630174628680007
0.49178934575421857 13.339420982754033 101195.62148957852 8.62691964484599 0.21893225789020584
0.5074440561166202 13.30124594596317 87866.19950485168 9.004578571473807 0.22173642753949252
0.5233623917334697 13.267309922528357 76424.14300058884 9.407541093641946 0.22472847987770586
0.5393132574146283 13.23737418394118 66709.83223226565 9.81195132955663 0.24324995169637137
0.5549022210858151 13.210678480584361 58578.55581617012 10.227748517109621 0.26439192288060037
0.5702007014031438 13.186126206593494 51690.875096589334 10.670802892289254 0.28691983579944524
0.5851802194258313 13.162508707131037 45802.73135875671 11.137292763448832 0.31063936952653076
0.5998595804693205 13.139931374967349 40752.542302881826 11.621801187081086 0.33527508962659486
0.6142036684116844 13.11756402460544 36394.48907908727 12.138635267247928 0.36155446706591987
0.6282603524837151 13.09501351797904 32601.868025222517 12.675261257769858 0.3840104830622052
0.6423548238006781 13.072275734070828 29228.026450335787 13.23543225485003 0.40341116924992854
0.6564720798748569 13.049074492954697 26222.0343907584 13.833376938003894 0.42412009066134093
0.6706198288165741 13.025843515212514 23546.262981391985 14.447585130901945 0.44474198593899444
0.6848147076189021 13.002320319886618 21158.16231826931 15.088722884580804 0.4658759421360029
0.6990247481952947 12.978630583488586 19028.717740995016 15.77321522126891 0.48843900440732935
0.713335025544404 12.954629085185985 17118.93843863775 16.464378637909633 0.5060320614556255
0.7278479931643282 12.930363575354546 15393.845734389388 17.194307839592344 0.5236025028201204
0.7425806077271142 12.90607415383313 13840.422155415059 17.97356340486851 0.5423603004066223
0.7575479914325558 12.88197222298151 12440.841604471812 18.75014614858199 0.5595038152590258
0.7727300234213131 12.857915140472466 11180.443028813579 19.575804932945367 0.5776583157287859
0.7881157245884967 12.833962092979974 10047.923217761398 20.448519949631415 0.5964816077824828
0.8037428573655095 12.810255769227535 9028.095483514468 21.32402756428129 0.6129629680676228
0.8196351791704284 12.786774667891724 8109.548282229746 22.257325116005177 0.6305322192606599
0.8357560197065446 12.763495383854046 7284.498955127265 23.22922666371562 0.6479345363698155
0.8521780428078789 12.740655746938538 6540.964250388532 24.216662263010075 0.6637619583992863
0.8688583174929171 12.717857700128079 5871.263025013513 25.268962688318098 0.6806290866910374
0.8858395115294626 12.695950539954309 5271.516612335544 26.348888350917857 0.6971167277608363
0.9030700487616076 12.67406936076234 4730.883758600516 27.461581957343427 0.7133487298873755
0.920576976271886 12.652978975026471 4247.238462664313 28.647047665942452 0.7306423332583281
0.9383182797918426 12.632008672059362 3812.7197108482806 29.844298050867064 0.7468649985248212
0.9563098618091368 12.611411532416103 3422.5402012190098 31.099182779670052 0.763481946073701
0.9745518567326392 12.591483082603236 3073.195662753143 32.43062347356219 0.7810245225634579
0.9929961218441877 12.571611082324537 2760.045127779102 33.76197510485699 0.7971233004002766
1.011666390138295 12.552274434350771 2479.4628593473412 35.17878002401389 0.8142553841379412
1.0305506717551416 12.533356101605579 2227.8136953811263 36.65072611622412 0.8315442806458903
1.0496251909107948 12.514729600738502 2002.772318643706 38.155752197198616 0.8483585997513906
1.0688655083291314 12.49617114943479 1800.8642010186907 39.75739715302471 0.8662523556945019
1.0882735788058635 12.477924848215265 1620.0191828171373 41.38588997730068 0.8837316479672618
1.1078215825825704 12.460031010556772 1458.272302179165 43.09014127021941 0.9017533420596127
1.1274926802324572 12.442010703454791 1313.0069647829357 44.88895887705485 0.9206540272880777
1.14727584728032 12.424279398581605 1182.7487312195924 46.70780257885849 0.9389969385074911
1.1671319519570644 12.406586732340305 1066.5697875219419 48.64238644471233 0.9585070811671806
1.1870544328176995 12.388915394537008 962.2256217655504 50.63359012438592 0.9781205196078444
1.2070204569603422 12.371066630695312 868.6009747397884 52.703414835568736 0.9981686792975248
1.227010016034551 12.353253311720382 784.7191239661706 54.89356744366802 1.0193104604438006
1.246991798908579 12.335219942261704 709.4130519733536 57.114940073725634 1.0401100614822303
1.266943675072988 12.316857594345814 641.8007583342462 59.477548374195926 1.062232108632235
1.2868431605558115 12.298260831370866 581.112726770605 61.90836776770462 1.084573115357973
1.3066805630026943 12.279436327210362 526.5929537742204 64.45096574925363 1.1077202020854469
1.326399089936925 12.260069115525228 477.6168691989906 67.11928677592796 1.1318391896318567
1.3460276316231894 12.240466315854267 433.52022343553494 69.86392366669412 1.1562096478001793
1.3654834181889002 12.22028499217764 393.9153606057073 72.78427116379568 1.1821402934001561
1.3847779802786577 12.199429679811486 358.18526371260003 75.7602131880351 1.2080793466720097
1.4038904606397706 12.178021673188676 325.97702561115267 78.92193179069812 1.2356201625366208
1.4227607156641584 12.156052400406491 297.02678638282066 82.18934010648067 1.263782183954482
1.4413956384009765 12.133355938933633 270.8687829382111 85.62326126728911 1.2932445514512843
1.459751445761167 12.1097587006036 247.23923297997854 89.20797952446925 1.32381530674559
1.4777958733330412 12.085429853410167 225.92444270849956 92.94939412302475 1.355526344825293
1.4955397591024695 12.0603352838469 206.63323771887445 96.88121117161094 1.388729637183701
1.512902210751405 12.034203664119701 189.20080811432365 100.97032157116526 1.4230341078301205
1.5299055810755957 12.007153508797765 173.41306178166556 105.28448196273546 1.4591403499690678
1.5465144676089084 11.979099681930165 159.10214472227048 109.76696695214886 1.4964214757874836
1.562694298945356 11.950063659756339 146.15029955319653 114.50521816127498 1.5357720534023738
1.5784194753949246 11.919829276471102 134.37883431471 119.43390178224529 1.5765228183956463
1.593674762300903 11.888594608668509 123.70314199312982 124.64340376126265 1.6195331838131766
1.608431401065628 11.85612878151372 113.99556124920196 130.07937457838764 1.6642496140497807
1.6226437444423196 11.822505966381206 105.17556792046707 135.81643333947258 1.711373995187843
1.6363453948130309 11.78756976381149 97.14080318725574 141.8300525440084 1.76064998816835
1.649462230668353 11.751485234586974 89.83399509016174 148.16063754837432 1.812446835653271
1.6620050313354997 11.71414112639739 83.17431290042622 154.8337063550057 1.8669716481772227
1.6739250372642123 11.675388910082058 77.093329252403 161.83465619739312 1.9240766854622353
1.685214334764673 11.635393220942628 71.54870633920572 169.2622510050289 1.9846211166964431
1.6958611450654133 11.59399942298435 66.48080118265973 177.0250392485596 2.0477951395324463
1.7058186453248065 11.55117798177104 61.85409825152071 185.26899600549075 2.1148546427897057
1.7151045375841034 11.507093357326806 57.62259848914934 193.9493434441301 2.185389633208147
1.7236968707921332 11.461523792311915 53.747072036993075 203.12088614194158 2.2598617532736935
1.7315663094554827 11.414598221114236 50.1965110901669 212.86090695862583 2.338913916171205
1.7386327082339603 11.366150695999576 46.97182704605944 223.1012406767393 2.4219458646837633
1.7450490946978288 11.31630423535467 43.95776561109755 233.9824902875242 2.510132498123212
1.7506623718411445 11.265066834172272 41.22068978756081 245.53759740875122 2.6037297280703817
1.755511763455779 11.212389966992825 38.70534565751847 257.73781023691055 2.702481757691609
1.7595586415440128 11.158286555447189 36.3973868422769 270.72082834100644 2.807560748954776
1.7628423028262827 11.102715636822104 34.26706058748819 284.5387734381218 2.9194306149877014
1.7652882067299074 11.0458062024652 32.31926017161873 299.1790825532493 3.038774811577907
1.7669433746962049 10.987514600858773 30.52237000083975 314.774729425816 3.169373698119088
1.7678141684892317 10.9277887451151 28.86636940457467 331.4042259221177 3.300830406178098
1.7678339641842113 10.866740498117139 27.343883629076362 349.1376990205463 3.4169004835351156
