M[M_sun], R[km], Lambda[1], P_c[MeV/fm^3], rho_c[fm^-3]
0.23848912294887037 16.21570186450063 2784644.0411725277 3.4469561053153734 0.1694538074003404
0.2484743571708441 15.87289433215791 2285549.637443749 3.6325873269291464 0.1719327268259497
0.2587504341681499 15.569410757199845 1884423.1609693174 3.817059884827507 0.17421862087382495
0.26931472205709434 15.29991989626068 1560575.9256301043 4.0131049477412875 0.17662216990683366
0.28015920706229697 15.059999328575183 1297523.8876425512 4.217177779818734 0.17905354075643357
0.2912920088061196 14.84597279690085 1082931.5772572006 4.423991160977842 0.18138472058471725
0.30270309653340877 14.654379185275777 907087.4416045072 4.645795792963361 0.18388488029878686
0.3144054618140709 14.482783131417882 762306.4955933793 4.868247279641223 0.18625116454141954
0.3263954797179774 14.328738288793106 642622.8370249704 5.101673156744411 0.1886882369156285
0.33865438488154054 14.190336836632461 543386.7125128038 5.3488422439759535 0.19124392311250824
0.35120628795615777 14.066083912787569 460814.5703995084 5.594596104029539 0.1936232616460945
0.36404337201524384 13.954038069476304 391781.8173871333 5.8573775616249 0.19616745789120035
0.37715438015850383 13.8533223400811 333976.2610259777 6.127855599472622 0.19869259272423476
0.39055216789321723 13.762609371913038 285400.265757184 6.404047906042609 0.20115569439129302
0.40424064814934924 13.680892250287476 244426.78630230037 6.699127399321822 0.20378723326664022
0.41820188619660015 13.607346941832677 209817.44612823753 6.995815081171082 0.20628762789724966
0.43245966717391193 13.541255420896906 180471.71100172764 7.305480364560387 0.20884070474286173
0.446995997013442 13.481774730709924 155538.87180051464 7.636063477275215 0.21156624143003866
0.46181860889730203 13.428526387116763 134320.9445107597 7.962160443873123 0.21407289969028664
0.47692836230385927 13.380654056494006 116197.62834866866 8.308835450149825 0.21673117492437452
0.4923095285181506 13.337994603205736 100714.60989841542 8.673546771965926 0.21949506884307143
0.5079742546368293 13.299840665877744 87439.1640111963 9.037591982209126 0.22209463163621998
0.5239182875619222 13.26582131199042 76038.59500033881 9.425365778677891 0.22486363478499025
0.5401394029198552 13.235820921355527 66232.08620209436 9.827105505741724 0.22765521839992706
0.5566384713789877 13.209171998420466 57776.77576308551 10.234119235226103 0.23034255652450755
0.5734228093586092 13.185825309935385 50475.82640229739 10.667429012684362 0.23320351624248126
0.5904753149807395 13.165389923990547 44156.79833163461 11.110881262544103 0.2360268994636803
0.6078095733826605 13.14761047981384 38683.350197155276 11.5655388872375 0.23881939889473397
0.6254068321882458 13.132333770924854 33936.35779142656 12.049336952885115 0.24179087842062313
0.6432638285300224 13.119249985185728 29809.79239840327 12.539345899569687 0.24467251104701943
0.6614012496571076 13.108154757802401 26215.807958427453 13.047162764493851 0.24758852543308096
0.6797937846320863 13.099025838072366 23085.18155448187 13.58730564075479 0.2506901640482947
0.6984463618762764 13.091562465574908 20352.33416148319 14.129071515853346 0.25364365009886697
0.7173608576768088 13.085653351108236 17963.280698451348 14.696449463304916 0.2566947758539108
0.7365107469957779 13.08109499470199 15873.726763891382 15.299744865488533 0.2599390509403321
0.7559086047799312 13.07782148255851 14042.421595303565 15.898814223828513 0.26294692177764295
0.7755461459291356 13.075598967369826 12435.077586249461 16.532825060633765 0.2661178877494771
0.7954314032095442 13.074503816349107 11024.015459585738 17.202834506807484 0.26945196657219084
0.8155435545655846 13.074209286848715 9782.022642997412 17.870239880397556 0.27258198800913797
0.8358837983196032 13.074789786719512 8689.4220834342 18.57895639215674 0.2759057518898393
0.8564403922588082 13.076031385134364 7677.856487711775 19.32042721329858 0.27933778991413116
0.8772099564154888 13.077921526115556 6876.573397116156 20.067342590170565 0.28263627474669006
0.8981966626589903 13.080307588277012 6125.596562974997 20.860384956754437 0.2861384629446468
0.919366608317519 13.083084963293167 5462.22040493072 21.680975655877013 0.2896823529543854
0.9407355829374543 13.086248126283369 4875.141578261049 22.51794761427666 0.29317013909431827
0.9622860235162909 13.08971625190128 4354.859738783408 23.4065602485173 0.2968731195805461
0.9839914919471554 13.093306578101316 3893.830777063773 24.31466948201642 0.30051829470206026
1.0058833111958108 13.097071667659451 3484.378538643672 25.253598490296216 0.3041874999384022
1.027928040235218 13.100836389657472 3120.6207340253754 26.25047027801346 0.3080831375757513
1.0501271721279892 13.104847633094048 2797.4897862578405 27.25656210834184 0.3118465540254514
1.0724506229146118 13.10858064186085 2509.643452116668 28.311292179782903 0.3157489471199107
1.0948970129931495 13.112266584586237 2253.4405166696824 29.427321248596353 0.3198666423860657
1.1174649738219822 13.115779698195015 2024.9200806008644 30.54609300895312 0.3237988397389515
1.1401298393270412 13.118961766057827 1821.0225635164886 31.733214922718858 0.3279712704457953
1.1628762904767653 13.122014320339614 1639.1602485373069 32.96826260204454 0.33224076798064445
1.1857249348441088 13.124795202550454 1476.5253900244377 34.229922639685974 0.3364629253933594
1.2086292212602525 13.127148410104006 1331.0914937787115 35.56898946170324 0.34094412535216134
1.2315675283299208 13.129002498725157 1200.9866069963912 36.93631864218814 0.3453538666111154
1.254552821197523 13.130428589638585 1084.3950368484548 38.36194674350051 0.34987214543684286
1.2775723846943838 13.131378843911914 979.8909846158701 39.87020573654298 0.3546391978477573
1.3005963701871632 13.13177617841277 886.1233055801432 41.391561532027005 0.3592510141025798
1.3236282383756566 13.13154335993074 801.8862524949429 43.00608238698403 0.3641452495895994
1.3466106289096553 13.130644191684423 726.3326425767376 44.67682940877602 0.36910801200695553
1.3695835354751211 13.129143134516497 658.3277325528377 46.403685643273874 0.3741270808262414
1.392492469944209 13.126868041918675 597.166256281757 48.2371738880834 0.37945607318600594
1.4153324744510902 13.123863187121087 542.0859531342264 50.09068546943285 0.3846340547705908
1.4380765922647316 13.120089424232969 492.5222757002803 52.05639220318378 0.39012131963422886
1.4607326096426767 13.11552411678538 447.79290965129775 54.09178727725316 0.39567585297237245
1.483275287630402 13.110058420864148 407.41737864066016 56.20439843959671 0.4013214994304839
1.5056659347207129 13.103801462801592 371.00104107603835 58.43546640254457 0.4072581303866899
1.5278937190822122 13.096376612718386 338.07152783955854 60.71156058422216 0.413128252738779
1.5499651336364368 13.08813657304514 308.2898023188062 63.12890373347083 0.41936266086094875
1.5718314619311076 13.078932016873148 281.3752017442827 65.61061931720799 0.42559773538793094
1.5934905627185627 13.06872945333771 257.0087458916094 68.22182104384295 0.43210947972265656
1.6149134265662446 13.057387833767397 234.91776482730626 70.93870878687757 0.4387750518757518
1.6360908038894946 13.044998829780864 214.90199921296275 73.7667320336324 0.44560101145540315
1.6569896492691671 13.031525883046491 196.75557762173207 76.73787781135744 0.45270239955427427
1.6776009673471826 13.01692307075891 180.27844507342556 79.8082873226924 0.4598643533288317
1.6979113000346264 13.001160649848618 165.30971223430538 83.05613019965718 0.4674123855245345
1.717874421616261 12.984191618562985 151.7103234225373 86.39802728234453 0.4749906496235309
1.7375052867218381 12.966022478350833 139.33912040124528 89.94704443060897 0.4830308418700761
1.7567532430998312 12.946552189543118 128.07988152221094 93.59388532463868 0.49108258754002687
1.77561927031586 12.925957814079627 117.82877510806382 97.47260404255714 0.49964554797596283
1.7940770770838284 12.903990120995852 108.48652996383417 101.46236905537377 0.5082251030596238
1.8120957328311995 12.880774456754425 99.97634874691443 105.70387391848061 0.517338953158084
1.829666840118437 12.856186442484537 92.20134118456662 110.07963785438812 0.5264987008099176
1.8467681467451287 12.830244605005086 85.10803554740805 114.72229320931407 0.5361933383930638
1.8633796169833765 12.802989608562914 78.62995269505093 119.53354675791829 0.5460393132201693
1.8794658595189146 12.774311153330613 72.71177376873771 124.62112150301485 0.556395571208055
1.895063790079519 12.744407403358663 67.29868262292818 129.9250383793552 0.567018612598086
1.9100658699365902 12.712821929648499 62.339837868268475 135.5087341433066 0.5780950825862511
1.9245073832206816 12.679846428277243 57.80229920953002 141.37103589335428 0.5895845995175586
1.938374976426034 12.645518251014325 53.64158164713586 147.51052014017364 0.6014383273520689
1.9516291068021385 12.609760971850491 49.833469463527805 154.0069126847644 0.6138980616786593
1.9642613677368224 12.572432216358857 46.333163030967256 160.77198918022125 0.6266357548395177
1.9762423081900582 12.53374739669673 43.1279645984028 167.9326181588639 0.6400340540084021
1.987547767233437 12.493420970253144 40.18062482586093 175.46255066289964 0.653959742561201
1.9982110882893718 12.451706650529244 37.47118960556994 183.3744805317896 0.6683930945538202
2.0081718556934143 12.40849621735728 34.98273909515565 191.74663322099292 0.6835423980904345
2.0174035913379624 12.363783807885147 32.69293732422045 200.54699142540727 0.6992375428219696
2.0259066312015612 12.317507159166093 30.58657520405947 209.83124899667328 0.7156179235675943
2.0336856104914007 12.269753467769963 28.647654075716577 219.66069111395836 0.7328163515847151
2.0407061149219365 12.220499209975802 26.860407088316517 230.02941306389965 0.7507440197729369
2.046960032220235 12.169790726584791 25.214175964031558 240.97695108225008 0.7694314276046474
2.052396319124736 12.11752193203682 23.698932281553358 252.58097366584994 0.7890492369113719
2.0570775724110835 12.063770993348609 22.298023910978333 264.8833325348998 0.8096418607454867
2.0609284058625477 12.008541149875231 21.006264495566874 277.88484503905516 0.8311264202419149
2.0639535821654267 11.951802017575178 19.81606034303172 291.67560445846146 0.8536816390123919
2.066167579823497 11.893690065818332 18.716752290593476 306.3244708941812 0.8773934469138246
2.067551711960068 11.834072815549819 17.70025876649263 321.878314111067 0.9022799704829761
2.068091650551725 11.773116667307042 16.763236640106147 338.38125043005994 0.9283597364572639
