M[M_sun], R[km], Lambda[1], P_c[MeV/fm^3], rho_c[fm^-3]
0.23848912294887037 16.21570186450063 2784644.0411725277 3.4469561053153734 0.1694538074003404
0.248522525742098 15.871458157501676 2283405.7563736397 3.6334529648094964 0.17194428655463373
0.25884358593482654 15.56686752679861 1881310.6201766767 3.818760102709643 0.17423946586214434
0.26945767153157857 15.296560215354438 1556671.3567407788 4.0158452029298655 0.17665576594649318
0.28035661428477165 15.055894903528618 1293245.8002257887 4.2207700676638105 0.17909403266713536
0.2915465022725356 14.84130721197419 1078552.3448104444 4.428805280485233 0.18143898486018956
0.3030211124186477 14.649470818523376 902760.9647928184 4.65199576198734 0.18395476573194247
0.3147771209234618 14.477667683949484 758198.6726752064 4.875349634514056 0.18632531635812133
0.3268223202624546 14.323531317132803 638762.6335886581 5.1103663546348965 0.1887789978573259
0.3391603877343206 14.185089190428107 539742.3813906342 5.358467956364872 0.19133711728815692
0.3517755180749083 14.060765466050587 457429.4884720747 5.606028685479941 0.19373394955788303
0.3646792845972928 13.948824430698894 388688.7522212726 5.8708336422687735 0.19629773690769284
0.3778643631781624 13.848272843080734 331178.8923789721 6.142291683188891 0.19882133469503374
0.39134561855302524 13.757601662800178 282801.0012651582 6.420751285763562 0.20130465626118407
0.4051094387004372 13.676037637431364 242070.30313946065 6.718358390090675 0.20395873654278213
0.4191557705623808 13.60262015390473 207668.46431657134 7.016063412116448 0.20645456796987613
0.43349467812012565 13.536732614507015 178537.7558762167 7.328530687666721 0.20903074621461648
0.4481195784308448 13.477544827220196 153800.25492769567 7.661023834036887 0.21176380910829665
0.46302990990671516 13.42439780739331 132735.6785208291 7.989383005315084 0.2142816400366612
0.47823087942481174 13.37689786152795 114785.1335172008 8.339481163444846 0.21696616371562905
0.493702989653169 13.334327532561327 99435.27163734597 8.70534066276871 0.21972210167650752
0.5094685788826571 13.296463915649905 86285.61048546495 9.07314194003067 0.2223484856770111
0.5255098495365237 13.262677321152205 74999.42911927533 9.465061182509697 0.22514709049861228
0.54183327741799 13.23289895851367 65298.81099468982 9.868011067135631 0.22792530038163433
0.5584444573924586 13.20653902769929 56934.84067574253 10.27954921680844 0.23064251132372246
0.575328850277257 13.183436792774248 49717.878539319354 10.717841107997778 0.23353636581452727
0.5924845334622 13.163194400480442 43479.19904667298 11.162567723051355 0.23634435682878446
0.60993281279985 13.145738525654314 38075.024032291316 11.62263918509696 0.23917010795716984
0.6276400219028766 13.13055659699619 33384.18561866212 12.112387075268623 0.242178131204523
0.6456182675711043 13.117689124570827 29312.81300138807 12.603774857827503 0.24504247861236764
0.6638721711652125 13.106852141266392 25768.252005940758 13.118039102719889 0.24799551550405735
0.6823823969261412 13.097906545587197 22682.170308484496 13.665255787249054 0.2511377737364976
0.7011521065898958 13.090593636638305 19988.629538424128 14.208547980241063 0.2540710419079818
0.7201749493686438 13.08478981002583 17635.54524863986 14.783577714971662 0.25716331583479374
0.7394530254624521 13.08049611717042 15577.862666583998 15.390792406122678 0.26040608208945737
0.7589784401250439 13.077375532829045 13775.531649031662 15.996001197536085 0.26343299641334655
0.7787486876180965 13.075408354496217 12194.697863821453 16.63906421358502 0.26664923629957826
0.798757709224732 13.074375558833317 10806.082289252194 17.31106331751372 0.26995954189449245
0.8189993571385419 13.074278171621728 9585.394127652176 17.988248762946025 0.2731354302598948
0.8394787049052957 13.074997838782288 8511.352990494532 18.70764749175219 0.2765092919816898
0.8601634083515544 13.076354979636854 7565.270152290792 19.451429992118733 0.27991631686958224
0.8810645374005782 13.07823176554208 6730.5367608510005 20.209883416780414 0.28326575536678655
0.9021766769334294 13.080754450365264 5994.084458629648 21.01551691244014 0.2868235477865434
0.9234786318187891 13.083664102569369 5342.942536849616 21.83884998992222 0.29034023869190384
0.9449792115750468 13.08691432031256 4767.230270684781 22.689426171209004 0.29388471564394114
0.9666653756474333 13.090401167689588 4256.897100726725 23.59287400882193 0.2976495166203128
0.9884989202932261 13.094009839336735 3805.1078900798093 24.50420661046561 0.301258979693209
1.0105283222723243 13.097870643797014 3403.883396510504 25.459166606017742 0.30499083181970416
1.0326997255843902 13.101730364731603 3047.6614603046587 26.47193006964551 0.308943495951724
1.0550166396364486 13.105591483492768 2731.142287112566 27.483444831430123 0.3126859968324837
1.0774817666532197 13.109460917095557 2449.543215335943 28.557064562586497 0.3166582797306242
1.1000557179029453 13.1130773642554 2198.7467243113474 29.677933348611422 0.3207474799895874
1.1227537061737345 13.11657146050026 1975.123265641385 30.817180528869518 0.3247516432204013
1.145542697513455 13.119827161060357 1775.9519793824606 32.02658265070235 0.3290023831751968
1.1684170385707584 13.122736397779871 1598.0047778029839 33.26759816106234 0.3332424972989153
1.1913713906661227 13.12536211822539 1439.0429645840602 34.55344878745065 0.3375456087488101
1.2143920046058942 13.12759526676149 1296.9628788650402 35.918834076928434 0.34211488371130916
1.2374588577491097 13.129464131280532 1169.8946684551386 37.293447113457844 0.34648572281422824
1.2605556192448488 13.130708335573386 1056.0432370690949 38.74769150300429 0.35109469595853704
1.283678339465676 13.131507258291876 954.0049459967429 40.26485400018096 0.35583552896411136
1.306807236768692 13.131744481733973 862.52873469094 41.817403863370494 0.3605419064707629
1.329925776221902 13.131322603348789 780.3869925685048 43.465834994450645 0.36553893708505925
1.3530139879386232 13.130296586551239 706.6594859434135 45.14766831268722 0.3704764946949279
1.376077308130217 13.128598918011734 640.3264906156186 46.911577085258465 0.37560325588304244
1.3990709256312597 13.126098337251598 580.6920375881921 48.760222801739104 0.3809200719452448
1.421987481765105 13.122872104818454 527.0957666263527 50.65269291417209 0.3862028969847781
1.4448216560339413 13.118863863382707 478.75496284160187 52.662532401385 0.3918133583065904
1.467525924205571 13.113927851207372 435.2028937052122 54.71458793229786 0.39734019725632586
1.4901094835743252 13.10811128626711 395.8866208193061 56.87568307096967 0.4031154100984988
1.5125736196782444 13.101530845924179 360.42406072538313 59.126702086761235 0.4090408501322723
1.5348544700012805 13.093870705121004 328.3786494775786 61.456216995863905 0.41504874631140565
1.5569489034824313 13.085295193978444 299.4250637193648 63.92048711937348 0.4213829293651235
1.57885615649338 13.07572359275612 273.2273197231965 66.43820573106821 0.4276615480328831
1.600549299365016 13.065095499146327 249.51599704043514 69.11357152892299 0.4343333029952813
1.62197568185466 13.053382105660312 228.05858946406667 71.86014194186326 0.44099910200635106
1.6431625809520851 13.040575415970325 208.5882693901507 74.75930615909 0.44799677353690515
1.664055110842495 13.026678339664201 190.9553895400084 77.76555582936544 0.4550995333675102
1.6846551993302086 13.011539540453407 174.93552385959046 80.91508121830617 0.4624460306878566
1.7049527528689141 12.995359319144434 160.3910998950413 84.20434356632526 0.4700161354065061
1.7248860078557415 12.977858200579925 147.17983510964794 87.63449797353266 0.4777945365226921
1.7444667496811825 12.959177242677395 135.1621802453303 91.23238775889564 0.4858687111050283
1.7636737655572639 12.939228132872897 124.2339887518317 94.97800567591666 0.49413854346707
1.7824785647720367 12.918000723354735 114.2806484646095 98.91419291779077 0.5027455278302471
1.8008468461175233 12.895470900150357 105.21822279356594 103.01486300084134 0.5115635721873546
1.8187877665761085 12.871651329356112 96.95461995334014 107.32371635257464 0.520729754889932
1.8362594935831775 12.846435584534499 89.4170366426336 111.8243881747032 0.5301509711068589
1.8532422357395502 12.819850248468594 82.53206335636978 116.54596793791336 0.5399253918567243
1.8697292333201234 12.791925326164638 76.25379695472084 121.49834593648359 0.5500601703745556
1.8857008282608656 12.762610506886297 70.50793059237004 126.67849427143938 0.5605162157398706
1.9011275830068375 12.73185679044269 65.25847688161078 132.14238199326314 0.5714596574967228
1.9159854240191678 12.699600341046647 60.45014421319391 137.83457323167084 0.5826534913350059
1.930247909276714 12.665987567883604 56.05672134742773 143.86263625798057 0.5944418806757944
1.943932348979625 12.630954682612357 52.0279566287156 150.145380106962 0.6064918482020809
1.9569905164709096 12.594310253307563 48.333785261592894 156.7817390875702 0.6191236574258834
1.9694102774313647 12.556296983364167 44.94583357814098 163.76349657349218 0.6322676060844425
1.9811490366663775 12.51669214716901 41.83524698717179 171.08693354605347 0.6458675742498864
1.9922396626208876 12.475651157392608 38.983099934214565 178.83675925694055 0.6601537367509471
2.0026485336328252 12.433100519149562 36.358920769174944 186.96986565000904 0.6749214074743006
2.0123228421117485 12.388979912415094 33.950709517415866 195.55013822831648 0.6903258221500503
2.021282519673403 12.343325372899308 31.733354802817413 204.63207459766923 0.7064904990338924
2.029510032762572 12.296311309729003 29.694811171875777 214.1837675301338 0.7232589991301509
2.036978236605527 12.247605399139735 27.817703486484906 224.27969725777163 0.7408026791094986
2.0436577905339544 12.197419797535508 26.089369071110937 234.97531240070745 0.7592198127031384
2.0495727857223884 12.145781425731688 24.49738017751762 246.2844743615688 0.7784620251939156
2.054689140156931 12.092587477828284 23.02883468249787 258.2305211458473 0.7985150499208662
2.0589740817958213 12.037816504833032 21.675664722914515 270.9053329444895 0.8195930126630804
2.0624699696695257 11.981665608512179 20.427492701092795 284.35769730716714 0.8417508220378281
2.065137798388257 11.924064012354954 19.27578142910937 298.63617432010875 0.8650298678626704
2.0669525511521583 11.864932156121897 18.21265232597624 313.76587886929644 0.8893507324703267
2.0669593386753 11.809926229873973 17.371346369896592 333.48490495294936 1.9971812706920131
