M[M_sun], R[km], Lambda[1], P_c[MeV/fm^3], rho_c[fm^-3]
0.23848912294887037 16.21570186450063 2784644.0411725277 3.4469561053153734 0.1694538074003404
0.24848046284491546 15.872599696315186 2285110.310098539 3.6327190738325066 0.1719344861741626
0.25876803210536686 15.568821692526543 1883870.8480940307 3.8173186183916226 0.1742217929955739
0.2693380152789334 15.29942185178025 1559871.3432095048 4.013521891679191 0.17662728171727088
0.28018864315252484 15.059424501244923 1296902.3027318048 4.217724303316483 0.17905970111485184
0.29133014380473177 14.845234658979624 1082278.6978131167 4.424723468077578 0.1813929750773881
0.3027536952638777 14.653627798048364 906383.2092428682 4.646738773513492 0.18389550948160185
0.31446166183807395 14.481916500095647 761658.0164799034 4.8693274067266135 0.18626244155968807
0.3264622200753653 14.327982982960497 642005.1136264575 5.102995027936534 0.18870203785237366
0.33873641688906464 14.189633823425455 542852.3777739176 5.350305792151516 0.1912580928861554
0.35129218838092097 14.065211266112527 460284.411934882 5.59633412796488 0.19364008883782508
0.3641387383944781 13.95333698880232 391320.1095906823 5.859422901720507 0.19618726045504495
0.3772649091591868 13.852467133167048 333530.8330838216 6.130049756630188 0.19871216036614234
0.3906743932948805 13.761816598450233 284998.26651723933 6.40658629664799 0.20117833193036644
0.40437034975258485 13.680213157299306 244076.215385254 6.702049463103877 0.2038132924290485
0.41834873800955397 13.606682443025441 209488.23794194232 6.998891567959649 0.20631299240404796
0.4326157538493657 13.540564847879994 180179.8102911792 7.308982049521791 0.20886957485286484
0.44716908681431217 13.48113549659431 155269.76825138796 7.640037313165019 0.21159900425151956
0.4620001236665679 13.427933384185737 134081.31874223187 7.96629515223221 0.21410460429151873
0.47712545023110037 13.380065210555037 115979.52126823514 8.313489363797297 0.21676686074875376
0.4925223428115552 13.33747579265581 100524.84328502721 8.678374897715278 0.21952954537429753
0.5082007756018163 13.29931407859244 87263.0608764795 9.04298965977578 0.22213317520547146
0.5241602048174142 13.265337462725757 75876.18803515125 9.431391918367476 0.22490666605715806
0.5403928561800567 13.235333425012707 66091.01431161627 9.833315232075233 0.22769621857537664
0.5569137376615102 13.208790602070648 57648.35785332227 10.241014708153171 0.23038808439234482
0.5737138606204931 13.18544850659087 50356.698992130885 10.675079441564435 0.2332540287625991
0.5907802972450763 13.165087288885353 44055.53809978061 11.118725008523114 0.23607507561864635
0.6081190118686062 13.147314753918774 38592.536639836544 11.574202816940206 0.2388726126042408
0.6257487351068766 13.132035193502848 33850.99596604572 12.058902072723532 0.24184962722468148
0.6436298414183609 13.118983080285286 29731.716359958715 12.54912018587502 0.24472863750017315
0.661780451344361 13.107941556489243 26145.918912916088 13.05791338210203 0.24765025823041367
0.6801901124925124 13.098823377569058 23023.415149051998 13.599127216331373 0.25075804656033446
0.6988577821846856 13.09137812068352 20296.404021568822 14.141124639681111 0.2537084668523288
0.7177847765797855 13.085563908650244 17913.990514868485 14.709660794667249 0.2567658209721765
0.7369588904741217 13.081017643212991 15826.896566287864 15.31422484260672 0.260016918314833
0.7563743330207754 13.07771168058244 14001.474857484285 15.913548409208849 0.2630206138941676
0.7760463682455367 13.07558907253392 12397.774093433727 16.548928825994096 0.266198429735531
0.7959386634638613 13.074552044213881 10990.7127858113 17.219240121683573 0.26952890620780123
0.8160666675215877 13.07431635335188 9752.147119383215 17.88812489253221 0.2726658657745812
0.8364289116300686 13.074772271111945 8661.670330577392 18.598456904159818 0.2759972060839713
0.8570086251279934 13.076097678790918 7653.748765572811 19.340278419877773 0.27942545567364957
0.8778002494570757 13.077913992525277 6853.725447656541 20.08893836185529 0.2827316447545319
0.8988013597762881 13.08032251749255 6105.3515478057625 20.883884086709283 0.28624223845407465
0.919992816456256 13.083199920083844 5444.011085281539 21.704890774753064 0.2897820107975349
0.9413814503738195 13.086357153031376 4858.3521687108005 22.543918807957983 0.2932783649057689
0.962946926619338 13.089817593079959 4339.85543788241 23.434773040425977 0.2969906864638811
0.9846796449118818 13.09343727713342 3880.1677944669414 24.343371187089407 0.30063045701211466
1.0065881342645513 13.097214256972897 3472.1847373011697 25.284721970705277 0.3043091262128948
1.028649238068813 13.100993097307711 3109.4085527087504 26.28423251818681 0.30821507575994017
1.050862804394659 13.10489200098498 2787.212007002715 27.290907181480392 0.31197362727373895
1.0732047819786286 13.10865313574684 2500.401702950729 28.348489607225805 0.3158865737865957
1.0956866835815438 13.112402440649792 2244.8807307558254 29.46525223326864 0.31999996012146614
1.1182669143610038 13.115860909515522 2017.2341501430774 30.58711513677051 0.3239430220539948
1.1409564243822297 13.119177751170689 1814.133920936483 31.777599843616574 0.32812727212070925
1.1637237124282325 13.122190460695018 1632.7769105463865 33.01355170978856 0.33239232841394
1.1865802028766024 13.124862539651593 1470.7763364840077 34.278862074361705 0.33662670168073117
1.2095043626204902 13.12725540112703 1325.873517193323 35.621899329997255 0.34112118873370506
1.2324690830284388 13.129143387440147 1196.2307687410246 36.990331676783 0.3455250514736322
1.2554720755830466 13.130523215702759 1080.044423198933 38.420275888430304 0.35005700945587875
1.2784944479883158 13.131354054741816 975.9114307882822 39.92988268211722 0.3548201016892219
1.3015406317571498 13.131752840518724 882.4576222229152 41.455942295652704 0.3594461770309811
1.3245739715365155 13.131490497278907 798.6109074309345 43.075575240377276 0.364355909233993
1.3475923911279544 13.130638579025465 723.3134013892952 44.74799959289472 0.36931486654692064
1.3705540132840404 13.128984686727797 655.5996604189035 46.48044027137295 0.374350166427076
1.393484822469692 13.126757604722036 594.6590832297014 48.317623404760276 0.3796845569632744
1.416350144898132 13.123746541474807 539.7884473540013 50.1756015267144 0.38487109770760647
1.4391120223522724 13.11995084277615 490.4003191899979 52.147956370863504 0.39037692075287506
1.4617671279484876 13.115252552955312 445.8277921170555 54.18586946030217 0.39592727394039995
1.4843097766985212 13.109728699559351 405.6247908477155 56.3057822736467 0.4015924330001897
1.5067130996004823 13.103341424751088 369.3376080619266 58.539864160713904 0.4075273756660246
1.5289610056586194 13.096031840345892 336.56383687385267 60.8240012619915 0.4134182409744026
1.5510293680206027 13.087746860802191 306.93014759042916 63.25008332964349 0.419675187056849
1.5729000313537773 13.078418370143513 280.1102830942055 65.73555359474851 0.42590929311466236
1.5945697641238799 13.068160933717854 255.8387422639948 68.35641026332004 0.4324451146827998
1.6159739404586593 13.056766575668762 233.86812793876405 71.07777699061658 0.43911071882567043
1.6371716460329284 13.044331986709928 213.92248796075205 73.91650176816313 0.4459625085383338
1.6580685240985815 13.030803874231674 195.85637186500034 76.89294212435054 0.45306409835622247
1.6786802964660077 13.01610885112775 179.44977480714326 79.97524904328479 0.46025380370038277
1.6989702703901635 13.000223576459309 164.5550778152972 83.22933614873882 0.4678051565743846
1.7189447075397881 12.983240173009486 151.0117814896334 86.58450093549871 0.4754135072269047
1.7385754958317796 12.965065999733632 138.70053491775607 90.14088237191689 0.48345881058325835
1.7578091021427404 12.945439857207512 127.48424656145001 93.80256724531306 0.49154332980984666
1.7766658612604436 12.924765347465968 117.27969562532066 97.68994135626224 0.5001129081960956
1.7951096225116547 12.902771960141376 107.98657313386761 101.69636686929027 0.5087282898707527
1.8131236584688375 12.879405254167722 99.50999970642414 105.94801032262316 0.5178500017172215
1.8306811807942909 12.854717776377003 91.76910573092063 110.34253117502048 0.5270490130551886
1.8477597456092125 12.828697843279613 84.71306227912517 114.99706192351962 0.5367556379717523
1.8643588631118464 12.801346301904331 78.2642427674049 119.82949913487313 0.5466449640394584
1.8804359086060463 12.772627862690765 72.37438352016325 124.9309959018636 0.5570162084920527
1.89596757452298 12.74235931984068 66.980774155877 130.25891538971126 0.5676873239265032
1.9109730027401717 12.710786335865777 62.04525744754012 135.85891917275038 0.5787814097315319
1.9253952107293657 12.677774634177117 57.53199115818011 141.74850590963462 0.5903244024700557
1.9392299092266654 12.643315088510645 53.391309107444 147.90708367175526 0.6021989150495035
1.9524543898050697 12.607457649555473 49.60405051780571 154.42546203619142 0.6146876991945764
1.9650497129904363 12.569990555645468 46.12005331011269 161.2220531620496 0.6274830512232931
1.9769961310335067 12.531133460203307 42.927027280433435 168.40712167010682 0.6409115901763872
1.9882870888363982 12.490778353336255 39.99591825770318 175.97450432725773 0.6549065382037242
1.9988890103918804 12.448897527622705 37.299638805020365 183.9151035216724 0.6693747296037279
2.0088079479093586 12.405562434620965 34.82313530096039 192.31847198811624 0.6845622534195733
2.0180093900350924 12.360761590969766 32.54622775810925 201.16439086221652 0.7003386540827622
2.026477101857848 12.314327210018275 30.449591387433237 210.48532773960025 0.7167661932556256
2.0341888520845757 12.26641030771178 28.51962588347706 220.35470539173713 0.7340163121729125
2.0411600655819298 12.217026027051872 26.741561996505187 230.7794356925714 0.752040819598933
2.047342194452214 12.166072004502961 25.10367419456345 241.77401910070353 0.7707876158203405
2.0527530936735663 12.11367161745652 23.59317648275662 253.42924986245285 0.790470523109227
2.057366983903631 12.059840097621066 22.20147351336532 265.787356677865 0.8111357300533488
2.0611734917681197 12.004484148030643 20.91683335021169 278.86321797819437 0.8327431484198029
2.064157919112112 11.947636124816656 19.731789723520198 292.7199493526309 0.8553842962794292
2.0663125721624658 11.88931019067551 18.637419689597152 307.44071430491874 0.8791870915113774
2.067618099517393 11.829599510612775 17.62864289190629 323.0878562006249 0.9042165110314032
2.0680892732850022 11.76845800714528 16.696454204885217 339.7299778412068 0.9305548788067897
