M[M_sun], R[km], Lambda[1], P_c[MeV/fm^3], rho_c[fm^-3]
0.23848912294887037 16.21570186450063 2784644.0411725277 3.4469561053153734 0.1694538074003404
0.24847535156831588 15.872813014591081 2285482.964040235 3.6326110757735997 0.17193304396803033
0.25875332910038085 15.569321733300336 1884225.447314779 3.8171065235451813 0.1742191926732016
0.2693189253382614 15.299733075021013 1560308.8487803987 4.013180103530382 0.17662309133082424
0.28016422897937293 15.059927525821038 1297477.6252455842 4.217276291200999 0.1790546511669201
0.29129991030078695 14.845789944891647 1082835.0597600713 4.4241231572892366 0.18138620843398892
0.30271418445470183 14.654185328188358 906962.2894275013 4.645965758939983 0.1838867961383422
0.31441518502957627 14.482579525788166 762172.8104412388 4.868441962683889 0.18625319712097282
0.32640836909695664 14.328556650708896 642502.8500957019 5.101911406877932 0.1886907243554349
0.3386674716762414 14.190162461077422 543290.196118431 5.349106026383049 0.19124647699974137
0.35122286037233896 14.065965033144412 460717.3899832127 5.594909349888201 0.19362629442833376
0.36405992736086285 13.953922123531957 391705.1207314476 5.857746187344248 0.19617102684990695
0.3771746804696699 13.853190013262829 333912.96169719123 6.128251042229897 0.19869611930948533
0.3905769671914673 13.762403138674177 285310.01896557835 6.404505378447047 0.20115977416113165
0.40426331223321266 13.680808009522577 244355.7391424645 6.699654006081328 0.20379192958133244
0.41822842930760723 13.60724092385556 209754.9643270064 6.996369513478048 0.20629219898855794
0.43249037137813595 13.541105380976923 180406.3121898766 7.306111410357061 0.20884590748433268
0.4470323195448266 13.481524270235273 155476.791934583 7.636779593968983 0.21157214554989867
0.4618520579569457 13.428405096854496 134278.08752590578 7.962905546890378 0.2140786130785083
0.4769614198118461 13.380552930430806 116163.3954674319 8.30967409844777 0.21673760561006047
0.4923470900604846 13.337953349954539 100681.96019793648 8.674416809745445 0.21950128158197482
0.5080149954134603 13.299682901047463 87404.22028834467 9.038564632286706 0.222101577105852
0.523961902474641 13.265751871476514 76008.33682026493 9.426451650999367 0.22487138874852441
0.5401801866552527 13.235696435991324 66206.1845900881 9.82822445586515 0.22766260635052518
0.5566889407074597 13.209163099802074 57757.05100386912 10.235361723353355 0.23035076014387423
0.5734757955050795 13.185762661947132 50452.90313118431 10.668807502692632 0.2332126178242836
0.5905287573473674 13.165342223099188 44140.03699734882 11.112294583278047 0.23603558005569303
0.6078678489487983 13.147552246317007 38667.45601893672 11.567099955243158 0.2388289869479874
0.6254690178956552 13.132283590381133 33920.29333093221 12.051060355455906 0.2418014635300264
0.6433294070433904 13.119086086879665 29793.732542978683 12.541106988553738 0.24468262367061927
0.661471668712337 13.10816491442114 26203.97058859935 13.049099717644305 0.24759964791372702
0.6798696674622879 13.099006471098596 23073.505453618833 13.589435496760917 0.2507023942265008
0.6985238992202132 13.091581262468933 20343.05210001168 14.131243091136284 0.25365532793954537
0.7174365530978456 13.085639365020102 17954.66906706124 14.698829650250822 0.2567075755225005
0.7365911279355039 13.081113297801481 15865.807931695283 15.302353548362184 0.2599530793662487
0.7559867118572984 13.077796057643924 14035.13138451527 15.901468709666458 0.2629601980243192
0.7756406508442317 13.075619580150837 12428.729148239774 16.535726213918426 0.2661323976881259
0.7955241329993789 13.074485308944595 10944.265375386953 17.20579004620627 0.2694658275658867
0.8156382182256975 13.074237078634544 9776.89793332372 17.873461857592922 0.27259709855228
0.8359825453721597 13.074827300448186 8684.217628836377 18.58246930952362 0.2759222268945361
0.8565421254089874 13.076057796916425 7721.807470736659 19.324003317270495 0.2793535824993105
0.8773233543350396 13.077937344223704 6871.988248408384 20.071232868439555 0.2826534547703742
0.8983111891250818 13.080340857071635 6121.982297287159 20.864617994524107 0.28615715664317176
0.9194774020790701 13.083140721127274 5458.883445180608 21.685283643503787 0.28970030497701277
0.9408500603724296 13.086293700175503 4871.956341511645 22.522625851486655 0.2931896340018078
0.9624081667391522 13.08969999516238 4327.702163546566 23.411642129866603 0.29689429653296007
0.9841178065771198 13.093286148246008 3891.167417834133 24.319839451207486 0.30053849822954776
1.0060177955510123 13.097110184579325 3482.0594031286146 25.259204534741304 0.3042094075879174
1.0280569155374544 13.100922492994178 3118.697011821199 26.256551452349466 0.3081069019674359
1.0502475512627707 13.104813484334723 2795.6465079269933 27.262748289823925 0.3118694422624994
1.072597278806318 13.10878494490257 2508.0739272064425 28.317991934760983 0.31577373552622334
1.0950368763729985 13.112261197220167 2251.876031685432 29.43415315537705 0.3198906547956654
1.1176083228113958 13.1158080097443 2023.4733280257524 30.553481466295338 0.32382480828180576
1.1402800834662952 13.119083803780814 1819.8466167374947 31.741208818812517 0.327999366951421
1.1630339529170173 13.122079038740583 1638.028537085448 32.976419379730075 0.33226806471537595
1.1858793783652393 13.124760409812652 1475.4579840302345 34.23873660267015 0.3364924214049939
1.2087880021315927 13.127150533752747 1330.1128596818419 35.57851821425219 0.34097601341392775
1.2317210338187758 13.129012155134882 1200.1522591029313 36.946046109921554 0.34538469611808664
1.2547142209479518 13.130428857138726 1083.6099351490518 38.372451206627055 0.3499054374947622
1.2777635693799183 13.131552073473078 979.1774458384145 39.88095296364346 0.3546717768386701
1.30076567268451 13.131802043092192 885.5243354584118 41.40315552174952 0.3592861599576252
1.323786447099679 13.13149081396018 801.3544392619258 43.01859660023994 0.364183184997136
1.346783576868069 13.130621504117086 725.7981745342787 44.689645716817395 0.3691452623181185
1.3697633605651873 13.129116283247455 657.8290627681511 46.41750716737203 0.3741672527752724
1.392672815767522 13.126909689470466 596.7411076575156 48.25208804886461 0.3794994208589896
1.4155167328845535 13.123884708150625 541.6815793049398 50.105976213075635 0.38467673883881387
1.4382578977969154 13.119998752211224 492.118144173651 52.072879535306654 0.390167343975856
1.4609204354919239 13.115409283302895 447.4145630183177 54.10872804478964 0.3957211247128351
1.4834578713478932 13.109891486530591 407.07697547104664 56.22265337529976 0.4013702830944785
1.505849341861102 13.103584456761595 370.6865806455866 58.4542640376721 0.4073066101108669
1.528093776587755 13.09633525421223 337.79599158212585 60.73180574481685 0.4131804656791245
1.5501528993756968 13.088064400288069 308.05886309197376 63.15072161825454 0.41941892990911694
1.5720183234662222 13.078778396898718 281.1425036800625 65.63311322230373 0.42565383008087593
1.593683833003459 13.068549223023421 256.7871267203265 68.2460524543289 0.4321699073596119
1.6151021300592174 13.057246702798059 234.73498674273063 70.96374656833484 0.43883548521355675
1.6362818058846436 13.044868110125229 214.73299091305825 73.79369557952649 0.44566609298350174
1.657197804024113 13.03149185663525 196.59675714484763 76.76579449880413 0.4527675172606564
1.67780076992338 13.016780437767476 180.13087009545526 79.83834487629389 0.45993446476141925
1.6981131113751247 13.001092074450453 165.1790097082395 83.08731177643432 0.46748309453142295
1.7180720837061028 12.983990712375192 151.58070270607988 86.43159618641101 0.4750667722611332
1.7376911666043544 12.965844165065375 139.22432015928146 89.9819388862974 0.4831078842447392
1.7569443135354141 12.946355755333702 127.97162614346159 93.63145059976866 0.49116552673319636
1.7758111986656655 12.92570642305767 117.72619654943227 97.51172715538843 0.49972967796870726
1.7942564837590758 12.903723396644395 108.39658498854813 101.50448966813654 0.5083156788494747
1.8122804069129197 12.880463137942598 99.88829918207152 105.74781919446214 0.5174309434126719
1.82985724639179 12.855965131785105 92.1234408242079 110.12695762305303 0.5265977548599674
1.8469467886470028 12.829935569220297 84.81677762453006 114.77175006407508 0.5362945492193246
1.8635643481448232 12.802713262379452 78.56027207526361 119.58681447162773 0.5461483227668462
1.8796549487177805 12.773983451091652 72.64774212907408 124.67689442566788 0.556507276968081
1.89520279001981 12.743894412570581 67.23957204103229 129.9851290160829 0.5671389661662121
1.9102289831540946 12.712435263884988 62.2886531524391 135.57175911635332 0.5782186051420304
1.9246601527041727 12.67948011234571 57.7526601437048 141.43896871822994 0.5897177409652151
1.938534919779945 12.645108757151442 53.595226519368175 147.5818882356168 0.6015752075517357
1.9517761684415298 12.60929376437944 49.789400858001706 154.08316594424073 0.6140432880606037
1.9644110352436652 12.572039467065089 46.29531443359024 160.8529808987358 0.6267882309162176
1.976386602421125 12.533230313498679 43.08690310837485 168.01800648695186 0.64019196927024
1.9876879804503427 12.492936533247907 40.146444885657814 175.55467422758562 0.6541301138187791
1.998337638106667 12.451226522725149 37.44070307396686 183.4717612013906 0.6685697317237999
2.008276317250348 12.407936594346113 34.95463264349128 191.84952885699167 0.6837259090182548
2.0174999091811436 12.363207689703827 32.66705968469393 200.6580801182927 0.6994356657929186
2.0260021638013384 12.316897076559547 30.563208976710136 209.94893482853166 0.7158245272447433
2.0337693356985493 12.269149354500394 28.624371456454092 219.7855594740397 0.7330322507608675
2.0407814397778705 12.219891131153112 26.839276899054948 230.16435215922468 0.7509773313940109
2.0470327459828934 12.16916163123923 25.194712968230295 241.12035064247016 0.7696754178152739
2.052476426822862 12.116836854183978 23.67774188232232 252.73358193655858 0.7893049319664793
2.057133882836895 12.06309120280715 22.280384465526637 265.0459654767003 0.8099106061789949
2.060975947812599 12.007820316009434 20.991224439682103 278.06084442043976 0.8314172532645716
2.0639825455347296 11.951265055222537 19.804876472416066 292.0995096573819 0.9393417818603826
2.0647076947966148 11.897588203297145 18.87161242058981 307.94135011130857 1.4029880204978271
