M[M_sun], R[km], Lambda[1], P_c[MeV/fm^3], rho_c[fm^-3]
0.23848912294887037 16.21570186450063 2784644.0411725277 3.4469561053153734 0.1694538074003404
0.24848002755473944 15.87263664349454 2285156.6053346456 3.6327091661261335 0.17193435386664677
0.2587641612540781 15.568972504504925 1883897.6010555786 3.8172991605450397 0.17422155443874596
0.26933399088470356 15.299481211635316 1560054.6675230993 4.013490535013008 0.17662689727869557
0.28018569524904763 15.05949701827739 1296995.5855998574 4.217683200727138 0.17905923781055966
0.2913273339364908 14.845342542723149 1082334.714059158 4.424668391903139 0.1813923542642369
0.3027510011472799 14.653636900783823 906402.1318333742 4.646667851062019 0.18389471005079464
0.31445775930774195 14.481993264068029 761666.1786965731 4.86924616809153 0.18626159339137127
0.3264549524339481 14.327983769207592 642068.7826869022 5.102895604827831 0.18870099982987767
0.33873019474263233 14.18971320632257 542893.8215098307 5.350195711472305 0.19125702710756787
0.35128812880462645 14.065186109459182 460324.827472727 5.596203399479111 0.19363882315140388
0.36413235676020334 13.953297951691214 391326.54722146026 5.85926905412683 0.19618577093415662
0.3772536123642397 13.852625544615 328954.32337890455 6.129884713424147 0.19871068849967008
0.39066405026872386 13.761890123211082 285031.7988399483 6.406395355721324 0.20117662910627035
0.4043602472049052 13.680283132944409 244105.91278557995 6.7018296562549295 0.20381133217670552
0.4183387968563873 13.606738870626172 209515.19884619652 6.998660142963665 0.20631108438971624
0.43260534466604855 13.540612758940247 180199.57016558733 7.308718632894067 0.20886740307924645
0.4471550367931637 13.48119601312536 155302.15480158667 7.639738370948086 0.21159653958242952
0.46198966844042405 13.427896142925608 134090.9779314108 7.965984105999017 0.21410221921476563
0.477108788528136 13.380161719438277 116001.71791165028 8.3131392497458 0.21676417610320575
0.49250333580225214 13.33744875013346 100536.05457461503 8.678011675785744 0.21952695169036182
0.5081820859121762 13.299357974956955 87273.14541979096 9.042583579834787 0.2221302754823713
0.5241424070506021 13.265362463196555 75887.6916161498 9.430938545832966 0.2249034286285668
0.5403760960496465 13.235346292311611 66095.9797282386 9.832848045945255 0.22769313394454624
0.5568929709211309 13.208821346866573 57659.913489296174 10.240495916591078 0.23038465903284824
0.5736916804006765 13.185504852033503 50365.823300027194 10.674503834254104 0.23325022827294042
0.5907592783498931 13.165104576271231 44062.732944769356 11.118134855344385 0.2360714509078171
0.6081050367085884 13.147421299916584 38599.847325469476 11.573550936764061 0.23886860876723878
0.6257218076731185 13.13202577804124 33854.882720718444 12.058182366588955 0.24184520680179142
0.6436025934641376 13.118938737089628 29736.68952567888 12.548384741329006 0.24472441438939355
0.6617514271537001 13.10802935796059 26150.59154762458 13.057104453521493 0.24764561315550365
0.6801622976831067 13.098824437667398 23027.102420122766 13.598237678684212 0.25075293860753645
0.6988292863380571 13.091321188171072 20299.70404236301 14.14021767965328 0.2537035895935066
0.7177545303708194 13.085536259479817 17917.024357428876 14.708666655280368 0.2567604748985389
0.7369265544758233 13.081028793152417 15831.992578437748 15.313135207576307 0.26001105870481495
0.7563378452691036 13.077765557546028 14005.102665694103 15.91243964722096 0.2630150684896881
0.7760058789635513 13.075614897119054 12400.094237712132 16.54771696701714 0.2661923686978397
0.7958972079493979 13.074574670386212 10993.13789277658 17.218005550783754 0.2695231162733255
0.8160324414225737 13.074234331146123 9754.190133327054 17.88677895412031 0.2726595535447899
0.8363879717879787 13.074769553045824 8663.785967334112 18.59698934806883 0.27599032348726704
0.8569674015779525 13.076137117127274 7703.3199210240755 19.338784476530016 0.2794188582067532
0.8777578717437237 13.077931978826252 6855.370657475023 20.087313080037816 0.2827244672782212
0.898750999508427 13.080345570166003 6107.067464627683 20.882115506382114 0.28623442815110733
0.9199443061499585 13.083142963965711 5445.124903094364 21.703090893674037 0.28977451042644364
0.9413341778516875 13.086372713857749 4859.421369517732 22.54196412542882 0.2932702194541026
0.9629025019629852 13.089790798876983 4340.867399299076 23.43264958194718 0.2969818376978302
0.9846312760261152 13.093384192159803 3881.0525605933126 24.34121094027386 0.30062201506511177
1.0065403376470734 13.097206740766946 3472.9596861525165 25.282379375633457 0.304299971674023
1.028594074446737 13.101027178501106 3110.470437622392 26.28169122917305 0.3082051447525114
1.0508099887859685 13.1049468777889 2788.021925266111 27.288322036041155 0.3119640625007384
1.0731470224391175 13.108654841478776 2501.0729418546007 28.34568967710191 0.31587621433228946
1.0956271892639373 13.112344295755689 2245.4988605939557 29.462397100060286 0.3199899250565478
1.1182057884978747 13.11583681519083 2017.7877568453048 30.58402722964538 0.32393216884813664
1.1408987848279901 13.11920744041408 1814.6475429159425 31.774258696235627 0.3281155288399504
1.1636604141040945 13.122107573564891 1633.2618910868816 33.010142514304135 0.3323809195085642
1.1865151682063337 13.124742359979505 1471.1135691074103 34.27517797546368 0.3366143728084459
1.2094414010259638 13.127222037082902 1326.219078727153 35.617916208417945 0.3411078591791499
1.2323853799878441 13.129077731904761 1196.607317338741 36.98626552700551 0.3455121645233645
1.2554008690073986 13.130447005251105 1080.3623276736023 38.41588467013311 0.3500430922578149
1.2784307707748501 13.131423312536477 976.1725432713691 39.92249934160346 0.3547901786681618
1.3014672980018611 13.131730737667596 882.7405053911152 41.41825138147172 0.35924782310151715
1.3245407918769612 13.131553558981524 798.7823714387962 43.00455391653539 0.3639753263751659
1.347571899788159 13.130657994662785 723.3836163249276 44.68825478325101 0.3689930964305632
1.3705711056694325 13.129136591654529 655.6179125557551 46.476816992035225 0.3743233745523292
1.3910084841968402 13.125621234991673 600.3665849686611 48.38850713505382 0.5712350800406436
1.4043522629539373 13.114282572649453 563.4330515954638 50.68785264977241 0.7761944700403035
1.412708900386877 13.094775874063819 536.7764145250509 53.16899815082957 0.9906934534403817
1.4166058214639732 13.067172855866561 517.9074527958599 55.973964246331626 1.1904128981058562
1.417478584719914 13.03152652958189 503.0724839912793 59.18281655717353 1.3668675339072447
