M[M_sun], R[km], Lambda[1], P_c[MeV/fm^3], rho_c[fm^-3]
0.23848912294887037 16.21570186450063 2784644.0411725277 3.4469561053153734 0.1694538074003404
0.24847771520489642 15.872651054144702 2285056.727630323 3.6326326373256497 0.1719333319010071
0.2587546362434664 15.569248595453928 1884317.0822491148 3.8171488671271074 0.17421971181341292
0.269322302707186 15.29975219099295 1560259.5475115462 4.0132483385357185 0.17662392790471526
0.28016836862525235 15.059878005606496 1297362.2324969678 4.2173657317023645 0.17905565933134082
0.29130490300233686 14.845704762466008 1082766.243881071 4.42424300048812 0.18138755929458714
0.3027219865760026 14.654039847497407 906819.9104944867 4.646120077261058 0.1838885355990831
0.31442189034764034 14.48252761091879 762079.4473617793 4.86861872355529 0.18625504258490286
0.32641732595583867 14.328398580753783 642397.5062499174 5.102127726065695 0.18869298282618824
0.3386809435654868 14.190006750261464 534583.5299003655 5.349345528801752 0.19124879581310034
0.3512389092043602 14.065670082503784 460584.5343515457 5.595193765402273 0.19362904808108222
0.36407609957707504 13.953787108759183 391613.55614131666 5.858080888764955 0.19617426736050303
0.3771904260842139 13.853043550649994 333844.6040168542 6.128610094199014 0.19869932135922624
0.390593480128371 13.762369025273609 285274.20272095315 6.40492075554799 0.20116347852220706
0.40428428988650333 13.680704849091313 244310.65926517607 6.70013216047693 0.20379619379456684
0.41825347980825794 13.60714959279306 207104.210509248 6.996872934817633 0.2062963495131231
0.4325158464164298 13.540951855010283 180355.4684677707 7.3066844016539045 0.20885063158771522
0.4470556323559019 13.48152366919877 155443.32173583892 7.637429836112278 0.2115775065582168
0.4618807575728604 13.428313610986665 134235.9733658027 7.963582110534668 0.21408380091249501
0.4769956252235244 13.380484639163573 116128.52040779691 8.31043560975012 0.21674344481565322
0.4923815758943608 13.337810446014522 100647.5294185728 8.67520682492908 0.21950692289799717
0.5080506064986007 13.299703959915222 86496.57206814205 9.03944783030245 0.22210788381896376
0.524000882920731 13.265668553519877 75981.22082465758 9.427437668144172 0.22487842966929725
0.5402211739830431 13.235638595582563 66185.35209382858 9.82924051030379 0.22766931492478645
0.5567343524454487 13.209019411504936 57728.39263430505 10.236489966549808 0.2303582094526714
0.5735243577472806 13.185740451253535 50435.455466866 10.670059255111362 0.23322088261181706
0.5905783269029563 13.165293614609219 44123.41377516631 11.113577964886602 0.23604346256379818
0.6079199244142677 13.147545210296315 38653.667976739605 11.568517514514651 0.23883769357302598
0.625524689181398 13.132240052430681 33906.77934736339 12.052625341895032 0.24181107565023183
0.6433839714706829 13.119153770717633 29784.497190371454 12.542706197367739 0.2446918067368584
0.6615316162419623 13.10807595760986 26192.346966129986 13.05085864301119 0.24760974811328343
0.6799343344104685 13.098947290853094 23064.533601014424 13.591369615254074 0.25071350042981927
0.6985934265595191 13.091494507852591 20332.389503494265 14.133215094085081 0.25366593256211334
0.7175080948441911 13.08558977531324 17945.612572540063 14.700991115529842 0.25671919899572687
0.7366646036289719 13.081101256717726 15858.29142717708 15.304722537803388 0.2599658188192534
0.7560663251350774 13.07773536554902 14027.664730186132 15.903879291531869 0.262972254400368
0.7757166491703438 13.075636005808708 12422.080379606563 16.538360826603864 0.2661455745404595
0.7956045307314651 13.074504175770372 11012.278463432236 17.208474045744712 0.2694784150822966
0.8157247370477596 13.074221602142837 9771.986436014136 17.876387847114298 0.2726108209619108
0.836070810187754 13.074797424203606 8679.830782410227 18.585659546750797 0.2759371885824474
0.856636029570664 13.076056773439479 7717.8050714811425 19.327250932973268 0.27936792443344294
0.8774178400717924 13.07788117046247 6868.303527505203 20.074765838008293 0.2826690568678771
0.8984034275431065 13.08027235219309 6118.530119335801 20.868462285292487 0.2861741335794943
0.9195838777008503 13.083106742063231 5455.776993217301 21.68919599517407 0.2897166083259998
0.940954607457097 13.086286679604134 4869.274565079661 22.526874497331743 0.29320733873843996
0.9625137399091405 13.089723598237201 4349.675736623272 23.41625740707936 0.2969135290768142
0.9842309416563926 13.093348006187332 3889.0310491124956 24.324534720111096 0.3005568466936971
1.0061323116287677 13.097176134078188 3480.196543618201 25.26429589738655 0.30422930393185116
1.0281786237743673 13.100987164954455 3116.810700272608 26.262074388940345 0.30812848484290417
1.0503877176164405 13.104984220984141 2793.969190295691 27.26836658323128 0.3118902293719117
1.0727028817573268 13.108561026652817 2506.3609834858194 28.324076727549528 0.3157962486355033
1.0951837461087786 13.112458695770215 2250.5233079286695 29.440357959131788 0.319912463098095
1.1177353823476681 13.11578230439748 2022.262215682054 30.56019181387037 0.32384839344180577
1.140416351635928 13.11908537033736 1818.6871131088271 31.748469126089667 0.3280248850794861
1.163170649059585 13.122102153123897 1637.0196536386459 32.98382760821437 0.33229285642302847
1.1860193461615922 13.124823352398531 1474.543131890593 34.246741803700104 0.3365192108869942
1.2089311560413136 13.127169326568456 1329.2808147560752 35.58717272417636 0.34100497581436806
1.2318663066177924 13.129002095381281 1199.3584590581133 36.95488108753236 0.3454126970337728
1.2548674147490932 13.13041998697345 1082.8742634242496 38.38199201017108 0.34993567540224574
1.2778964959395345 13.131411099000097 978.480284903203 39.89071424548065 0.3547013670491773
1.3009129792875331 13.131698906039421 884.8470919999779 41.41368601731285 0.3593180819516482
1.3239500460705362 13.131467003088634 800.7769211662776 43.02996305583733 0.3642176411084804
1.3469488351415648 13.130605921751071 725.2362555575914 44.7012865439832 0.36917909612054595
1.3699243960520462 13.129104019251846 657.3457591732522 46.43006117801679 0.3742037407249496
1.3928395383025465 13.126835595007973 596.2937145905145 48.26563467587396 0.3795387938258127
1.4156726284231667 13.123812584171775 541.3108505128332 50.11986487598561 0.3847155090025826
1.4384427288316999 13.120105664343345 491.7684021831413 52.08785526751298 0.3902091486905329
1.461082292146845 13.115427759578287 447.12681912246757 54.124115627496636 0.3957622457924531
1.4836429042347195 13.110099769938737 406.8215523123556 56.23923486463734 0.4014145947161425
1.506014793492663 13.10353320794326 370.42050883564866 58.47133846933056 0.40735064563616913
1.5282607147251397 13.096256858015039 337.54633536875235 60.750195258741755 0.41322789284518974
1.5503287763196123 13.088072084251571 307.84950020110006 63.17053998222435 0.41947004212681754
1.5721933242653483 13.078719877809702 280.9472118840325 65.65354564996791 0.42570478391708466
1.5938624113658737 13.068528799892574 256.6070252386587 68.26806346692659 0.43222479782828865
1.615283297010994 13.05720649211179 234.55748158202363 70.98649007090853 0.4388903808829774
1.636461644875006 13.044819601752863 214.57557527843932 73.81818873949821 0.4457252117761555
1.6573582161604923 13.031260150336761 196.44761179666668 76.79115349649307 0.4528266689694258
1.6779785618659675 13.016674375319852 179.9919165007698 79.86564900019842 0.459998153618732
1.6982625784509513 13.000805438530213 165.05077733052016 83.11563699673484 0.46754732631199203
1.7182429033716553 12.983823162261912 151.46435007844389 86.46209050398969 0.47513592280240124
1.7378659424418865 12.965626859612057 139.1139243146075 90.01363741033528 0.48317787042211363
1.757120541850869 12.946216519240524 127.87490926959623 93.6655758502067 0.49124087080370415
1.7759748938584254 12.925484100488852 117.63663559297328 97.54726767576564 0.49980610398660524
1.7944322500127112 12.903542407178326 108.31212578915938 101.54275379978766 0.5083979616967539
1.812451017095679 12.880279415479695 99.8091139335372 105.78774105107233 0.5175145114793451
1.8300132903092594 12.855653161370173 92.05164747395543 110.16994570826661 0.526687741435651
1.8471119082584413 12.829723477900263 84.97146940578082 114.81667977193416 0.5363864954799199
1.8637228242203183 12.802512448162389 78.5089790983248 119.63520699603431 0.5462473554975709
1.879806769066315 12.773740578960894 72.59358702314155 124.72756309718423 0.5566087595906871
1.895365364237577 12.743620327443583 67.19004956683092 130.03972116871324 0.5672483070006339
1.9103817770585103 12.7121044532379 62.23844426378517 135.62901739134279 0.5783308255544211
1.9248098218482586 12.679184937647882 57.71032328520623 141.5006868481396 0.5898387022409733
1.9386784973725528 12.644789194291334 53.55483328639113 147.6467277353428 0.6016995662531087
1.9519217454926907 12.608949560457448 49.749846346689864 154.15141425800252 0.6141717732355654
1.964526802805225 12.571616476555594 46.26162902319729 160.92656544723735 0.6269267621570288
1.976503152663615 12.53280523539732 43.05206868418443 168.09558609381855 0.6403354432579146
1.9878151014827743 12.492541801310088 40.11373379230738 175.63837467148744 0.6542849075454005
1.998443770888882 12.450741112580577 37.41286865903184 183.56014790677406 0.6687302196970714
2.0083805659900555 12.40744875738338 34.92711976427922 191.94301795882726 0.6838926437067809
2.017612389620457 12.362722770259191 32.643990012173695 200.75901520426902 0.6996156801452995
2.0261060236329027 12.316405686294512 30.539446913128764 210.05586504715208 0.716012248876281
2.033864114171611 12.26861645823455 28.60227838384716 219.8990169013161 0.7332284202713936
2.040865756753856 12.219334035752349 26.819464719510353 230.28696245460296 0.7511893263440745
2.04708599568252 12.16853853220486 25.176019723594052 241.25064978849753 0.7698971180494647
2.052522020173472 12.116204475088077 23.662169088229078 252.87225007966995 0.7895372703471573
2.0571700766458174 12.062385395100998 22.265018680997606 265.19374433287925 0.8101548057386135
2.061013774737156 12.007141688288003 20.97610738753723 278.22077225221216 0.8316815285952879
2.0640113033518848 11.950372721645946 19.78767754020875 292.03417459107817 0.8542662371135086
2.0662055511512882 11.892114853049387 18.689065127597768 306.7077171718588 0.8780092692415322
2.0675847221603436 11.83256781471148 17.675388442592865 322.30337824797215 0.9029730170866308
2.0680974914082446 11.771509338518793 16.739968630298254 338.88934473035965 0.9292389642883755
