M[M_sun], R[km], Lambda[1], P_c[MeV/fm^3], rho_c[fm^-3]
0.23848912294887037 16.21570186450063 2784644.0411725277 3.4469561053153734 0.1694538074003404
0.24847983024216505 15.872653028142189 2285155.96523932 3.632714106834989 0.17193441984487526
0.25876469300427296 15.56895024222728 1883830.745215543 3.8173088636455694 0.17422167340056804
0.26933674605758745 15.299292633438458 1559846.9895152175 4.013506171717266 0.17662708898760596
0.28018751702750316 15.059445042021355 1296925.3932577188 4.217703697438742 0.17905946884745083
0.2913308455261139 14.845188951992284 1082305.2332072684 4.42469585682452 0.18139266384609445
0.3027516236822403 14.653684937674658 906459.0848368038 4.646703218036159 0.18389510870380366
0.3144604037356035 14.481959713870971 761706.9799227447 4.869286679422189 0.18626201634809747
0.3264560193175308 14.327943500716414 642050.5765064191 5.102945184174918 0.18870151746082167
0.3387328948961893 14.189733582368126 542870.3080986498 5.350250605402521 0.19125755857935592
0.35128987987481985 14.065210471187626 460307.27823617647 5.596268589786976 0.19363945431061125
0.36413545077836523 13.953336104104142 391348.4569057378 5.859345773151487 0.19618651371203846
0.3772606851086292 13.852505364793826 333564.80369887146 6.12996701531689 0.1987114224735151
0.39066779957485326 13.761898741375063 285022.4041279033 6.4064905719033645 0.20117747825062063
0.4043651838219351 13.680254671281714 244097.33831804965 6.701939266843824 0.2038123096913495
0.41834359942820565 13.606706363920905 209504.8789495149 6.998775547108022 0.2063120358546193
0.4326108613812914 13.540596509401494 180182.17816967852 7.3088499900937425 0.20886848607124775
0.4471630909688015 13.481152741986147 155283.18810936122 7.639887443432624 0.21159776863046625
0.4619942373878884 13.427906968957792 134089.9690258888 7.96613921431167 0.2141034085724599
0.47711848611771723 13.380115518512655 115987.78629412584 8.313313839684804 0.2167655148443973
0.492516488696468 13.337463118861942 100519.42418843096 8.678192802138009 0.2195282450718237
0.5081924667300005 13.299332981349071 86386.30263785068 9.04278607780013 0.22213172147358773
0.5241509638314015 13.2653571094813 75883.71840317809 9.43116462673016 0.2249050430200546
0.5403844965594682 13.235341320429907 66096.84748309781 9.833081015163348 0.22769467214096636
0.5569035120793762 13.208843334283086 57652.19519186522 10.240754619338924 0.23038636713679378
0.5737025588049182 13.185496725650415 50363.81968531263 10.67479086866355 0.23325212343876825
0.590769077942584 13.165102452618557 44058.46422507581 11.118429143229164 0.2360732584190215
0.6081071555231085 13.147308798519395 38596.23098190598 11.57387600529824 0.23887060533267054
0.6257320661657911 13.131984092746068 33852.64001890515 12.058541257017904 0.24184741110072808
0.6436157357895145 13.11897619675353 29734.29063140783 12.548751479909855 0.24472652029617126
0.6617649985623879 13.107997166571137 26150.734117975255 13.057507835380795 0.24764792947736308
0.6801761409112455 13.09882759228808 23024.328225293622 13.59868125670513 0.25075548574604184
0.698842704800955 13.091390540487492 20298.708405174264 14.140669945560305 0.25370602169394907
0.7177686299729714 13.085564046846917 17915.57355263874 14.70916239359742 0.25676314077576184
0.7369431019510662 13.081032964252014 15829.785951554875 15.31367856518782 0.260013980659061
0.756355340536334 13.077731093692673 14002.786778649257 15.912992542735717 0.2630178337623956
0.7760229440893035 13.075621950463228 12399.603756999839 16.54832127219415 0.26619539109279206
0.7959194586377889 13.074552256855986 10992.270452294215 17.218621181545487 0.26952600348034794
0.8160509491010856 13.074255942134391 9752.725786262901 17.887450118589662 0.2726627011957677
0.8364084040142585 13.074808380733142 8662.928614333723 18.59772115742748 0.27599375555280165
0.856984464380842 13.076052619032058 7654.431675933565 19.339529444222435 0.2794221480903335
0.8777807650249871 13.077913601955334 6854.508038000733 20.088123539818177 0.28272804638420257
0.8987730624427831 13.080331026914768 6106.235357679268 20.88299742202915 0.2862383228163872
0.9199679991691174 13.083167852596105 5444.75572724135 21.703988417818824 0.2897782505425145
0.9413545397862421 13.086285186476053 4858.911395106793 22.542938841278144 0.29327428123944144
0.9629276868806547 13.089767826745277 4340.268924734111 23.433708457749837 0.29698625019016206
0.9846547105702574 13.093411176778757 3880.613392929849 24.34228816101542 0.30062622469539346
1.006568977567217 13.09719620975862 3472.3872218519273 25.283547524017212 0.3043045366370061
1.0286199411482146 13.101042858593944 3109.9327325449513 26.282958455788513 0.3082100968995769
1.0508350482400106 13.104870230596507 2787.4992712149583 27.289611132159486 0.3119688320241705
1.0731775518587794 13.108632680989155 2500.64852186364 28.347085874908476 0.31588138012098405
1.095653936644171 13.112386926789977 2245.208677516052 29.46382082540567 0.3199949290879622
1.1182380890256116 13.115896380765284 2017.484840432917 30.58556702678396 0.3239375808422956
1.1409239957601187 13.119198028431937 1814.4683336152316 31.775924770420033 0.3281213846657137
1.1636973879362622 13.122142864123553 1633.0020781701573 33.011842521226434 0.33238660859802927
1.1865465276112328 13.124856112350837 1470.9564460084682 34.27701506145901 0.3366205206343432
1.2094743148222864 13.127191594681731 1326.0786590140276 35.61990240017664 0.3411145059889139
1.232428676572073 13.129063944591701 1196.3818001162776 36.98829312134337 0.34551859062885126
1.2554318669032334 13.130417561017317 1080.1215406779506 38.418074357579926 0.3500500320890491
1.2784655560499216 13.131394373683342 976.0460734679438 39.9276302905673 0.35481327382161
1.3015064611034524 13.131745029266359 882.6121663344561 41.453512281860455 0.35943881072183775
1.3245389133743135 13.131483051052905 798.746481087734 43.072952178978866 0.3643479577230904
1.3475648521613495 13.130708733056412 723.4362886843168 44.74531322980289 0.3693070586929939
1.370527735327751 13.129012786728142 655.6600474720665 46.47754301442333 0.3743417456148933
1.393448914163784 13.126759534547535 594.753318820328 48.314649070422746 0.3796762541172686
1.416303272479271 13.123703764921213 539.8817514498186 50.172396091390446 0.38486214974384164
1.4390744877523185 13.119951319974252 490.4507285920059 52.14449985053501 0.39036727188602055
1.4617267446030138 13.11525360547288 445.8863887274563 54.18176955113418 0.39591535848388754
1.484262215995407 13.109761471114275 405.70999700566716 56.300373667875384 0.4015752658890677
1.5066174571809474 13.103358789020323 369.49256353741407 58.57652957452309 0.4382766577713961
1.5242969524187475 13.093811376398806 342.23970233723924 61.189188516210585 0.701649647777295
1.5346669582287913 13.076698945522196 324.5292349206467 63.97928567947513 0.9829095629430061
1.5388533526406132 13.050751686562382 313.2511649186082 67.40738164061007 1.2244547824143501
1.5391162787272232 13.016419437220144 305.18320779537703 71.2798942051845 1.461763179073172
