M[M_sun], R[km], Lambda[1], P_c[MeV/fm^3], rho_c[fm^-3]
0.23848912294887037 16.21570186450063 2784644.0411725277 3.4469561053153734 0.1694538074003404
0.248478606950572 15.87270202098195 2285366.123288633 3.6326950963295626 0.17193416597857636
0.2587618424377417 15.569064711900442 1884161.4373010073 3.8172715288430212 0.17422121566892598
0.2693328577383831 15.299480583064048 1560077.1159585002 4.013446006239374 0.17662635134762636
0.28018324497972286 15.0595145061125 1297024.1803710503 4.217624832240283 0.1790585798867909
0.29132501208514966 14.845325024171462 1082337.626027524 4.424590180330921 0.1813914726711868
0.3027444164332041 14.653698707172468 906496.3147727759 4.64656713727525 0.18389357481502394
0.3144508975676146 14.482120298444242 761798.2075090414 4.86913080510922 0.1862603889493416
0.32644796023823164 14.328058383570013 642117.5806474243 5.102754419638539 0.18869952579225707
0.33871644444287685 14.189660678769098 542955.8992238368 5.350039392480324 0.1912555136591074
0.35127671246243064 14.06539567115253 460378.5302071813 5.596017760646255 0.19363702583424983
0.3641210440690323 13.953514541727536 391418.5882844278 5.85905058644482 0.19618365577480965
0.3772428664198362 13.852734963095505 333645.4313382207 6.129650348178231 0.19870859841455843
0.3906533729881158 13.761926233470975 285061.4271960166 6.406124216410363 0.20117421106755984
0.4043481462638491 13.680322228837296 244143.1821547889 6.701517528400982 0.20380854859939684
0.41832175335443234 13.606800158315401 209544.07228853877 6.99833151777673 0.20630837499541002
0.43258802143835995 13.54072340220106 180227.63635857223 7.308344581204651 0.20886431916006487
0.447138294286927 13.481221199952232 155308.89397525284 7.63931387506792 0.21159303976937058
0.46196903807971157 13.427980200354106 134120.84824610953 7.9655424230482454 0.21409883242648237
0.47708777771484956 13.380274547861282 116024.95080017416 8.312642093346003 0.21676036394911008
0.4924828127273723 13.337502838259969 100551.42775863744 8.677495906937276 0.21952326870409908
0.5081614679623597 13.299353664496849 87288.71608220918 9.042006956256245 0.22212615794653165
0.5241135856181885 13.26545248510227 75907.30717284225 9.430294771259181 0.2248988315829744
0.5403439229554863 13.235439351985418 66118.58026557817 9.832184656946819 0.22768875386982693
0.5568626757763926 13.208881578500218 57673.11119401265 10.23975925336506 0.23037979515964485
0.5736633891688435 13.185525306292408 50377.65225600096 10.673686499266902 0.2332448317584925
0.5907264156010237 13.16513397524116 44073.189613387425 11.117296866186697 0.23606630399260226
0.6080711548616663 13.147401406549028 38608.18563027446 11.572625303113098 0.23886292354103053
0.6256842626800649 13.13206970852422 33865.053724530604 12.057160429371894 0.24183893008071117
0.6435588546631944 13.11902956327614 29747.241863796244 12.547340456603676 0.24471841783927373
0.6617124417021513 13.108004957547552 26160.180380265025 13.055955832306886 0.24763901747856326
0.6801203320562706 13.098854304242222 23032.448919653903 13.59697460529969 0.2507456857169487
0.6987812838164688 13.0914015569224 20306.512400924592 14.138929867603196 0.25369666426880666
0.7177081780147907 13.085585274369713 17922.217756665697 14.707255063168395 0.2567528839354643
0.7368778361751063 13.081038874449659 15836.676562461193 15.311588028651395 0.26000273861150386
0.7562904481961465 13.077712765069844 14008.529692721937 15.910865309120426 0.26300719453508803
0.7759511232835061 13.075653095923656 12404.774809809544 16.545996250567818 0.2661837626409851
0.7958468669035629 13.074525777649766 10996.159473220994 17.216252584819877 0.2695148951512574
0.8159749196071953 13.074249386279984 9757.615423177824 17.88486786830383 0.27265059086661836
0.8363317009366884 13.074786465371103 8666.736816252844 18.594905590447148 0.2759805510067277
0.8569074595879999 13.076091222415144 7706.012182247454 19.336663250678853 0.2794094905708561
0.8776909621106388 13.077956185847098 6858.2193477697665 20.085005382147916 0.2827142761552056
0.8986986479476355 13.080396520872398 6109.087183995865 20.87960435730928 0.2862233385586508
0.9198793212508007 13.083180277065662 5447.358774168643 21.70053529967792 0.28976386088767536
0.9412597222795404 13.086284631361094 4861.345734829041 22.539188750192263 0.2932586540543469
0.9628303048591601 13.08976870079208 4342.51862675378 23.429634586816242 0.29696927376647725
0.9845545539730314 13.09342453083144 3882.6545115237254 24.338143708353172 0.30061002874524606
1.0064643646623825 13.097153378224013 3474.1715103178576 25.279053256274928 0.30428697365770935
1.028516078944023 13.101031170370613 3111.649841129039 26.278083017899387 0.3081910443598487
1.0507259536127125 13.104830427884638 2789.007972496734 27.284651552102698 0.31195048208659965
1.0730703378528983 13.108683788312028 2502.025944923166 28.341714258808324 0.3158615056923099
1.0955434210525754 13.11235385760008 2246.5105813851806 29.45834329917063 0.31997567698049484
1.1181191891895617 13.11585922889983 2018.6779967946077 30.579642957009053 0.3239167592481934
1.140799293650114 13.119184099788457 1815.427269206497 31.769514898398043 0.3280988556006351
1.163569094568066 13.122102522449918 1633.9505905690714 33.00530209653751 0.3323647210040984
1.1864317131389635 13.124856245878147 1471.7025909262597 34.269947280101135 0.33659686823626345
1.2093505603758947 13.127175856175022 1326.7091536519786 35.61226099701006 0.34108893395995143
1.2322854646155188 13.129023358647217 1197.0774387987892 36.98049242720985 0.34549386769367835
1.255298594064928 13.130479704564639 1080.8569996606816 38.40965008096476 0.3500233328183085
1.2783282993266183 13.131370340109482 976.5858688386979 39.91901138574583 0.3547871465964912
1.3013717101615863 13.131733559815478 883.1268031543716 41.44421375743442 0.3594106233075451
1.3244098574911525 13.1315332091986 799.2521513608681 43.06291502045445 0.36431753122392924
1.3474094448276899 13.130606286668257 723.8621641869202 44.73503383944417 0.369277181876036
1.370398846327793 13.129137501352817 656.0827314571959 46.466456713413834 0.3743095235302713
1.393300366724175 13.126743226604093 595.1107153930566 48.3032678281893 0.37964448341132356
1.4161429439433924 13.123722223779074 540.2249015931893 50.16013063031134 0.3848279107434557
1.4389273043727273 13.11996944981586 490.7602701659715 52.13127371776281 0.3903303511732832
1.461575944787449 13.115282143181377 446.19626534370286 54.1687280680273 0.3958814660594663
1.4841134440136337 13.109795542025646 405.98094786835713 56.28730995220049 0.40154306840437354
1.5065158634696632 13.103401241227704 369.6484086909781 58.520842716196405 0.4074783187300111
1.5287674289196809 13.096109569874303 336.84427057520537 60.803513712971274 0.413365402906272
1.5508351555825144 13.08783144544429 307.18091572232856 63.228002741552054 0.41961824048814095
1.5727057839364758 13.07850241226776 280.3413777682896 65.71278885759683 0.4258525230280517
1.5943677406122596 13.068184899032993 256.0480559471634 68.33188542863621 0.43238395531250545
1.6157843114834896 13.056851005148928 234.05636479952756 71.05243597133172 0.4390495535670241
1.6369654343052773 13.044463193201937 214.11541729066127 73.88920977190568 0.445896634234254
1.6578626818508928 13.030926913839968 196.0263419736931 76.86468525656518 0.45299818715442824
1.6784847428858363 13.016247029795128 179.59911996431015 79.94482308042194 0.46018283292636525
1.698779632785925 13.000391210386798 164.6890918854067 83.19777217521714 0.4677335804242391
1.718754253486753 12.983410435250196 151.135036959168 86.55051792259177 0.47533644553400495
1.7383623612997685 12.965158371535418 138.80923541497833 90.10555712319035 0.4833808170741531
1.757614774985444 12.945658659268378 127.59568562597072 93.76453542558218 0.4914593605474805
1.7764740798960759 12.924962053280522 117.3794918971812 97.65033187005069 0.500027732310374
1.7949253145236437 12.903059052311788 108.08026553596926 101.6537194368915 0.5086365812126571
1.8129369506537438 12.879600149481085 99.59491878909766 105.90351474479533 0.5177568595206828
1.8304936344298497 12.854990849176849 91.84923368752908 110.29461519248645 0.5269487109559597
1.847578973295326 12.828955534876881 84.78618371489105 114.94698104209888 0.5366531501080789
1.8641668298165208 12.801625114079268 78.33099357274473 119.7755550975514 0.5465345704324334
1.8802538307301857 12.772865749943323 72.43251496422955 124.87451367430143 0.5569030820884564
1.8958049085519597 12.74273144829069 67.03992956464107 130.1980556635683 0.5675654299743778
1.9108060220531866 12.711148284661284 62.098386249252584 135.79508602896556 0.5786563032430628
1.9252346404391962 12.678113437862825 57.57680307251465 141.6796963249674 0.5901895426621203
1.9390761007617563 12.643720072559159 53.43716808676468 147.83479252538123 0.602060264487395
1.9522895599942511 12.607807551575775 49.64212982106167 154.34936851388906 0.614544444526621
1.9649101685271235 12.570502455578044 46.1602144743895 161.14000450256268 0.6273285853355887
1.9768676578546867 12.531578977247955 42.9616973404031 168.32061613157782 0.6407516087705776
1.9881587026382095 12.491274874464132 40.02874714751965 175.881167276286 0.6547339227517832
1.9987760927407339 12.44944863957604 37.328764853665504 183.8165377924765 0.6691957590895081
2.008706900481665 12.406132806758663 34.849812585362145 192.2142129596419 0.6843763109268401
2.017879517512904 12.361200773450058 32.57274976569271 201.0518200051862 0.7001378877215978
2.0263787423724016 12.314955002744478 30.47391047365176 210.3660665253213 0.716556823911651
2.034101066750411 12.26700109053928 28.542712992630182 220.22815960075536 0.7337975126948003
2.041074780773186 12.217667497360582 26.76298342139341 230.6426709452326 0.7518043513994795
2.0472708157826127 12.166762459434034 25.124666054039277 241.62867207885435 0.770540312059991
2.0527099103852344 12.1144159346045 23.61237397260841 253.27456078937524 0.7902113416711475
2.057309462614588 12.06052558168104 22.218662243324296 265.62249692568383 0.8108633048910324
2.0611264015023134 12.005166839069801 20.93341970887939 278.68479090782023 0.8324483037232339
2.064133689687785 11.948479488228488 19.747746244117568 292.52948511559555 0.8550737711654467
2.0662789892603475 11.89009918098281 18.65209576775288 307.2371309584354 0.8788599619927984
2.067601591594257 11.830412672707924 17.641999300359462 322.86997029883145 0.9038711351051388
2.0680686884431325 11.769256844093992 16.708905941436143 339.4964903146712 0.9301893809194567
