M[M_sun], R[km], Lambda[1], P_c[MeV/fm^3], rho_c[fm^-3]
0.23848912294887037 16.21570186450063 2784644.0411725277 3.4469561053153734 0.1694538074003404
0.24846646192939562 15.873118188178193 2285875.0299559836 3.632438176923304 0.17193073507669762
0.25873429683664617 15.569834093787893 1885076.9373857696 3.8167669883113815 0.17421502990791313
0.269289784989814 15.30046907758668 1561167.937852988 4.012632976487654 0.17661638345124323
0.28012352145912467 15.06084748686342 1298372.3359590198 4.2165591540684595 0.17904656766860813
0.29124865142366146 14.846728361126605 1062904.6964065968 4.423162286187389 0.18137537759065733
0.3026555863977969 14.65515367113265 907800.2729901951 4.6447285230748765 0.18387285013893248
0.314337698487958 14.483630112641366 763016.0102609986 4.867024830502645 0.18623840161615401
0.32631987308752003 14.32960277380182 643244.3557523921 5.100177193186169 0.1886726183753627
0.33856853766315687 14.191172808118285 544008.5783688908 5.347185996044551 0.19122788765929705
0.3511096111964395 14.066961564541947 461399.1531644769 5.59262934975134 0.19360421993403676
0.3639335687935163 13.954967479220716 392301.2669155807 5.85506317868516 0.19614505050964876
0.37703164321404864 13.854184860899242 334475.75655126275 6.125372886690827 0.1986704517237572
0.3904140378786153 13.76346312086304 285854.1594360131 6.401175851782649 0.20113008121718456
0.40409053488140845 13.681792829278875 244837.87549051107 6.695821431476461 0.20375775042183444
0.41803707645053123 13.608196035206287 210190.58962050104 6.992334470060531 0.2062589315334285
0.4322840027661062 13.541982780794626 180794.4892898906 7.301518930956734 0.20880804417368776
0.4468050322343885 13.482522401678251 155833.96923733153 7.631568169837185 0.21152917926663328
0.4616101819250564 13.429180118008878 134588.401377868 7.957483221322807 0.214037035135171
0.4767040083953139 13.381372144649575 116449.96109010334 8.303571209243218 0.2166908091611238
0.4920714093510145 13.338574364021557 100930.88034068458 8.66808553802879 0.21945607143245263
0.5077127775847878 13.30039061541108 87641.38232439858 9.03148687166034 0.22205103645137994
0.5236442155566824 13.266363049752785 76218.07188473846 9.418550251107986 0.22481496667622825
0.5398524110797391 13.236353442867362 66397.842169695 9.820082397477236 0.2276088478103744
0.5563322452147386 13.209631226594864 57921.07577807019 10.226321028245989 0.23029106828860066
0.573094620234364 13.18629438940176 50607.367954194124 10.658777549284435 0.23314639431822212
0.590123817164893 13.16573462703509 44276.01763743058 11.102011220577543 0.2359724198161395
0.6074440947171449 13.147995464937434 38792.64767861229 11.555741951079385 0.23875922627876597
0.6250215051537731 13.132649901089174 34032.54466964542 12.038521660562973 0.24172445107834195
0.642868022420549 13.119511836015747 29894.423239548883 12.528294107509815 0.24460904882891615
0.6609842840217212 13.108439087525726 26294.336135580572 13.035007801084305 0.2475187285227921
0.6793506753405063 13.099231269473496 23155.767457473605 13.573940686682745 0.25061341906199147
0.6979876751689321 13.091769317903518 20415.949770288767 14.115444751515097 0.2535703709525464
0.7168702034038054 13.08579121418086 18020.410762628253 14.681514241809381 0.2566144603619764
0.7360011981701824 13.08123172238112 15925.673185134838 15.283376542900884 0.2598510288188549
0.7553775133865918 13.077858478429311 13990.385560304061 15.882158454534048 0.2628636189780668
0.7750008734074229 13.075689483332248 12477.361084250628 16.51462229827669 0.26602684775981617
0.7948592593755253 13.074509180067967 11061.458213890914 17.18429044029873 0.26936499795012486
0.8149476448357456 13.074253904962957 9816.484926480753 17.850024912156517 0.27248718313275333
0.8352687676551444 13.074763250409212 8720.203938800518 18.556916957127545 0.27580239056428013
0.8558105152788062 13.076030895729975 7753.819679446462 19.29799124827946 0.27923870949269264
0.8765544057703026 13.077852340783746 6901.656729398232 20.042936555096745 0.28252849421491005
0.897510642797705 13.080223385352447 6148.623524318218 20.83382971929524 0.28602119122860453
0.918661573233332 13.0829416302728 5482.994491612253 21.653950079693967 0.28956973337485353
0.9400029857253259 13.0860659692005 4893.798392148401 22.488600578430663 0.29304784564846914
0.9615342449494716 13.089591946898262 4371.7369513553085 23.374682507413702 0.29674028031098904
0.9832215384352008 13.09321385658741 3909.2904305232773 24.282238966164254 0.300391560713087
1.0050864527018022 13.096945556343751 3498.5585107358916 25.218434071328776 0.30405008223262203
1.0271011744761143 13.100742056934344 3133.538901437271 26.212327274683698 0.3079340799725532
1.0492639907206687 13.104581511481044 2809.0521933689884 27.217760180159626 0.3117029908705837
1.071582711709744 13.108411781529718 2520.0524809974936 28.269270823067668 0.31559347240964547
1.0940065386513784 13.112103658857787 2262.8148670123064 29.38447074186056 0.319716033785521
1.1165481288968664 13.115613949000426 2033.5848803511662 30.499753839093792 0.3236359693774421
1.139197507536812 13.118956070285257 1829.0866660490349 31.683080856270447 0.32779506199080627
1.1619213668316768 13.121947217400445 1646.4343220920805 32.917106675069306 0.3320695741805408
1.1847517614606822 13.124662308025712 1482.9901454999172 34.17464768031517 0.33627794721185084
1.2076338099837411 13.127031321379937 1337.0600272108325 35.50923468508356 0.3407441554192771
1.2305536037344234 13.128936100515972 1206.4555538709262 36.87531730698239 0.3451605335525516
1.253527340873292 13.130393833007117 1089.3315627413865 38.2960759842909 0.3496633795908993
1.2765357520031264 13.13144602540198 984.4286189175468 39.80281227315061 0.35443490226426244
1.2995328171959746 13.131754213631263 890.2455780613399 41.31886170177667 0.35903063287429215
1.322557543650534 13.131761314934819 805.7521244834304 42.927616181778866 0.3639073882545365
1.3455001333974996 13.130663582553167 729.7566625257664 44.596468592368765 0.36887444510088396
1.3684630162190616 13.129236562247875 661.4724992630061 46.317026221818885 0.3738752071662152
1.3913584885124246 13.12697496176944 600.0405846232313 48.14366851297308 0.3791843019156035
1.414190213036387 13.124082088163899 544.7379419805296 49.99481864172859 0.38436644278848897
1.436933985040463 13.120317754208665 494.9066400630805 51.95302855285735 0.3898327802926907
1.4595730169580639 13.115893232692251 450.0072530705328 53.98558057707493 0.39539203099349784
1.4820782432163082 13.110325789667339 409.4434265361832 56.0899587672942 0.4010156760295106
1.5044592395062997 13.103985061056372 372.82750983865645 58.317624368920995 0.4069542118752514
1.5267006191341683 13.096837292677654 339.7695872645092 60.58465070448697 0.4128009479515995
1.5487492461117434 13.088595995412621 309.8645607992711 62.99214235354405 0.4190099487281762
1.5706180855064777 13.079455615142233 282.80607206418387 65.46962037321615 0.42524611602992585
1.592271023579312 13.069302900016007 258.3224378630552 68.06993915088358 0.43173072076047553
1.6136878031161406 13.058065780883906 236.13901652290284 70.78177282239892 0.4383962577652882
1.6348498803339082 13.045689104114992 216.01611953047228 73.5977348039322 0.4451931052402296
1.6557679430885588 13.032415361050411 197.78683899768316 76.56290724452012 0.45229426796564715
1.6763788292464943 13.017805517481131 181.21623118754823 79.61990927613058 0.4594249478174051
1.6966988578066204 13.002178169832188 166.17734825599268 82.86070866642388 0.4669692372309665
1.7166586514487472 12.985238952807409 152.49828645308426 86.18765592534923 0.47451360031209827
1.7362935977077245 12.967153558866528 140.07128298673888 89.72513332073272 0.4825353727614427
1.755553302032735 12.947824688603578 128.7535228437284 93.35848483106199 0.4905628541708077
1.7744355229132172 12.927326215250412 118.4527122926692 97.21946355520794 0.49908738804197494
1.7928927276224613 12.905407598164304 109.06393073280682 101.19844113449338 0.5076575548135402
1.8109408111949197 12.882283027715818 100.49791769890281 105.42356128792147 0.5167432154915438
1.828527837917588 12.857822632889755 92.68634163421649 109.78315361522512 0.5258780729942364
1.8456439057640999 12.832015602636014 85.56442644467161 114.41242334084757 0.5355592061666538
1.8622857822553158 12.804935154916123 79.05075106117793 119.19982096228475 0.545356361105971
1.8784018925547457 12.776371070266999 73.09767379898112 124.2717062099682 0.5556957387621692
1.8939976939984782 12.746379488529115 67.6517527956259 129.54859687947265 0.5662646502477302
1.9090345862910592 12.715018970334382 62.66939653425055 135.1139178560605 0.5773212827017546
1.923519493202452 12.682234340291725 58.105643440403576 140.94550263035688 0.5887505974756126
1.937427072523564 12.648120096791544 53.92889348992678 147.06347790353237 0.600580924191302
1.9506965705811563 12.61241790653631 50.09806473648924 153.52484653578392 0.6129734845225051
1.9633519891548494 12.575230421459457 46.58178212985899 160.2647121711432 0.625680748456607
1.9753802883526765 12.536596912838448 43.35291063960896 167.3978180843052 0.6390450067264607
1.9867551916570285 12.496516279117223 40.38914386102447 174.88560708532555 0.6528927560285158
1.9974377917255026 12.454961423915659 37.668963717008936 182.76525747797066 0.6672868990829801
2.007440027165014 12.411848852790014 35.16374419917509 191.10226683398585 0.6823931921752548
2.0167234774894736 12.367237279994468 32.86118909472704 199.85136788292917 0.6979969214831268
2.025282775098646 12.32115232855658 30.743766186972998 209.10434300615813 0.7143550481939248
2.03301333204178 12.27374589619455 28.80845020154131 218.9801684220157 0.8007581415194454
2.038883927255405 12.226288756995945 27.155141369930234 229.6307197490095 1.0027496390874757
2.0423829647647644 12.177687110372563 25.774974235657766 241.33600004247504 1.2009030958046691
2.0435208429691785 12.126562292043985 24.605186920301527 254.1149435840869 1.3993528692490378
