M[M_sun], R[km], Lambda[1], P_c[MeV/fm^3], rho_c[fm^-3]
0.23848912294887037 16.21570186450063 2784644.0411725277 3.4469561053153734 0.1694538074003404
0.24848628172981432 15.872525799547805 2284847.160844463 3.632829650515863 0.17193596281524703
0.25877687470428656 15.568610921631691 1883590.8045625195 3.817535785673553 0.17422445550695123
0.2693538051551623 15.298983594081214 1559397.821065682 4.013871868760823 0.17663157250156114
0.2802141364521569 15.058876548419498 1296418.6783453287 4.218183064789652 0.17906487222847248
0.29136503839420175 14.844547520419319 1081675.3899169837 4.425338208243735 0.18139990436729647
0.3027949229957535 14.652970653732178 905844.947027068 4.647530402938082 0.18390443264960837
0.3145086764589569 14.481296121129411 761160.8302986561 4.870234198332245 0.18627190887667397
0.3265164707539144 14.327228779809719 641526.5533660256 5.10410482235338 0.1887136246110823
0.3387952107799454 14.188938089236954 542415.9058801089 5.351534566428374 0.19126998962700567
0.35137099029420055 14.064481096219545 459818.22357044806 5.597793417700414 0.19365421738212815
0.3642208861565121 13.952548160529956 390915.66631627013 5.861140306180197 0.1962038880132359
0.37735362354049745 13.851870710386823 333190.16741723905 6.131892157895749 0.1987285910252181
0.3907748873093509 13.761195713354734 284667.48945458914 6.408717849648763 0.20119734126417024
0.4044821378869345 13.679509002858422 243767.10413094884 6.704503319630988 0.20383517608749546
0.4184703324297938 13.606016595541448 209207.83349844549 7.001475147596841 0.20633429307191203
0.43274920594482635 13.5400219404924 179933.65385502583 7.311922849999309 0.20889382067572407
0.44731257447409445 13.480571360130504 155053.51068139015 7.6433748088550075 0.2116265206811147
0.4621564557682899 13.427305961815236 133872.2251260268 7.969767803088333 0.2141312322906543
0.4772926298652548 13.379584604916934 115798.99257163751 8.317398283529094 0.21679683402149316
0.4927007134242373 13.337002158438427 100359.28065936273 8.682430183979575 0.2195585032371992
0.5083924466983303 13.29897960966239 87118.9093762094 9.047523560276357 0.22216555074212876
0.5243632385743306 13.264926771814787 75746.05261644917 9.436453974377464 0.22494281303036395
0.5406149935012484 13.234947029009287 65966.54588702852 9.838531538944988 0.22773065962565364
0.5571444266717885 13.208413666199437 57537.38749053393 10.246807358857852 0.23042633079523836
0.5739552609989251 13.185153915866193 50261.953585028896 10.681506648568828 0.23329646487019515
0.5910373930429577 13.164808103645587 43968.57587889827 11.125314644771132 0.23611554905288348
0.6083939056783775 13.147071855930063 38514.96424964488 11.581481888135864 0.23891732053625048
0.626033509225598 13.131853249258345 33779.837725236575 12.066938725529681 0.24189898821011283
0.6439281347938375 13.11877658032076 29667.567244998707 12.55733258447058 0.2447757951944185
0.6620927410375681 13.107848709561402 26089.943251858625 13.066946590582702 0.24770212922506027
0.6805209467713789 13.098713614855733 22971.83023704399 13.609060852836114 0.2508150880431101
0.6992071357112498 13.091297207961775 20248.987703874387 14.151252825063585 0.25376293207680767
0.7181475551842904 13.085374692799622 17870.449529786452 14.720762835368049 0.2568255231908967
0.7373388116877372 13.080884062163006 15788.524750177741 15.326393676088118 0.2600823573073259
0.7567689986445745 13.077698259197794 13966.911299614032 15.92593082115562 0.26308254376137663
0.7764490522766198 13.075589370578072 12367.302401124114 16.56246298663481 0.2662661200025701
0.796374869917652 13.074631729271085 10962.780675552065 17.233027895952592 0.2695935686015091
0.8165254229088027 13.07444528830576 9727.144057839823 17.903156852587866 0.27273636319500266
0.8368897249500122 13.074821324949616 8638.869117664717 18.614847613545095 0.27607407581528126
0.8574891374287641 13.076178136897822 7680.733132633583 19.356963784846965 0.27949914062509224
0.8782928922130518 13.078048725340228 6835.284307190427 20.10709112988081 0.28281180996715866
0.8993118345345296 13.080482241289552 6088.746087690036 20.90363794322699 0.2863294743018371
0.9205210347000946 13.08327642854363 5428.621362795124 21.72499416003961 0.28986578458214557
0.9419199886549775 13.086426464819723 4844.49605187795 22.56575186431467 0.29336934648596286
0.9635111753325899 13.089871792765395 4327.091278755252 23.458491983329715 0.2970895268126924
0.9852523028670116 13.093502796618997 3868.8463259314776 24.36750094250631 0.30072475277265315
1.0071843615491718 13.097254004757762 3461.472180248516 25.310889337919242 0.30441138467967566
1.0292603906062494 13.101105900890834 3099.9107504731687 26.312620234685898 0.3083260110458965
1.0514836268676524 13.104911352710394 2778.4523998855398 27.31978465122687 0.31208047095021646
1.0738578737784257 13.108778053242629 2492.6477406322992 28.37976731827132 0.31600229810971825
1.0963357623884658 13.112445306506777 2237.8994227874473 29.49714646443466 0.32011206020819283
1.1189376578567143 13.115970623932025 2010.9109095742494 30.62161073187592 0.3240642652713928
1.141650417800539 13.119290732997586 1808.3413185789695 31.81492563643188 0.3282584627611093
1.1644331488043387 13.122271387731114 1627.514355849119 33.05163752807563 0.33251978297000306
1.187298682279318 13.124939856711118 1465.9769403576827 34.320020306992035 0.3367644381008521
1.210235046701264 13.12725334750382 1321.4829973539984 35.666399677945925 0.34127010957478293
1.2332163428949825 13.12912897550108 1192.1671635347934 37.035759418671915 0.3456690267530816
1.2562438825477675 13.130556987877133 1076.3468018423703 38.46933698873569 0.3502125000291023
1.279279517522974 13.131374536618956 972.5561694533375 39.98007701642814 0.3549722600781814
1.3023327691317819 13.131741549411283 879.4320452854525 41.51009666735834 0.3596103398208052
1.3253911033551662 13.1315099630248 795.8508769235951 43.134033726496476 0.3645331194548481
1.3484086943923008 13.13058627527169 720.7912676135213 44.80786863088451 0.3694888745597548
1.3713982719292248 13.12898495958015 653.2553345930551 46.545011495209636 0.3745378412373512
1.394336168920289 13.126682808303817 592.5157541804232 48.38391228542036 0.37986960218871446
1.4172026909696827 13.123649911357345 537.8523747830769 50.247043343696156 0.3850705273404136
1.4399771490252677 13.119776741939082 488.5835739259781 52.22499694767773 0.390591979308136
1.4626398664027036 13.115073078043373 444.2089312158365 54.24354811803025 0.3960482535581132
1.4851978242953854 13.10948064328575 404.10805396328936 56.331720854518906 0.4015718352389647
1.5076294457460306 13.10305975664674 367.91986779593054 58.54856144355226 0.4074357658673969
1.5298971247032584 13.095699028816092 335.25866703718145 60.90396188251742 0.41366621150457866
1.5493272684520498 13.086861718743812 308.78216438550953 63.513526563044806 0.7535050369403343
1.5552062522523924 13.068589682362667 297.8092924800394 67.06071408750525 1.2292450021852903
