M[M_sun], R[km], Lambda[1], P_c[MeV/fm^3], rho_c[fm^-3]
0.23848912294887037 16.21570186450063 2784644.0411725277 3.4469561053153734 0.1694538074003404
0.2484785049829579 15.872778012985172 2285303.293881678 3.632706436961071 0.17193431742137516
0.2587621266106493 15.569070321863792 1883992.584115652 3.8172938007215578 0.17422148872631046
0.26933391481593466 15.299447509062961 1560018.6628673489 4.0134818975831035 0.1766267913821941
0.28018748255678766 15.059314853247558 1296887.0080950952 4.217671878731268 0.1790591101901502
0.2913278991822749 14.845287022687074 1082309.3595206388 4.424653220822341 0.18139218325732556
0.3027507125333232 14.653639254885459 906439.9136180517 4.646648315072828 0.18389448984307077
0.31445447962794154 14.4820773085533 761742.62183705 4.869223790487513 0.1862613597590027
0.3264537066444169 14.32797843500391 642077.1925020902 5.102868218284379 0.18870071390190216
0.33872873197642256 14.189719395985405 542906.5912855321 5.350165389295601 0.19125673353446412
0.3512850314547763 14.065250903963022 460331.5816077589 5.596167389868442 0.19363847451372948
0.3641289252368517 13.953362092054261 391369.48919143376 5.8592266763867045 0.19618536064155725
0.3772536773189353 13.852567669239045 333587.8594321131 6.129839251873528 0.1987102830704874
0.3906629390736804 13.76188752222875 285050.28757879353 6.406342760714708 0.2011761600604447
0.4043594467844939 13.680256026549646 244101.0164106357 6.701769110238824 0.20381079222323956
0.4183358569706272 13.606744980749859 209522.18971130936 6.998596396773386 0.20631055882572463
0.4326017437191638 13.540609686313825 180207.07638754247 7.308646074773607 0.2088668048641179
0.44715236629344896 13.481197921025442 155304.89106056764 7.639656027523171 0.21159586069104966
0.46198250688757125 13.427960505237076 134107.8055019031 7.9658984285873675 0.2141015622474695
0.477107475974263 13.380147973594315 116002.54756815726 8.31304281139491 0.21676343662191883
0.492500476602709 13.337445483425332 100536.90982630418 8.677911626945207 0.2195262372646915
0.508177562690586 13.299368096522405 87281.09190276371 9.042471726127385 0.22212947676087227
0.5241361108546797 13.265389089186144 75893.82822511098 9.430813665839006 0.22490253688936307
0.5403693635662332 13.235374795650003 66105.47951032754 9.832719361086378 0.22769228429328814
0.5568874461824749 13.208830137817653 57660.128471407275 10.240353017576352 0.23038371553157933
0.5736893181264083 13.185510282691025 50368.809966590255 10.674345286015864 0.2332491814465207
0.5907516642131285 13.165118836815726 44065.51399937908 11.117972300545027 0.23607045249899236
0.6080989563126522 13.147421992107594 38600.57487723401 11.573371380064527 0.2388675059330311
0.6257133282690375 13.132060461066125 33859.75867524826 12.057984128178868 0.2418439892248339
0.6435926607416389 13.119030777852483 29739.639707457616 12.548182167879276 0.2447232511608077
0.6617445727054017 13.108014537997423 26154.120330558395 13.056881640002018 0.24764433370325803
0.6801544558568395 13.098838279209883 23028.178425805807 13.59799266269551 0.25075153166303105
0.6988189098532066 13.091371755268009 20301.9092741585 14.13996786478365 0.2537022461916593
0.7177447222248333 13.085600230085591 17918.930360194172 14.708392828351036 0.25675900236968885
0.736915911257959 13.08103530492857 15832.345712556806 15.312835078109229 0.26000944473171117
0.7563287990046232 13.0777224062768 14005.336014568313 15.912134249346192 0.26301354106111346
0.7759961282482013 13.075572616757794 12401.249810250329 16.547383173056687 0.2661906992479995
0.7958918992145833 13.074527906182885 10993.373733545366 17.217665500968717 0.2695215214956194
0.8160201267332639 13.074234434163607 9754.688554684672 17.886408230373874 0.27265781491139035
0.8363766003458353 13.07477225596228 8664.54596868358 18.59658512731813 0.27598842775842664
0.8569577748747076 13.076135466978334 7704.0150222328875 19.33837298758047 0.27941704101286374
0.8777381668805432 13.077953958241407 6856.476284330799 20.08686541682843 0.2827224903336409
0.8987353417940703 13.080328568631984 6107.513903140331 20.881628374940288 0.28623227690918346
0.919932994195434 13.083121172565873 5445.513045046078 21.70259514065909 0.28977244455018936
0.9413183750525701 13.086381759110038 4860.017400283077 22.54142573611733 0.29326797590608444
0.9628861942603071 13.089792151887718 4341.2411503489775 23.432064707588253 0.2969794004397331
0.9846145143312214 13.093441698552585 3881.6025872790915 24.34061593283799 0.3006196898580087
1.0065259244710436 13.097228877051052 3473.1815184409743 25.281734145182956 0.3042974502022965
1.0285794763880063 13.101025614518623 3094.2313139924377 26.28099127394244 0.30820240942388194
1.0507962290399757 13.104889751786898 2788.132086415728 27.28761000091151 0.3119614280437828
1.0731306795603262 13.108652118822633 2501.3226979885126 28.34491848565284 0.31587336100301894
1.095607344869558 13.11240111911465 2245.732888989138 29.461610703512537 0.31998716107328246
1.1181909465933986 13.115899373762971 2008.2072343432378 30.583176722392274 0.3239291795320958
1.1408721319521702 13.119172263465565 1814.8371804118656 31.773338441718217 0.32811229438006717
1.1636441573094556 13.12218812942951 1633.435902052181 33.00920351679257 0.33237777714438865
1.186490622758571 13.124858893032584 1471.3663043245217 34.274163264520645 0.33661097706854604
1.2094272434316502 13.127193665999084 1326.3147326062253 35.61681914150655 0.34110418783421226
1.2323665933969359 13.129059859515074 1196.7112175384054 36.98514559116755 0.34550861508268066
1.2553766848943997 13.130422598108467 1080.4209833926914 38.41467520520307 0.35003925907033856
1.2784114780522444 13.131360230639642 976.2516577556028 39.92415260804295 0.35480273162441817
1.3014489943817336 13.131751866050168 882.810876855156 41.44976036457944 0.35942743721331677
1.3244854984891044 13.131467700316893 798.9151371068308 43.06890221270262 0.36433568071309724
1.3475116508898497 13.130637750647914 723.5446103033553 44.7411655250812 0.36929500348247646
1.3704743321522868 13.129039157567599 655.8395463439202 46.47306970896947 0.3743287440531685
1.393401745237697 13.126833307996906 594.8963737109965 48.31005675778295 0.3796634346893455
1.4162362899231846 13.123717458071601 540.0287312247905 50.167446981606055 0.3848483343176848
1.4390147253857677 13.119956737874546 490.6004606720118 52.1391630920159 0.39035237433950215
1.4616619787973397 13.115267318302303 446.0203121860873 54.17683438597618 0.39590312901667873
1.4842106555252166 13.109777084232368 405.8230471188532 56.29604564528441 0.40156641327521275
1.5066036220676364 13.103359962439429 369.507504224843 58.52983809459139 0.4075015181091084
1.5288616140887734 13.096058434959879 336.710627822263 60.81320238550751 0.4133903903139438
1.5509183508297484 13.087773124396978 307.06281909798423 63.23844472970463 0.4196451707217614
1.5727930773808458 13.078506143446706 280.2338146844261 65.72355438256128 0.4258793698034205
1.5944611716520376 13.068222715491887 255.9615886224179 68.34348326362525 0.43241287768013204
1.6158768102352357 13.056788250501231 233.96325419425963 71.06441978000883 0.4390784787159719
1.6370609157815699 13.044399357209638 214.03063825538166 73.90211614836468 0.4459277861719653
1.6579892143777346 13.031032330169534 195.9561594878332 76.87804791715168 0.45302935653332455
1.6785809092770865 13.01618781407888 179.53223312214516 79.95921144578908 0.46021639483635496
1.6988730611620544 13.000358094388872 164.62164211470812 83.21269869727509 0.4677674286019166
1.7188445615235917 12.983315158086297 151.07749987735005 86.56658833467839 0.47537288765773256
1.7384614146783148 12.965108377425334 138.7597921192492 90.12226226327758 0.4834176998291928
1.7577064271973275 12.945554322480502 127.53794064403417 93.7825204130555 0.4914990690374367
1.7765708737933938 12.924860158420804 117.33122531790745 97.66906291187554 0.5000680113755807
1.7950111071135466 12.902833408491478 108.03110943219504 101.67388701348473 0.5086799493894119
1.8130251197207976 12.879485450568419 99.54191486757774 105.92455627397102 0.5178009055661918
1.830583018486477 12.854851733629609 91.81013175122683 110.3172740967168 0.5269961426382573
1.8476642698414736 12.828796166715424 84.74494177940109 114.97066367696686 0.5367016153623819
1.8642503433842346 12.801409200030815 78.29590371391055 119.80106445471168 0.5465867739768774
1.8803337853836681 12.772705121073491 72.40311950780183 124.90122327248508 0.5569565778678268
1.8958858236775074 12.74255929522986 67.00883576179424 130.2268351801016 0.5676230715254137
1.9108826904606389 12.710958918984003 62.07300344696561 135.82527158121832 0.5787154638643471
1.9253230184289958 12.67807859691985 57.56016818314582 141.71223499036637 0.5902533151465409
1.9391468209476137 12.643538363043483 53.41818384263074 147.86897749693884 0.6021258294391196
1.9523686391659423 12.607618367971043 49.621624377940925 154.3853514861673 0.614612186544467
1.9649651157203682 12.570239054074529 46.141905713320995 161.17880333688967 0.6274016285324391
1.9769282424309733 12.531392018704768 42.94470870560432 168.36152243640785 0.6408272599747025
1.988229833215592 12.491116946274264 40.01359498015694 175.92530380644035 0.6548155478622874
1.9988213163682451 12.449169294741083 37.317019457266575 183.86314672012202 0.6692803891512548
2.0087253066917157 12.405945958615462 34.84477355068715 192.43151727806867 0.7436743133350233
2.0157143073930697 12.363737167098225 32.87972279270577 202.2733398146711 1.117095671694991
2.018204300920803 12.321259049288495 31.488209883787377 212.85011311718154 1.518402750643029
