M[M_sun], R[km], Lambda[1], P_c[MeV/fm^3], rho_c[fm^-3]
0.23848912294887037 16.21570186450063 2784644.0411725277 3.4469561053153734 0.1694538074003404
0.24847478249822777 15.872872822913623 2285504.493196026 3.6325998906673145 0.17193289460211542
0.25875247077863645 15.569308338184703 1884271.4455531717 3.8170845578379273 0.17421892336953412
0.26931416667489305 15.299920509718348 1560604.6916032652 4.013144706886834 0.176622657361373
0.2801614418256944 15.059987860885 1297505.8492738444 4.21722989452215 0.17905412818817845
0.2912947630800498 14.845969056350922 1062175.178134776 4.424060989800267 0.1813855076882468
0.3027095437185397 14.654144712528623 906912.5720138483 4.645885708337336 0.18388589381592432
0.3144111642083048 14.482654897267068 762230.419538453 4.868350270686445 0.18625223981479633
0.3264004971677054 14.328692915728597 642550.1521018601 5.101799195334067 0.18868955281585664
0.33866006008081445 14.19027440625365 543359.1118127198 5.348981789422454 0.1912452741629372
0.35121597812902666 14.066022948819016 460758.3655560241 5.594761816131416 0.1936248660367209
0.36405059617205676 13.953994854154013 391746.0909359889 5.857572570123591 0.19616934592353974
0.3771644381945369 13.853280685621483 333952.165491414 6.128064794374182 0.19869445833851335
0.39056603097166015 13.762550516496187 285362.9703323741 6.404289914973947 0.20115785264330815
0.4042504622930959 13.680890855015818 244400.1846294273 6.699405980593062 0.20378971767325577
0.4182158353725484 13.607306132423535 209786.6792431868 6.996108382261332 0.2062900460573163
0.4324736493031686 13.541163052579199 180440.5739391404 7.305814194301586 0.20884345704681168
0.4470135365932832 13.481745658839325 155517.71426969615 7.636442309501667 0.2115693647629972
0.46183831007891074 13.42842538695687 134292.66442217585 7.962554609899239 0.2140759221227273
0.4769456112693943 13.380642878965142 116183.65574689739 8.309279101403016 0.2167345768054377
0.4923291309162395 13.337953560146865 100697.28152653434 8.674007028270184 0.21949835542707308
0.5079962200473253 13.299774453974432 87421.54750556593 9.038106519955855 0.22209830583146944
0.5239401325381293 13.265785288580103 76020.09665364261 9.425940210287427 0.22486773666848534
0.5401638170407436 13.235775995010718 66219.76875465726 9.82769743548183 0.22765912665963042
0.5566639351799759 13.209184937786198 57766.123132034576 10.234776515556819 0.23034689626629834
0.5734508268441162 13.18577465585924 50463.992114809895 10.668158236660867 0.23320833099749186
0.5905025458245644 13.165380845828341 44149.511830701515 11.111628911931918 0.2360314915135585
0.6078379569834528 13.14761188928559 38677.462304100656 11.56636469318722 0.2388244709808918
0.6254404183494781 13.13235848544918 33928.69745618397 12.05024863162116 0.24179647793598028
0.643295830702775 13.119177826706437 29802.76903253071 12.540277514374672 0.244677860617625
0.6614406559099816 13.108205236018879 26209.21988765096 13.048187408741054 0.2475944092025495
0.6798305527580494 13.099005786502316 23080.08464259719 13.588432327310588 0.25069663377081125
0.6984868235356446 13.091525428722788 20346.299417782946 14.130220271871465 0.2536498276372942
0.7174014655552434 13.085639079010669 17958.683525472876 14.697708570952761 0.25670154681811547
0.7365533869255817 13.081097325206693 15869.008694644748 15.301124842760137 0.2599464718917696
0.7559472416159025 13.077791848690424 14037.825265648333 15.900218430879752 0.26295394483232654
0.7755956927247729 13.075660942074274 12431.768178721219 16.534359749242117 0.26612556339959526
0.7954810345307406 13.074497645654137 11020.018363920182 17.20439796564009 0.2694592989369807
0.8155920790859352 13.074232044350058 9779.070875525786 17.87194427840916 0.27258998135549767
0.8359356147914933 13.074780946984951 8686.323057281881 18.580814689990465 0.2759144670010535
0.8564988287683604 13.076079862423892 7723.422863590812 19.322318936798847 0.27934614403491415
0.8772744557741873 13.077927853530966 6874.322863651907 20.069400503217697 0.2826453627842146
0.898258832981947 13.080302805347667 6123.648872567162 20.862624179506337 0.2861483516716868
0.919426000467689 13.083128032666373 5460.6048244674175 21.68325452698146 0.2896918493478703
0.9407945597021425 13.086296704195947 4873.671062283388 22.52042233591144 0.2931804516259764
0.9623512417341544 13.089671276408852 4353.304667285438 23.409248484612736 0.2968843218585918
0.9840582521603705 13.093337804679347 3892.465886092302 24.31740431638347 0.3005289820580708
1.0059472684240978 13.097077757493892 3483.2883606055493 25.25656399338554 0.3041990887160071
1.0279920096236341 13.100848674985842 3119.5482311573696 26.253687107472896 0.3080957085021929
1.0501923481036046 13.10481317252577 2796.407956733725 27.259834486221262 0.3118586614880003
1.0725310885994217 13.1087147357091 2508.78862749314 28.31483621843096 0.3157620596994428
1.0949697376194485 13.112283100379031 2252.623528962543 29.43093519450054 0.31987934448404626
1.1175404368221504 13.115817233763597 2024.1646352652388 30.550001347896654 0.3238125765533693
1.1402085059735785 13.119015524391026 1820.4013470014113 31.737443513425163 0.32798613286346706
1.1629629306550917 13.122110013839585 1638.5080591201026 32.97257735530298 0.3322552073437935
1.1857971571387218 13.124754306363267 1476.004586353436 34.23458501530589 0.3364785280780741
1.2087095215717303 13.127179280634733 1330.6761242019456 35.57402992840452 0.340960993322305
1.2316429325709384 13.129004445629333 1200.5706961660817 36.94146422641879 0.34537017464001435
1.2546418147778844 13.13046600708289 1084.0011064887797 38.36750332145244 0.34988975603843003
1.2776600132661198 13.131373262722443 979.4499826442723 39.87589073224876 0.3546564312626379
1.3006964739181681 13.131762195416028 885.7334217056964 41.397694423436896 0.35926960526210816
1.3237098457031562 13.13146603563296 801.5890007491421 43.012702029409816 0.3641653162792133
1.346712851506335 13.130651481462762 726.038966834198 44.68360885258564 0.36912771630796054
1.3696778277590171 13.129138931864787 658.0702677550112 46.410996792832464 0.3741483305180511
1.392587648823796 13.126886265164975 596.9257615826768 48.245062981937515 0.37947900265991613
1.4154266848908337 13.123886947105001 541.9050781064968 50.09877376546856 0.384656633226411
1.4381741424331187 13.120033105885708 492.2935255390505 52.06511342582724 0.3901456649029089
1.4608334127207365 13.115499152375687 447.6076648943032 54.100748353231005 0.39569980014625705
1.4833714728363627 13.110022978020663 407.2431794867239 56.21405463231642 0.40134730420289
1.5057511346658012 13.103632359950167 370.84062156194693 58.445409664451375 0.40728377438878866
1.5279870179130297 13.096349403330157 337.93437536219386 60.72226949777406 0.41315587138185345
1.5500650685419075 13.088095893967642 308.17428044377715 63.140444517576384 0.41939242492575945
1.5719318931384347 13.078915411303175 281.2571795725224 65.62251768918804 0.42562740722658793
1.5935941328683363 13.068627920400836 256.89338560656995 68.23463844107182 0.4321414434016552
1.6150179524807422 13.057294404357151 234.8178562912403 70.95195271911638 0.43880701856705867
1.6361966586046934 13.044986537912177 214.81327231013253 73.78099456301585 0.4456354367201837
1.6570914391972658 13.031460448499072 196.67233305309588 76.75264450745128 0.4527368439482343
1.6777013559874054 13.016815836393722 180.19933459234122 79.82418638455128 0.45990143904839836
1.69800131227211 13.001029885765861 165.2343114303584 83.07262381232242 0.4674497873204699
1.717983550175467 12.98410849370345 151.6407867400923 86.41578361485297 0.47503091483034277
1.7376025478472166 12.965881953495334 139.2737805058117 89.96550190705749 0.4830715935536266
1.756852255567901 12.946459045164337 128.0227307877438 93.61375545994098 0.4911264581887693
1.775726640218158 12.92583754898577 117.7721691984507 97.49329818238697 0.4996900484696031
1.7941776855590528 12.903892760990493 108.43821836281403 101.48464863430503 0.5082730128673612
1.8121947152112756 12.880666742532851 99.92856850686849 105.72711862998575 0.5173876111055293
1.8297838820036787 12.856125261605055 92.1609389325048 110.1046673939354 0.5265510949219978
1.8468643292122195 12.83009521555886 85.07154696097831 114.74845312518558 0.5362468732713545
1.8635076112647928 12.80302362234033 78.59889861583837 119.5617222914499 0.5460969729529375
1.8795665506288919 12.774133478233047 72.67848821079667 124.65062211514167 0.5564546570178369
1.895133848700167 12.74403510546205 67.26263230587446 129.95682267766747 0.5670822723281301
1.9101474210104208 12.71257911794206 62.31006538917133 135.54207048609948 0.5781604184374709
1.9246086431027556 12.67964355605171 57.76849425617599 141.40696803552356 0.5896550228723149
1.9384659933861548 12.645350813863686 53.61781845813499 147.54826926902723 0.6015107281673442
1.9517096015798698 12.60950597613735 49.809552729847084 154.0476218741075 0.6139761397320381
1.9643234894769352 12.572248676684534 46.31622436734323 160.8148283313579 0.626716404390043
1.9763132356336373 12.533451203967825 43.10471307247429 167.9777827413616 0.6401175803758885
1.9876313196488478 12.493206232595979 40.160686592703364 175.51127750412164 0.6540498568902013
1.9982826661346644 12.451458219037448 37.45550487304347 183.42593501776452 0.6684865229278503
2.0082263406987995 12.40824206908816 34.968684381516645 191.80105750831933 0.6836394619879097
2.0174605684804297 12.363485461749026 32.67996603454661 200.60574896611982 0.6993423349320328
2.0259648380217525 12.317203655281014 30.574164556121875 209.89349578580672 0.7157272010848843
2.0337435948859315 12.269466004086306 28.634069659680794 219.7267367507067 0.7329305454329658
2.0407406393518204 12.22015771837512 26.84970015143915 230.10078498542615 0.7508674228435622
2.046985902552927 12.169449698635734 25.205411203865097 241.04831687571922 0.7695332968715529
2.0523088133185206 12.11771099712073 23.705809290256486 252.94048350223255 0.9438913902288721
2.0542899533826087 12.069290444148004 22.613024786561933 266.20674997879814 1.4306773424016095
