M[M_sun], R[km], Lambda[1], P_c[MeV/fm^3], rho_c[fm^-3]
0.23848912294887037 16.21570186450063 2784644.0411725277 3.4469561053153734 0.1694538074003404
0.2484777289637159 15.872729477587518 2285420.961770523 3.6326599126257526 0.1719336961353782
0.2587582290467676 15.569169965073103 1884156.0278657286 3.8172024320934095 0.17422036852988945
0.2693287610274156 15.299528532786198 1560152.4854707234 4.013334657171401 0.17662498618728684
0.2801750457672213 15.059733449918273 1297234.47901818 4.217478876559663 0.17905693468890002
0.29131407495762673 14.845582353173429 1082625.8683061127 4.4243946070737366 0.18138926818891615
0.30273195583301493 14.653905944714813 906681.4822334637 4.646315298185666 0.18389073610989606
0.3144341703529841 14.482320463582461 761966.6640246363 4.8688423369003395 0.18625737720997737
0.3264317194755336 14.328302474583536 642274.2818191785 5.1024013857441295 0.18869583995775618
0.3386971364854827 14.18986370960612 543074.6089720286 5.349648518615641 0.1912517292984149
0.35125645366059255 14.065587346737079 460497.901279417 5.595553577346216 0.1936325317066207
0.36409633114377504 13.95369404642904 391522.1932139355 5.858504321215047 0.19617836694675025
0.37721209387761523 13.85292860433004 333765.2211983915 6.129064334639577 0.19870337230619248
0.3906210253897704 13.762138436274835 285167.0767634195 6.405446258675379 0.20116816499463344
0.40431202228214524 13.680529926563626 244236.37836155726 6.700737090720781 0.20380158860338896
0.4182832085907944 13.606963946819844 209633.34445645448 6.997509833340877 0.20630160050818105
0.43254794050709167 13.54083840269774 180301.3025585179 7.307409323215637 0.20885660830048677
0.4470926389568146 13.481387143407034 155396.19833771721 7.638252500311909 0.21158428912323926
0.46192164251774254 13.42814337406022 132683.91376544704 7.964438077965865 0.21409036439986023
0.47703601223171405 13.380452901850052 116086.92705906644 8.311399060255907 0.21675083247433188
0.4924261545016364 13.337677661399145 100609.65943958443 8.676206340128832 0.21951406020526382
0.5080980711238517 13.299571798179814 87346.25096279544 9.040565250464125 0.22211586305834083
0.5240519022782647 13.265547058328966 75949.32945316266 9.428685187980594 0.22488733792041338
0.540278038647112 13.235580703751594 66154.40431673452 9.830526035398858 0.22767780269890273
0.5567901083481305 13.20898360013908 57703.816061655685 10.237917449274855 0.23036763451249448
0.5735856663665018 13.185602862548002 50408.82197187886 10.671643021989814 0.23323133954927297
0.5906450402510584 13.16521580453066 44102.069462417094 11.115201751338258 0.23605343583268476
0.607984898062963 13.1474826409434 38633.38249071105 11.570311087230007 0.23884870966626878
0.6255950452866678 13.132189377723149 33889.03248642946 12.054605469255149 0.24182323755894342
0.6434681620392168 13.119122424746765 29766.57922046694 12.54472962536689 0.2447034257782141
0.6616134296710685 13.108082773072084 26180.65477160451 13.053084179704141 0.24762252771447749
0.6800123942006615 13.098926581094837 23051.398313465437 13.593816848233642 0.250727553067822
0.6986780372501651 13.091511629860113 20322.03208278566 14.13571026110893 0.25367935054637547
0.7175960937622906 13.085572211108921 17935.486450810033 14.703726039154835 0.25673390629259624
0.7367598530256713 13.081064587642151 15848.646044522957 15.307720078372714 0.259981938362274
0.7561628651548179 13.077720929869782 14019.317744024322 15.906929457250595 0.2629875096154859
0.7758232509878302 13.075637603005498 12414.976093122934 16.541694502083114 0.2661622477121029
0.7957094148325449 13.074498748744883 11005.151621441086 17.211870208751996 0.26949434252824894
0.8158318771785164 13.074231087800213 9765.810845063193 17.880090251379073 0.27262818462899463
0.836183894101172 13.07482685663986 8674.041516988716 18.589696364654653 0.27595612059449903
0.8567520049407922 13.076081449765216 7712.372312508023 19.33136035005598 0.279386072205383
0.877532350857787 13.077918295503258 6863.753947157838 20.079236384224128 0.2826887994375748
0.8985312222944674 13.080394027269945 6114.738431860556 20.87332682951019 0.28619561610056193
0.919710505846315 13.08313783152836 5451.991561735448 21.694146655329405 0.2897372384602594
0.9410908184055924 13.086324381454583 4865.8336747910835 22.532250766362676 0.293229742447934
0.9626524082617712 13.089711728170133 4346.32577312305 23.422097686425214 0.29693786638602915
0.9843737775385265 13.093363311789984 3886.2266120862173 24.330476211661598 0.3005800652242958
1.0062742288132427 13.097140734627148 3477.5604834622754 25.27073869389689 0.30425448149318324
1.0283253944765312 13.10095935581601 3114.5191233111364 26.269063403515922 0.30815579694919915
1.0505270210940474 13.104901275105815 2791.8012965956 27.275476252450886 0.31191653441887845
1.0728722538864348 13.108620339369027 2504.442321536716 28.331776826141986 0.315824738210597
1.0953311203542653 13.11237550731293 2248.7543054001258 29.448209912813123 0.3199400607123491
1.1179038635234562 13.115848287750937 2020.726997955149 30.568683622961522 0.32387823998460624
1.1405880092108738 13.119088064576463 1817.2370445869067 31.75765701795332 0.3280571781756698
1.163349989503917 13.122150154521382 1635.6264617088723 32.99320267613032 0.33232423017769697
1.1861955304439078 13.124888187782787 1473.4550176457137 34.25687246944244 0.33655311325703335
1.209111232686621 13.127198125574397 1328.2162857584162 35.59812524423265 0.3410416285277488
1.2320493942824284 13.128990779660715 1198.3635304345107 36.96606197284465 0.34544813289345666
1.255065628959789 13.13048670487787 1077.265852741478 38.394066298854995 0.3499739427475976
1.2780817931839654 13.13141309252147 977.7295962210907 39.903067538306615 0.3547388146448183
1.3011162529376545 13.13174774013088 884.092432489588 41.42701296192085 0.35935848106141116
1.324153108018105 13.13146459871023 800.0624017944328 43.04434815600653 0.364261247895916
1.3471504867625252 13.130616100821754 724.6669440823395 44.716018859817225 0.3692219152652792
1.3701279591600684 13.12907306313446 656.7968543021235 46.445949417108906 0.3742499195346429
1.3930454895435662 13.126794971621004 595.751666789798 48.28221492832389 0.3795857143000794
1.4158845439449919 13.123767352843709 540.8264588414348 50.13744246864748 0.38476457680346293
1.4386542538913498 13.119999230302632 491.31777513870924 52.10680893815507 0.39026205780925627
1.461301134924926 13.115383763710108 446.7250269870722 54.143590529210364 0.39581428963840165
1.4838516502842714 13.109888841844235 406.43253442591276 56.26022111177876 0.40147067741321185
1.5062474087416797 13.103617703662758 370.08402814225747 58.49294859547381 0.4074063788679159
1.5284643405041916 13.096156764032111 337.2495636901848 60.77347015453465 0.4132879195730537
1.5505503241153515 13.087916648778243 307.5349456716062 63.19562370003341 0.4195347338666277
1.5724206519633064 13.078670238317756 280.68230334005705 65.67940657340678 0.42576927518942725
1.594093453371396 13.068492573986145 256.35624240042534 68.29592280427737 0.43229427269126564
1.6155027617345836 13.057054711077045 234.33300523699833 71.0152765333874 0.43895986235896856
1.6366819329266002 13.04465321185413 214.36735206636484 73.84919022987425 0.44580003963354975
1.6575887611843563 13.0312340981609 196.2779447789866 76.82325092597306 0.45290153856104515
1.6781975360743393 13.016494031222654 179.82284383254787 79.90020896825742 0.4600787672609106
1.698508489335591 13.000715246072312 164.89386553461912 83.15148946319046 0.46762862727748516
1.7184692271732764 12.983651399590684 151.32358431590148 86.50068911736642 0.47522345107714653
1.7380828717249848 12.965400952236255 138.98254399222964 90.05376035039875 0.48326645660349893
1.757340061652081 12.945985954150721 127.74551956762149 93.70877117425968 0.49133624040537094
1.7762006414653928 12.925295543204554 117.52289075254637 97.5922545548154 0.49990284336990465
1.7946491335327563 12.90327950785495 108.20911829836024 101.5911890198826 0.5085021163618679
1.812656088153336 12.87996913487155 99.71514404226184 105.83827481002963 0.5176202933466321
1.8302193569708531 12.85535809904061 91.96746398695839 110.22436169047685 0.5268016499262764
1.8473136911903607 12.829400531370021 84.89282431684134 114.8735537629764 0.536502885081603
1.8639150747431097 12.802053462371617 78.42627282639155 119.6964654545829 0.5463727176791154
1.8800011990348366 12.77331014355124 72.52157152482616 124.7917031548445 0.5567372236113666
1.8955526458890044 12.743244373276418 67.12097367440641 130.1088291039065 0.567386721020509
1.9105591975697949 12.711694278818761 62.17881581830201 135.70150074952718 0.5784728855858909
1.924995371083048 12.678715830021444 57.65275936829657 141.5788173983331 0.5899918301960966
1.938844621747944 12.644322430922982 53.50568715869997 147.7288102091725 0.6018569960589228
1.9520818363493604 12.608478884693266 49.704205625211465 154.237812649777 0.6143344279866013
1.9646836628048985 12.571063629484513 46.217064225697605 161.01972098916056 0.6271021380079901
1.9766707840337046 12.532338573345646 43.01567753191955 168.1937999875556 0.640517077833657
1.9879789085754993 12.492051225937466 40.076848427683686 175.74433949055077 0.6544808765088724
1.9985860666674553 12.450153550029489 37.37688316640937 183.67204647169743 0.6689333992795508
2.0085364318599646 12.406898101512876 34.89363136271931 192.06137728389368 0.6841037336072252
2.0177352318113524 12.362065906544439 32.612295683823184 200.88680393761572 0.6998435870802616
2.0262309250616766 12.315811310076105 30.511362731694266 210.191245245605 0.7162499159460707
2.0339884940893667 12.268010939771893 28.57619557883333 220.04266246096384 0.7334767854935019
2.040952495586387 12.218563101058207 26.795092388376435 230.44219955007281 0.7514577334970026
2.047173339453188 12.16779702055957 25.154552631156292 241.415623636689 0.7701778162880528
2.05259483480846 12.115410311838126 23.640880134756316 253.0478221766442 0.7898314412777544
2.057225292141335 12.061559771826253 22.24483109081182 265.38085418449515 0.8104639984373957
2.0610846580935633 12.006383466703712 20.956238001924877 278.4232690882311 0.8320161477651651
2.0640717211822786 11.949534607505235 19.769644496823222 292.25032499270014 0.8546186399012747
2.066246013553911 11.891266046458322 18.672886882990504 306.93874761425326 0.8783805023443527
2.0675999122442397 11.831635511046976 17.659979147810887 322.55063018074287 0.9033649417802363
2.068082534761959 11.770516735891887 16.72642899234896 339.1542905636021 0.9296537065392556
