M[M_sun], R[km], Lambda[1], P_c[MeV/fm^3], rho_c[fm^-3]
0.23848912294887037 16.21570186450063 2784644.0411725277 3.4469561053153734 0.1694538074003404
0.24848312707729486 15.872577679381568 2285063.6107387412 3.632755194053837 0.17193496852361617
0.258768518275581 15.568843595058258 1883784.2058906937 3.817389555839617 0.17422266270191586
0.26934191798178025 15.29919786557375 1559783.4249897038 4.0136362096554095 0.1766286832769792
0.280197403118257 15.05925436179652 1270572.8544495348 4.21787415336776 0.17906139020970077
0.29134127916998714 14.845040562973084 1082156.1608373346 4.42492426420202 0.18139523843129815
0.30276765693641744 14.653455102151689 906224.1333524417 4.646997344182046 0.18389842406441725
0.3144777516042804 14.481730030673232 761489.963208269 4.869623590110562 0.1862655338489907
0.3264791029296294 14.32772959885561 641839.2834887985 5.103357512364911 0.1887058223547495
0.33875711903099104 14.18941851516946 542685.2566859471 5.350707134823624 0.19126197860369698
0.3513190137278985 14.064917609313001 460116.8601450142 5.596810754697935 0.19364470344022378
0.3641654405833484 13.953026943422687 391172.3252655478 5.859983824292341 0.1961926911924878
0.3772914562315662 13.852329199135026 333416.03048029233 6.130651500470042 0.19871752675839813
0.3907085194414868 13.761563439567672 284872.9779339739 6.407282469451037 0.2011845404465016
0.40440828018910235 13.679957039276346 240823.63965428562 6.702850889028351 0.20382043959963814
0.41838784935855133 13.606463129735518 209401.58595379125 6.999735356887645 0.2063199491347188
0.4326598739564809 13.540390101916111 180096.07950241258 7.309942490902457 0.20887749334028358
0.4472137030052537 13.481039321044726 155207.64319322625 7.641127294758519 0.21160799075054862
0.46205542116943915 13.427633742107178 134003.4303114544 7.967429269323755 0.21411330060744121
0.4771742956673791 13.379891691934567 115931.19274391013 8.314765939887335 0.21677664942847724
0.49258055426952263 13.337338579958194 100467.45580677222 8.679699269998517 0.21953900241099217
0.5082616109367395 13.299200283686021 87216.2175790678 9.04447031436827 0.222143748218053
0.5242271423528216 13.26520410699986 75832.60999540909 9.433045028320105 0.22491847053364866
0.5404672260237656 13.235156050685305 66049.20385064716 9.835018712036792 0.22770746592728036
0.5569882554416944 13.208690150739645 57609.730628392375 10.242906373411326 0.23040057425152874
0.573793062897792 13.185312107105549 50324.76804618782 10.677178294920923 0.2332678865964612
0.5908681930697494 13.16492561124157 44022.346726039475 11.120876902227408 0.2360882925133349
0.6082085084828542 13.14720765542565 38567.529805818034 11.57657981174007 0.23888721206604618
0.6258366364330267 13.132017650952214 33828.786402337464 12.061526413161445 0.24186574587920687
0.6437242285417626 13.118909570092281 29472.047435465338 12.551801915146637 0.2447440366758912
0.6618814758200247 13.107969880269122 26129.335829492902 13.06086309450561 0.24766719623385094
0.6802972476204245 13.098813741345218 23005.752385801177 13.602370899598453 0.25077667261969555
0.6989772512232191 13.091440582618043 20281.357200374223 14.144431852081675 0.25372625168337143
0.7179073878931748 13.085476949710884 17899.339228553195 14.713285943317695 0.2567853155338931
0.737081077776635 13.080988442447673 15815.824168657327 15.318198261161575 0.2600382857291689
0.7564989745629749 13.077701285449535 13990.347266966866 15.917591571889345 0.2630408355221496
0.7761729829272598 13.07560630217363 12387.795298631898 16.553347985509127 0.2662205318884167
0.7960776290442545 13.074479195645399 10981.01979458999 17.22374209798313 0.26955001973622617
0.8162160452349113 13.074251595034097 9743.712624240787 17.893033033780434 0.27268888414981524
0.8365819842040622 13.074846107102497 8654.57818761613 18.603808599625562 0.2760223046555362
0.8571683391028551 13.07616149972294 7694.929754190506 19.345726334018494 0.2794495144395
0.8779646748936497 13.077998188305385 6847.572597817392 20.094865289348334 0.2827578189116651
0.898970598930617 13.08037983805481 6100.0309012615935 20.890333655262307 0.2862707206686701
0.9201615367312131 13.083188178665539 5438.8432251641525 21.71145447935902 0.2898093627269771
0.9415570654173864 13.086352245491007 4853.903201590172 22.55104711473291 0.2933080696160896
0.9631321942663398 13.089821392420955 4335.70134254063 23.442516927030116 0.2970229563865423
0.9848655191904688 13.093381544458406 3876.2542181356007 24.35124922048162 0.3006612432814917
1.0067764185767962 13.097191096928228 3468.742294673242 25.29326509513924 0.30434251156645337
1.0288535914090409 13.10106994408096 3106.366407805478 26.29350036311204 0.3082512932213557
1.051065345425273 13.104943331416779 2784.4439046874786 27.300334948106208 0.31200850904337174
1.07342298652152 13.10874971173494 2497.8029673119963 28.35870079433623 0.3159243541316763
1.0958981845587825 13.112432248667282 2231.5562371332494 29.475664724524176 0.32003655737213227
1.1184795052088523 13.115874895777017 2015.1451483181281 30.598376675030803 0.32398260348830127
1.1411799858251042 13.119228172633395 1812.2347842409565 31.78978509421195 0.32817010016824605
1.163954275971428 13.122247750015331 1631.1826576543815 33.02598511146597 0.33243393691186446
1.1868174184141633 13.12489335834332 1469.1967136962257 34.29229822009595 0.3366716658712561
1.2097384332234578 13.127236844703003 1324.4517344131962 35.636426214712955 0.34116980309268935
1.2326979559499158 13.12907392381164 1194.9267097748655 37.00516134756694 0.3455720515204424
1.2557211849380225 13.130520582007888 1078.8431468277297 38.43629132178301 0.3501077675696784
1.2787578897429355 13.131426399590936 974.8151412542135 39.94626808801673 0.35486977217491206
1.3017932900266886 13.13177285319346 881.5136474814041 41.47362004697825 0.35949976511415915
1.3248494279351217 13.131539494898401 797.6966868715858 43.09465758918014 0.36441375519392594
1.347855354250554 13.130556167551944 722.4450890697038 44.76754242666746 0.36937166735388405
1.3708355471737572 13.128993837579932 654.7946328809558 46.50151757107179 0.374411427124753
1.3937643196557246 13.126749106009811 593.9705568986733 48.339261416394386 0.3797449594123886
1.4166221960452052 13.1236844830539 539.1596026187067 50.19892105511031 0.3849361941060704
1.4393991648544713 13.119867496760426 489.7862745467396 52.173102849024055 0.3904471170765105
1.4620525373275026 13.115237460497566 445.29550077929355 54.21170738716999 0.39599632204679375
1.4845920233891248 13.109636913794452 405.1619455350998 56.33362686806067 0.40166684363411653
1.5069937208714415 13.10324884694127 368.9165190207966 58.56853646957611 0.4076013225011305
1.5292460582338536 13.09588932093839 336.14529957744213 60.85488409409512 0.4134978888222319
1.5513236862151059 13.08762164492985 306.5560041447831 63.28336812511921 0.41976102964784523
1.5731965214674626 13.078313016013006 279.7775658383297 65.76986968795434 0.4259948696609872
1.5948596212258408 13.067978275834614 255.5295764860949 68.39338027097821 0.432537309489301
1.6162882010206676 13.056640606950767 233.57590188233 71.11597737795017 0.43920292255849525
1.6374490431448547 13.044144093006643 213.67526760051626 73.95764395475402 0.44606181285028035
1.658371073235978 13.030632277779292 195.61836747600267 76.93553888744572 0.45316345840806804
1.6789755005385232 13.01590437678396 179.22179080421955 80.02111658126148 0.4603607930728196
1.6992660494918863 12.99999326650182 164.33997719825908 83.27691934125433 0.46791305876006944
1.7192351509897477 12.98296482634964 150.81855867496233 86.63573189160684 0.475529681275903
1.7388536829361942 12.964719312143899 138.52239142834108 90.19413694992653 0.48357638969634664
1.758095450703616 12.945125553283612 127.31277858471321 93.85990328207478 0.4916699202477471
1.7769567108238893 12.924434113992087 117.13431309419708 97.74965605479744 0.5002413181510029
1.7953868671370328 12.902313310077668 107.84080507156173 101.76066286944265 0.5088665514157796
1.8133938133401477 12.878992463643938 99.37949606370486 106.01509289614205 0.5179904250705534
1.8309499665209583 12.85428433618992 91.65471918707986 110.41477196679351 0.5272002340608236
1.8480356568077672 12.82825248001452 84.59878483879858 115.07256700943165 0.5369101551194557
1.8646381994401193 12.80098628057813 78.16391142928951 119.91083032823606 0.5468114040065938
1.880692956806198 12.772092139761822 72.27899073738817 125.03135442254873 0.5572392858520132
1.8952390886315587 12.742515802728088 67.15899402878013 130.83252440803147 0.7816163510953856
1.904275045029546 12.711775875468108 63.5465835259991 137.28967670409574 1.1477049246702977
1.907317517803952 12.677303570331114 61.19903448117169 144.21711450062585 1.5404563583024902
