M[M_sun], R[km], Lambda[1], P_c[MeV/fm^3], rho_c[fm^-3]
0.23848912294887037 16.21570186450063 2784644.0411725277 3.4469561053153734 0.1694538074003404
0.24846381231853504 15.873216155657019 2285929.5352792824 3.63240091698577 0.17193023750747327
0.25873041011063047 15.56990581429248 1885096.0773140048 3.8166938207069396 0.17421413285943718
0.26928253798630375 15.300699687592049 1561412.0225808173 4.0125150790004325 0.17661493800606243
0.28011616108874354 15.060949182723208 1298505.9871725163 4.216404627000144 0.1790448258548891
0.29123763562554733 14.846959863664663 1083936.5649707518 4.422955248251596 0.1813730438796716
0.30264096327998063 14.655334257267487 907943.1554356855 4.644461948197413 0.18386984533347167
0.3143228156699415 14.483862827094967 763217.2552456036 4.86671950335395 0.1862352138617867
0.32629966868744253 14.329892927981277 643473.76812475 5.099803564969422 0.18866871752676545
0.3385478343337474 14.191534183823006 544190.1372850619 5.346319297718962 0.19120585632500495
0.35108843738799084 14.067122339889407 461491.635734603 5.587975230135136 0.19343659169062513
0.3639181263993751 13.955106602411137 392415.36981643236 5.846183269398777 0.1958201202020663
0.37702946573944834 13.854284338530537 334512.8945705246 6.122345994203882 0.19836938911812105
0.3902226801834561 13.764591692042023 286490.0528213771 6.409861919272354 0.21872421683168977
0.402554403934915 13.687518471083454 248736.83094889598 6.710043852759668 0.2564603863642422
0.4140285633205532 13.61855437117518 218472.22088868657 7.029092227455053 0.288683232097614
0.42511441626206864 13.553477133170695 192938.8034772195 7.36863886911715 0.31547490454963617
0.4358729161878321 13.49161220596311 171203.44892469986 7.732532490953698 0.34418765716559924
0.4463754789958138 13.431687002338787 150694.130238931 8.110502523944797 0.3695328090483882
0.45677596909297635 13.372704002791176 136000.1231392788 8.510833171961151 0.3945728473805255
0.46707998558502195 13.314979840323613 121551.07458117543 8.94030527256869 0.4214356367149983
0.4772747710040046 13.25802229027143 108835.9466676407 9.380634244902001 0.44810223972194574
0.4873817900039586 13.201607297273965 97603.43687549177 9.850167605110341 0.47641762536951177
0.4973769865083509 13.145837141368006 87671.13691187985 10.347292867612287 0.5039992800275389
0.5075067008075493 13.089669277466294 78698.09067980635 10.853301204796404 0.5225293217246283
0.5178938924490762 13.033387529230131 70539.2014258401 11.395904585406214 0.5423994750972653
0.5285271263266287 12.977444411748575 63162.57221377887 11.964635405850956 0.5632264161629148
0.5393931063840792 12.922060233247281 56510.99478913867 12.541755109598208 0.5843605584068149
0.5504688602175175 12.867521590898408 50539.463934951564 13.160214801350234 0.6070085723504354
0.5617669515498916 12.813761409337122 45175.576115040254 13.795704738640296 0.6267607094661036
0.5734070283380662 12.760612954379193 40329.49012540179 14.45092490201888 0.6438129270484837
0.5854037637478761 12.708538793180113 35959.62063970246 15.152577695366467 0.662073561821615
0.5977477241780942 12.657509294552826 32030.12223319016 15.863987192020723 0.6800796785059857
0.6104363626763758 12.607812300451274 28508.484751502976 16.60342602677494 0.6985118472976344
0.6234376974946123 12.559524812896164 25362.717565719773 17.394590567606343 0.7182333951433312
0.6368063903424329 12.512753202811036 22550.621561147094 18.181518962264878 0.7342155525386231
0.6505632684688121 12.46728746379298 20032.518174951612 19.01369766726248 0.7505671690037647
0.6647026004986117 12.423438718942498 17785.764939629917 19.901771758251403 0.767993835732547
0.6792257108689774 12.381223622439967 15783.280157596359 20.776427185652928 0.7840780679234809
0.6941193581159689 12.34068956584835 14002.27068523235 21.709860045515455 0.8012431713257196
0.7093596140587428 12.301803677112275 12422.816011655479 22.690084741509317 0.8188756649999543
0.7249774543456136 12.26464423521378 11018.264112199608 23.672291990006826 0.8350359271582197
0.7409470437346418 12.229117259718185 9773.796307797022 24.719833526665155 0.8522711347785733
0.7572344066348741 12.19508637107118 8670.600982572743 25.80121301726972 0.8692683391656009
0.7738854023539768 12.162568862656533 7692.288597936347 26.90322822701507 0.8854605711397509
0.7908882684785464 12.131840698366757 6825.881114016002 28.077890810598195 0.9027202322374661
0.8082020640288485 12.102551859014717 6059.201186738852 29.271191959892306 0.9195549272468199
0.8258317917525135 12.07463263685697 5379.765564200385 30.507875598544153 0.9365819496007104
0.8437529453111281 12.048102192395739 4779.398995808188 31.825492995383836 0.9547232916292355
0.8619473567128896 12.022862755708738 4248.479685033189 33.14175870369796 0.9718291989004074
0.8804186566931602 11.998958025144733 3778.5545962857714 34.53159740282707 0.9897553593908316
0.8991369358054269 11.976096539585452 3362.462691986054 35.99378244569881 1.0084264196719912
0.918084273988815 11.954313547936085 2994.519324105992 37.46428112498616 1.0263045068493963
0.9372623320926677 11.933585525757094 2668.565177106737 39.028895359832326 1.0453268358617185
0.9566319718381412 11.913638471284289 2379.7920303066703 40.63998319699791 1.0643751737483245
0.976185846508279 11.894583853155703 2123.966460336769 42.29842632956358 1.0834241699559495
0.9959176499355208 11.876256942556116 1897.1476885146349 44.06293495043668 1.1036914419336952
1.0157823312090015 11.858571374105948 1696.106136558674 45.84109287383745 1.1234271404154905
1.0357769472636837 11.841395099610931 1517.5184579267632 47.71537655869602 1.1441112590298663
1.055888177581878 11.824768363164615 1359.0321787468442 49.678481414673925 1.1655859627804863
1.076072803503434 11.80856861931777 1218.2945307707223 51.6759368491688 1.186880715982788
1.0963266065170745 11.792661144892339 1093.1463991866267 53.799899560600025 1.2095241557160292
1.1166132331744565 11.77693274075533 981.7206766390361 55.969857915801235 1.2321795223868959
1.1369275454689545 11.761362766738074 882.5126990116618 58.239591846191416 1.2556718110242668
1.157220586228933 11.745887799911795 794.1829207982217 60.62558201814933 1.2802353028316316
1.1775091036234002 11.730409063386807 715.4043181509909 63.05906729408139 1.3047997466505556
1.1977370633239748 11.714904962136513 645.1604854370606 65.64650422884145 1.330918231873187
1.217898128096923 11.699169492690103 582.3432801865697 68.29258744200635 1.3571960695201768
1.2379502198858898 11.683215414665597 526.1772863102134 71.07477447854018 1.3846951093591962
1.2578823544440747 11.666961324295851 475.9929765805148 73.97900021921618 1.4131875190697365
1.2776816029493472 11.650348660025353 430.99753612240613 76.980060320782 1.4422900564927663
1.2972937368085766 11.633321753485234 390.74129966958384 80.16292763774425 1.4731259375190293
1.3167316117490833 11.61573820885037 354.57409944112436 83.41013104003974 1.504146032395379
1.3359457816905558 11.597643249292092 322.1118679462915 86.86399996210905 1.5371403750279737
1.3549060557504442 11.578904127963762 292.9824841480728 90.4189731740989 1.5707741335003207
1.3736125483069868 11.559459534500224 266.72222786514175 94.16799693905035 1.606152289723298
1.39201937071408 11.539335778510441 243.1240878940838 98.06828285459211 1.6427411707113317
1.4101235763073952 11.518465275502201 221.8669748341421 102.1507556508463 1.6808728528384778
1.4278747553038804 11.496634652314958 202.67326195958321 106.42876570852911 1.7206770110414453
1.4452775320048639 11.473968412099914 185.3589685953003 110.88822680476356 1.76195447599407
1.462280012769059 11.450367052778288 169.7295312152108 115.58224015688523 1.8052847163636816
1.4788765163707553 11.425818182965727 155.59703003720998 120.46805429367254 1.850141822561713
1.4950521634426293 11.400211100773252 142.78574259424448 125.62337993306156 1.897389768340723
1.5107628128793626 11.373489370527814 131.19830612560182 130.9925250457338 1.946389857906231
1.5259969823127975 11.345656704366387 120.67922379643036 136.6601264161588 1.9980248007422623
1.540739680160607 11.31675046541754 111.14530797278769 142.5783533534114 2.0517437012995803
1.5549645951280389 11.28659269280269 102.47637211427696 148.81888805998574 2.108320747651136
1.568648383987418 11.255227344045789 94.59498669828082 155.3617455669565 2.1675305298606453
1.581761260487634 11.222662037106296 87.43441527642192 162.24607297415042 2.230413292950998
1.594299474018646 11.188816137504553 80.91027985902747 169.50128732421842 2.2972384985912537
1.6062405303343061 11.153668271398026 74.96272909233308 177.11131492600015 2.363589642930968
1.6175783566986741 11.117209338821223 69.5352659451769 185.18003065382564 2.432321668372859
1.6282853834560511 11.079423377414171 64.57718841404198 193.6116883960729 2.4906253972651284
1.6383543312733468 11.040262722705885 60.04946420704987 202.56437850991043 2.5514368035381443
1.6477750188923381 10.999805316768008 55.90633910527208 211.97492686922365 2.614667825002729
1.6564809259862976 10.957810664050166 52.11438881413941 221.92260721602747 2.680986204798178
1.6645315804275553 10.914568414174207 48.644238807899384 232.47276461703927 2.750904538393904
1.671884289215059 10.869908855000176 45.45779634277029 243.56132035739532 2.8234674183083235
1.6785156775327306 10.823898333374956 42.53576292367164 255.34228730347178 2.9000638578372433
1.684424088522657 10.776488384471916 39.85724900849558 267.8283949810384 2.9805124949170745
1.6896025667478576 10.727648068172257 37.39562556719629 281.01901085572024 3.0645152093726886
1.694015121296682 10.67750092094002 35.13863322523902 295.0475974711594 3.153220888995678
1.6976779993192932 10.625947039408924 33.05947621486994 309.9605871144266 3.2467541676802454
1.7005519749021423 10.572992918302106 31.152354540487575 325.74762148322344 3.344357080585545
1.7026868083330797 10.51880574028317 29.39349348929031 342.56517665482943 3.447459968903971
1.704038397741736 10.463173333865067 27.77610925171369 360.486590344363 3.556357902444815
1.7045678509221016 10.406266270622393 26.289590490038016 379.5708776016341 3.671084012765188
