M[M_sun], R[km], Lambda[1], P_c[MeV/fm^3], rho_c[fm^-3]
0.23848912294887037 16.21570186450063 2784644.0411725277 3.4469561053153734 0.1694538074003404
0.2484965297323192 15.872069262715106 2284306.994765444 3.6329816279749387 0.171937992322311
0.2587926413772963 15.568321834584198 1883100.1977329794 3.8178342758477166 0.17422811505215383
0.269376925599813 15.298432535506542 1558832.9087971305 4.014352926562283 0.17663747035992255
0.2802490511217515 15.058160534812295 1295620.3205846383 4.21881367660419 0.17907198042202016
0.2914079719895766 14.843781189563835 1080979.4028443282 4.426183270474754 0.18140942982457373
0.30285359098619 14.652059183662617 905095.4832149185 4.648618685374293 0.18391669966080734
0.3145744894217872 14.480376686438042 760422.0265153598 4.871480840313476 0.1862849243862254
0.32659519741599163 14.326363369022205 640798.1015822084 5.105630628259637 0.1887295547190407
0.33888362213779566 14.18803033908721 541768.4930274762 5.353224001620024 0.19128634639247258
0.3514651002282102 14.063689297813054 459270.40789145214 5.599799890929162 0.1936736436449292
0.36433230979525416 13.951733395886636 390386.913009011 5.863501803671971 0.1962267515482295
0.37747998997747684 13.850991612706316 332707.4412994354 6.134425590494084 0.1987511843484494
0.39091567636958885 13.760287741592013 284206.2902291034 6.411649041421505 0.20122348183061675
0.40463376604361095 13.678710970109153 243358.1138634645 6.707877908582863 0.2038652708999695
0.418636299482729 13.605250924744155 208841.13291749693 7.0050281991120835 0.20636358668033836
0.4329287648421215 13.539147411523274 179580.1914393818 7.31596738613529 0.20892716639484052
0.44750909515060755 13.479833850081537 154740.5826481266 7.647872198542022 0.2116629634566322
0.46236910193902636 13.426576045307145 133602.29167422286 7.974544133454823 0.21416785679629557
0.4775212221363546 13.378959409898519 115553.64687904133 8.322774961719217 0.21683806194452104
0.49294361176168444 13.33632490179912 100131.57466550403 8.688008250636166 0.2195983349232925
0.5086536076381736 13.298342133423999 86915.35114126188 9.05376030726052 0.22221008591236072
0.524643738794374 13.26436831367287 75564.31935390958 9.44341763660044 0.22499253893448123
0.5409108996548263 13.234436640150518 65804.27241706761 9.845707450057688 0.2277780391072652
0.5574628273881115 13.208008204004065 56860.09646518247 10.25477657801694 0.2304789481516516
0.5742929357603609 13.18470887490242 50127.420971121675 10.69034936888254 0.2333548495823132
0.5913930496470211 13.164367459957798 43845.802815707735 11.134380871591238 0.23617123366447232
0.6087748876757817 13.146769927577896 38406.071032201406 11.591497239146145 0.23897883465254155
0.6264271240660549 13.131482070094005 33681.59989602663 12.07799709647534 0.24196690853718303
0.6443363089914639 13.11849578899362 29582.09103417638 12.568632785173742 0.24484068383851804
0.6625289404306499 13.107621318106496 26011.96796347342 13.079376953688183 0.24777350755087654
0.6809771484208329 13.098582154901932 22900.874021777505 13.622731100111418 0.2508935861011093
0.6996741541582236 13.091103672969586 20185.665226033656 14.1651907717695 0.2538378846341953
0.7186495386256792 13.085276784870738 17812.723659521882 14.736041880585285 0.2569076876257045
0.7378553992979794 13.080782167253304 15737.340516485485 15.342285708306893 0.2601634788416092
0.7572967272031177 13.077577775422125 13920.257397996604 15.942972935243088 0.26316777884053044
0.777008658956663 13.07551295783274 12324.18310936867 16.581091423228166 0.26635928897558586
0.7969483315858483 13.074444215588878 10923.595247596051 17.25200530065622 0.2696825695084399
0.8171241359056074 13.074353078182396 9692.42065119864 17.92384802370606 0.2728334013845622
0.8375206541600579 13.074883461343394 8608.04604475368 18.637410502666576 0.2761798920544431
0.8581377754505898 13.076167948941354 7652.063407578954 19.37993211867417 0.279600572063116
0.8789723301089567 13.078153260369833 6809.934206569708 20.132081006006363 0.282922168824293
0.9000032961106987 13.080482516334337 6065.362777487624 20.930833710346555 0.28644957468821464
0.9212390150715716 13.083313315287796 5407.4808410983505 21.75267089574536 0.2899811176398715
0.9426696771967749 13.086484120173711 4824.972834774961 22.595811822406095 0.2934946107844212
0.964278813191057 13.090021390048456 4309.904390287288 23.491150620116436 0.2972256201902431
0.9860481631697186 13.093678599478755 3853.1555701070783 24.400724892453784 0.3008545873927833
1.0079959793832682 13.097475137902254 3447.6318030367465 25.34692124708767 0.3045521924176733
1.0301091381749938 13.101327259252265 3087.2412559440886 26.351712185641485 0.3084787770057084
1.052349101602466 13.10515132824779 2767.11462373074 27.35955058032018 0.3122276008095903
1.0747461013667066 13.108991662645908 2482.0072812498656 28.422841460547247 0.3161616680185876
1.0972486254953948 13.11259435106045 2228.2442483655536 29.54106920582144 0.32026643744002203
1.1198673991315415 13.116133962334333 2002.1296756826302 30.669119164188448 0.32423124529216085
1.142595968001727 13.119373822868988 1800.3276113540244 31.866335518956678 0.328439155384162
1.165404707105997 13.122404414025867 1620.2911903081101 33.10409368349679 0.3326953279970676
1.1883027588000155 13.1251741843875 1459.3992866435224 34.37671214228038 0.3369541578712037
1.2112598642317256 13.127434089349395 1315.4640916163894 35.727699415353115 0.3414752497337556
1.2342424928415134 13.129169718441961 1186.7298932046522 37.09833600319254 0.34586735228872834
1.2572856206227314 13.130566268028312 1071.360108499422 38.5369234264414 0.35042670341784793
1.280349725908141 13.131420983887569 968.005671480038 40.049223979797915 0.3551818711964924
1.3034263326289974 13.131731285547557 875.2838538589102 41.58470437601066 0.3598365045644629
1.3264947695136593 13.131476327652239 792.0389629715485 43.21457719194529 0.36477727776697944
1.3495356341487814 13.130462154327493 717.3112019911499 44.89035487483586 0.36972861897319553
1.372533893708177 13.12887313372494 650.0172531439293 46.63398303103632 0.37479643500581367
1.3954904277505498 13.126526746502034 589.6079116561964 48.47525002286659 0.3801245712279956
1.418365960372937 13.123422076248227 535.1872430790603 50.345488688459476 0.38534533724569264
1.4411546419650767 13.119552513911978 486.1981178170683 52.33116556919172 0.3908883487189193
1.4638195153148204 13.114786890913837 442.003496588173 54.374115550084255 0.3964303342711295
1.4863997231883161 13.109245262368423 402.12093431899126 56.50866207804219 0.40213459980756244
1.508804214269554 13.102678697907214 366.12106471913046 58.74877436629557 0.4080661620120538
1.531069833757438 13.095245608718367 333.6085032401177 61.04903316525993 0.4139986057132359
1.553158541190188 13.08686329232618 304.21541553010155 63.49263462579706 0.4203007348907395
1.5750392316692448 13.077510178868154 277.6350314737511 65.96325326541235 0.42644366176186105
1.596718098210724 13.06707073200655 253.55677448846387 68.5770224911777 0.4329236487701475
1.6181591163972726 13.055597645801944 231.75088077234034 71.35494208112604 0.43981059298675435
1.6348556990726446 13.042477595910608 215.5072800029602 74.77814482621397 1.0140474921686429
1.6351767396347308 13.02148421407138 211.9116122102963 78.71626718288609 1.8930824461876907
