M[M_sun], R[km], Lambda[1], P_c[MeV/fm^3], rho_c[fm^-3]
0.23848912294887037 16.21570186450063 2784644.0411725277 3.4469561053153734 0.1694538074003404
0.24851423865563083 15.87166077121248 2283665.4011634327 3.6332904874735235 0.17194211683220847
0.2588260571953706 15.567335808266384 1881725.8900321617 3.818440938092094 0.17423555284441017
0.26942989666410017 15.29708421756823 1557289.7929279155 4.015330732855762 0.1766494584474379
0.2803174234117985 15.0568568514107 1294207.7065817788 4.220095559639687 0.17908642967988647
0.29149887127199026 14.842168118948718 1079316.7614828271 4.427901232250944 0.18142879451856
0.3029641123666844 14.650285919658051 903503.9462701986 4.650831301533459 0.18394164004971772
0.3147059223096407 14.47860781015288 758988.172795224 4.8740155707316 0.186311388125185
0.3267431569035616 14.324444774785455 639424.1768856007 5.108733249909153 0.1887619475008672
0.3390630557872313 14.186176735972474 540429.3739784368 5.356659528146768 0.191319608456582
0.3516712180771851 14.061785592162709 458071.2976810121 5.603880495341961 0.19371315122099567
0.3645604202519272 13.949868378993877 389289.95871285535 5.868304875720474 0.19627325390795683
0.3777305544829347 13.849243715273797 331705.7059346359 6.139578576086039 0.19879713902242094
0.39119646250777207 13.758507446876672 283291.98067027645 6.4176116202112405 0.20127665651147356
0.4049452991416501 13.676901349858456 242506.25103732815 6.714743093596669 0.20392649508416988
0.41897669878948823 13.603505624185456 208077.80536710925 7.012256676223923 0.20642318282667185
0.4333004055996439 13.537537825601621 178892.48498280588 7.324196542340397 0.20899501277379598
0.44790971343300573 13.47827917534247 154119.44162802064 7.656486640559789 0.21172901828451626
0.4628006417920505 13.425173015502367 133040.92767526247 7.984263406098105 0.2142423833739063
0.4779822956977813 13.37766536600187 115056.80858901626 8.333716936072499 0.2169219640975714
0.49343833049347 13.335009605585578 99677.9296683206 8.699360291441625 0.219679397225649
0.5091873069637871 13.297081862371162 86499.80799181451 9.066454072001326 0.22230072915555332
0.5252117944877392 13.263259294293167 75193.9718789795 9.457592315839626 0.2250937570461833
0.5415117163087813 13.233466786090334 65475.9492436486 9.860314353545721 0.22787448226331106
0.5581028311131866 13.207026521168867 57088.18689538813 10.270999905348669 0.23058606386517147
0.5749741620248723 13.183935201929332 49861.6433294151 10.708352757816021 0.23347371828365626
0.5921042178494345 13.163566265892744 43605.75321095098 11.152839424880145 0.2362846057861696
0.609533092868246 13.146067961973193 38186.8741355738 11.611890247174058 0.23910408816248505
0.6272223608810433 13.130874208379621 33487.148154091126 12.100516220078216 0.24210522061298131
0.6451786630070352 13.117953320006583 29403.826612047953 12.591644385737192 0.244972822337501
0.6634096475290867 13.107135709752898 25851.2635353618 13.104692630055862 0.2479188766427283
0.681895006348463 13.098084398816432 22756.908305922254 13.650574889332894 0.25105347226389835
0.70063962183854 13.09079850175823 20056.218864815753 14.193579707180795 0.2539905486782963
0.7196522612713597 13.08503820257498 17696.667596680916 14.767165681565622 0.2570750586544738
0.7389034248072246 13.080610312866707 15632.33078760602 15.37404523759003 0.26032232216224666
0.7584006572093394 13.077389754062136 13824.664767691094 15.977691638402105 0.2633414222862138
0.7781486451120184 13.075371060944482 12238.92769708165 16.61904595427607 0.2665491162142436
0.798137659801047 13.074422403461499 10846.679525569467 17.29067045832551 0.2698639027388225
0.8183494981877993 13.074284246722849 9622.387694482513 17.966009434786514 0.27303113146843
0.838800827344184 13.074968038530876 8544.646005884835 18.68339093989039 0.276395532742825
0.8594559013090516 13.076263173048282 7595.44674583479 19.426738202140037 0.27980727440338676
0.8803421782143174 13.078288345029273 6758.01297287803 20.183012354746104 0.2831470889243763
0.9014219915952602 13.080678889792711 6018.727588846317 20.986267158905637 0.2866943767032091
0.9227080431636939 13.083499148932054 5364.968807720711 21.809083853698745 0.2902161987926961
0.9441853934585007 13.086737065657587 4786.920642127406 22.657089440205816 0.2937499636954776
0.96584016451441 13.09025650217272 4275.1412227145165 23.55773346178862 0.29750308075509363
0.9876537571097035 13.09395043593372 3821.7579586068487 24.46845906826293 0.3011192832221449
1.0096524565999263 13.097733153577718 3418.929237288251 25.420388644795935 0.30483929288852296
1.0318023118820587 13.10158596080557 3061.2000066596243 26.431428429401535 0.30879029710621286
1.054094696346318 13.105418337394886 2743.4018884925454 27.44063959646903 0.3125276218531009
1.07653930472679 13.109229424327452 2460.516261094098 28.510686997806808 0.3164866874972798
1.09908805558563 13.112931221378416 2208.876746129624 29.630643794888442 0.32058126927122843
1.1217573484028227 13.116419987123912 1984.4289619042447 30.76601796326868 0.3245718198532488
1.1445364859476517 13.119775973460149 1784.3575407005874 31.971204716277192 0.328807743861915
1.1673771773523396 13.122629975528708 1605.7028122969064 33.211095231077756 0.333053409701974
1.1903169659460209 13.12528429094982 1446.0250584706678 34.49236808963382 0.33734120160792674
1.2133081102946666 13.127573689793378 1303.3638182097486 35.85277175827703 0.34189380552853926
1.2363429538021955 13.129272548548716 1175.5720439252088 37.226011225939864 0.3462719965679609
1.259427243817573 13.130652327479936 1061.2753808837879 38.6748378932525 0.35086379918958566
1.2825232066818086 13.131455155447014 958.7964614615842 40.19032059899198 0.35560958947503796
1.3056377086456847 13.131697720423135 866.861642704801 41.736963403474796 0.36029806040819584
1.3287480829427671 13.13142725617276 784.4272535424477 43.37897155548627 0.3652756204953734
1.351805716285692 13.130365315861123 710.3112969780199 45.05871219358063 0.37021794573481576
1.374864273960438 13.128726989908563 643.6964171150421 46.81560119153865 0.3753243041058481
1.3978309098932185 13.12626433320432 583.8094149109095 48.66169643925976 0.3806450358792375
1.4207410632842519 13.123074647328067 529.8577821117784 50.54647072056203 0.385906378027638
1.4435552828534417 13.119061758169053 481.2875633081035 52.54794493857243 0.39149348772380765
1.466253703261432 13.114238105222498 437.51286977500257 54.59685241054151 0.397025566176435
1.4888389164677789 13.108547814347123 398.02925840133594 56.74875521454986 0.40277621383947815
1.5112752428143494 13.101886647031005 362.3681378296514 58.996002703837426 0.408703772090739
1.533555720055122 13.09434283810088 330.1457892371311 61.3153866577081 0.4146855402004655
1.5556716771310857 13.086058225373003 301.0837260374805 63.77514048097138 0.4210204678442337
1.5775458066930907 13.076302354013066 274.72853011412536 66.28165747739138 0.4272711522263879
1.5992061984322903 13.065741645339486 250.91349082205684 68.94484834877645 0.4339125456860128
1.6206609246572545 13.05415818391372 229.31984086413271 71.68580154668918 0.4405782990684953
1.6418447411568486 13.041443928652626 209.76165654991019 74.57146310717937 0.44754337942809375
1.6627339802980137 13.027576565522205 192.01969199809585 77.57106671872441 0.4546458733541069
1.6833292068907104 13.012570326485578 175.926922402319 80.7055712901636 0.4619573335238045
1.7036362968119572 12.996464929331006 161.30459509620965 83.98698841103662 0.4695232492615112
1.7235730405007275 12.97907178905752 148.0242602870171 87.40038115750156 0.47726364074164274
1.7431681684794031 12.96044959841612 135.9385290213515 90.98900977530478 0.4853313644857263
1.7623799151611934 12.940605134109907 124.94600493740239 94.71586197652614 0.49355976461221834
1.7811897704248176 12.919469778597616 114.93832779845673 98.64115419955631 0.5021583878068273
1.7995774972815648 12.897098637114915 105.82570143470521 102.72074721099123 0.5109311082171991
1.8175473859103048 12.873472012690032 97.52092883793252 107.01682669121455 0.5200873454966949
1.835015454180649 12.84829160708211 89.93745881298129 111.49375170477835 0.529458852730876
1.8520330309640531 12.821819312547508 83.01518108758376 116.2003550348541 0.5392181134085885
1.8685451570479152 12.794019227638046 76.69253923142654 121.1258930978401 0.5492979654239079
1.884548357486613 12.764800099961784 70.91217123317425 126.2884664687054 0.559735041828532
1.8999970986398684 12.734245726257752 65.63566805841012 131.72191790064213 0.570617523737263
1.9148710886873566 12.702132384539874 60.80290056710858 137.39350126940874 0.5817890350182879
1.9291848320112788 12.668612215953054 56.376798873172994 143.39903394894034 0.5935527161796242
1.9428954103080804 12.633637649478713 52.323735838045806 149.64552747969117 0.6055331575294509
1.9560024500357676 12.597342429112253 48.61117884611714 156.25549726901676 0.618132947642709
1.9684316812094853 12.559272129240119 45.20208019641048 163.19577278580078 0.6311988017994605
1.9802582956915962 12.52001756692024 42.0772703185651 170.4882469712083 0.6447603767049459
1.9913627563034206 12.478962935273337 39.20262059933496 178.2043237070431 0.6590053932394705
2.001810357412557 12.436584001032287 36.5666885881873 186.2871878486636 0.6736818367010713
2.011563757468715 12.392700385629572 34.141127928123005 194.82784943788675 0.6890376442326931
2.020581261610471 12.347269432852501 31.910009830855113 203.86665961781748 0.7051467727170949
2.0288473059464427 12.300280757740463 29.859715121826245 213.35685874276038 0.7218073171949476
2.0363519280103572 12.251762885675532 27.97271720320812 223.40202666502972 0.7392851741323953
2.04312506403984 12.201839114521885 26.23304638421861 234.0423872956627 0.757632467577887
2.049085361229842 12.150278695579132 24.63048715760776 245.27549965389065 0.7767452838659415
2.054292660653617 12.09737122341206 23.153093594829674 257.15633927888797 0.7967152589240072
2.058638479629033 12.042751331492244 21.790869262122722 269.75121455135906 0.8176794840925966
2.0622023349826377 11.986780385313812 20.534339180659412 283.13370306796577 0.8397786894415679
