M[M_sun], R[km], Lambda[1], P_c[MeV/fm^3], rho_c[fm^-3]
0.23848912294887037 16.21570186450063 2784644.0411725277 3.4469561053153734 0.1694538074003404
0.248486150919715 15.872480505798311 2284951.597203135 3.632828182105366 0.17193594320609254
0.2587785683474263 15.568539619507048 1883400.277304936 3.817532901730777 0.17422442014927497
0.2693544069639247 15.298956025099328 1559387.8754565953 4.013867221029692 0.17663151551951067
0.2802138220857788 15.058881082141205 1296434.0361918896 4.218176972288715 0.1790648035544089
0.2913639542009759 14.84457383499177 1081638.7005157778 4.425330044123863 0.18139981234215063
0.3027942605322712 14.652969779960038 905868.3902067988 4.64751988939502 0.18390431414199843
0.31450826155449674 14.481311970886294 761162.3264833391 4.870222155165141 0.18627178314052933
0.3265160614395794 14.327128242417606 641494.3621363326 5.104090082773474 0.18871347072316103
0.3387947586044771 14.18888489697852 542387.9921676377 5.351518246436212 0.1912698316201845
0.3513685881155079 14.064522205013482 459844.7307761238 5.597774035696502 0.19365402972953644
0.36422020372369907 13.952585420054858 390915.8896782067 5.861117495443196 0.19620366716435275
0.37735185266450966 13.851955034681506 333208.35441790783 6.131867686699265 0.198728372789433
0.3907726643751504 13.76124714791045 284684.91955182864 6.4086895372504955 0.2011970887722879
0.4044788790420619 13.679560265543055 243771.84567991813 6.704470725492856 0.20383488541076747
0.41846790172595844 13.606073943380308 209219.7973737998 7.001440830109189 0.20633401013679523
0.43274694327469587 13.540005714831356 179933.3485328047 7.311883786696481 0.2088934986130993
0.44731139564403455 13.480590633625376 155050.79651899624 7.64333047513707 0.21162615516584768
0.46215468456993974 13.427288301259876 133871.61198067552 7.969721673772103 0.21413087857487823
0.4772856246590362 13.379494216469222 115802.13620094629 8.317346357795351 0.2167964358592677
0.4926984699646342 13.336913547244416 100358.80073954305 8.68191339198492 0.21954489681408992
0.508387616143834 13.298826718433025 87116.14589879704 9.044555640541645 0.2220833362652565
0.5243718773151466 13.264991429883763 75744.02826655915 9.430769940227567 0.22478677641551265
0.5406250371868162 13.234929982631964 65962.8174289146 9.842460328625673 0.22766854523239768
0.5551716939239999 13.209427885967406 58409.68865548858 10.308303413875263 0.33168425147745184
0.5658600954945165 13.18471666138851 53270.27178957636 10.808891258746357 0.44969398156235224
0.5731470959075297 13.157074267118057 49729.96269381876 11.345532068163049 0.5762029204442265
0.5774293204010854 13.125182390532208 47328.08920646889 11.987486676209597 0.7268255552901551
0.5790557415113814 13.088747966755546 45781.90844983036 12.770345147900935 0.9096672364389666
