M[M_sun], R[km], Lambda[1], P_c[MeV/fm^3], rho_c[fm^-3]
0.23848912294887037 16.21570186450063 2784644.0411725277 3.4469561053153734 0.1694538074003404
0.24847808240502067 15.87271585172582 2285323.6677380274 3.6326458142382045 0.1719335078655039
0.25875602224064376 15.569278135256413 1884320.031705604 3.8171747447206323 0.17422002907753562
0.2693251116530021 15.299639180359963 1560240.660635339 4.013290039532529 0.17662443916671322
0.2801719330012662 15.059769686204916 1297277.8772108147 4.217420392472681 0.17905627546209815
0.29131145339720005 14.845506371256446 1082533.8130030914 4.4243162420872295 0.18138838486659548
0.3027265955864084 14.653973261194738 906703.7277827247 4.646214388815585 0.18388959866952978
0.3144294600199094 14.48242257922801 762042.793657095 4.868726751341003 0.18625617044414228
0.3264240326043672 14.328305401580527 642344.4748201476 5.102259930907346 0.1886943631048931
0.3386882671050122 14.18997653505337 534513.6817492516 5.349491902786621 0.19125021297603903
0.3512468148419471 14.065658446682496 460536.89987851214 5.595367589602563 0.1936307310113838
0.36408444757340186 13.953754584098784 385886.985306351 5.858285447280701 0.19617624785415136
0.37720337478372323 13.85297672050228 333792.8555467856 6.128829535653773 0.19870127835295917
0.39060846257370846 13.76221567109108 285205.8961496988 6.4051746229563085 0.20116574252892183
0.40429937810904604 13.680595726928065 244274.15436666657 6.700424397795648 0.20379879998673725
0.41826762422548597 13.607063334084454 209654.24759159712 6.997180615473456 0.2062988862274413
0.432531677256281 13.540857997644546 180323.36710226996 7.307034604528168 0.20885351888215056
0.44707292334064547 13.481490872207855 155418.12904066182 7.637827256360221 0.21158078314260462
0.4619015541431046 13.428198361592806 134201.8665381185 7.963995618914408 0.21408697166050122
0.47701034115752083 13.380422100367806 116114.0925552158 8.31090104062842 0.21674701370107777
0.4924041873647063 13.337704666899754 100626.35197531874 8.675689677917756 0.21951037083970495
0.5080752115289137 13.29962271637847 87363.98173320654 9.039987640069551 0.22211173847587573
0.524027342215553 13.265578267001622 75962.37562555214 9.428040325378568 0.22488273310546253
0.54025092341611 13.235631299361925 66168.09960379633 9.829861527038737 0.22767341523351545
0.5567616950641496 13.208991390277928 57717.73958357076 10.237179558670126 0.23036276253543275
0.5735519675575061 13.185684311521563 50422.721254068645 10.670824343012933 0.2332259341610342
0.5906109907502479 13.165255893893448 44112.372953167906 11.114362385340353 0.23604828046094065
0.6079521909880848 13.147484910089645 38642.45520388371 11.569383952809943 0.23884301522236215
0.625558762985507 13.132228257450462 33898.26578798794 12.053581897881415 0.24181695080090054
0.6434292887006808 13.119113651227293 29774.18353617801 12.5436836709182 0.2446974196401155
0.6615712109871985 13.108114138728979 26185.91208664549 13.051933747418751 0.2476159216379052
0.6799717597654427 13.098920964324964 23057.065003288233 13.592551812075952 0.25072028890648845
0.6986337227624323 13.091523326762498 20328.45647668672 14.134420446782398 0.25367241445425454
0.7175495390682667 13.085590987181641 17941.44296747174 14.702312284352878 0.2567263036994624
0.7367111811472271 13.081050449010982 15853.304221894263 15.306170565065228 0.2599736057156114
0.7561126622523131 13.07775459994924 14024.175999356 15.9053527409043 0.2629796237662368
0.7757651945055274 13.075582779813445 12418.816262109245 16.53997122623339 0.26615362885456556
0.7956568612672588 13.074492592252874 11008.657639773432 17.21011463173607 0.26948610916077614
0.815778278479763 13.074236317301024 9769.092591547103 17.87817636328551 0.27261920880860446
0.8361274737380379 13.074786645118989 8677.156519776265 18.58760960110989 0.2759463340166748
0.8566912041148306 13.07606824889829 7715.228567092471 19.329236058395605 0.2793766910304351
0.8774694511638739 13.077988775392308 6866.813910224585 20.076925405815516 0.28267859382732063
0.8984664323725652 13.080335107416973 6116.729978241001 20.870812171866728 0.2861845110137571
0.9196430865467238 13.083106238221758 5453.92638937814 21.691587482373183 0.2897265740074341
0.9410166746950306 13.08626406569022 4867.668070813891 22.529471571951525 0.29321816113311205
0.9625797941594134 13.089715207956075 4348.114241172235 23.419078617673016 0.2969252854792929
0.984303426706319 13.09331252942313 3887.500990859215 24.32740482391771 0.30056806266404545
1.0061953558790127 13.097156828306167 3479.028509562089 25.267408151040307 0.3042414661904484
1.028254787753892 13.100954802119814 3115.5317632194824 26.26545048602643 0.3081416781652932
1.0504424910608894 13.104821412025329 2792.8574040515964 27.271800965544937 0.3119029362342525
1.0727883656764667 13.108615177043767 2505.4332913302337 28.32779630783903 0.31581001070110576
1.0952630525312146 13.112463769963412 2249.701557850324 29.4441508960138 0.3199257943037042
1.1178197755385504 13.115832693398959 2021.5049131581447 30.56429382196238 0.3238628109538779
1.1404924735530308 13.119141439269148 1818.0710500701987 31.752907363497595 0.32804048435183575
1.1632560245256112 13.122134263991079 1636.3609079284636 32.9883562640154 0.3323080116130872
1.1861050042964694 13.124827553838891 1473.9555257708084 34.25163543487794 0.33653558747065077
1.209017248698688 13.127168989111032 1328.7225005006853 35.59246333262475 0.34102268088626675
1.2319519740171239 13.128990667071616 1198.8893155606077 36.96028201069162 0.3454298143147295
1.2549566688787517 13.130473965149504 1082.4497361699125 38.38782446881774 0.34995416035942417
1.277979490554542 13.131328347156396 978.0644873512234 39.89668147931387 0.35471945603669097
1.3010066574234775 13.131729254592694 884.5187185882676 41.4201235464782 0.3593375965857225
1.3240500335565288 13.131506311144566 800.4413200549217 43.03691169502476 0.3642387051141842
1.3470410914221984 13.130608727594591 724.9682079637702 44.708402906763574 0.3691997796689643
1.3700149440180431 13.129114076519986 657.1261725861704 46.43773587196567 0.3742260470503558
1.392932397850999 13.12689111118182 596.0778704933238 48.27378284988851 0.37956217617664956
1.4157732427138716 13.123781857763216 541.0943160418137 50.128355567332285 0.3847392107437908
1.438544280985497 13.119997943653475 491.5369247371476 52.09701062204604 0.3902347058371718
1.4611938376580038 13.115383580626766 446.906759701915 54.13352275919452 0.3957873849854564
1.4837368847708736 13.109944637691589 406.6220212994199 56.24937199175357 0.40144168471586383
1.506116170359979 13.103529512095042 370.2724497897174 58.481776954286424 0.4073775668349291
1.5283540402688234 13.096180681880378 337.4126912985596 60.76143784039629 0.4132568878359931
1.5504360503353456 13.087947260268963 307.6795203389013 63.18265623437121 0.4195012903427848
1.572299344132116 13.078721236386901 280.816233392672 65.66603731812708 0.42573593530172765
1.5939714096550268 13.068440582499587 256.48916698466076 68.28152037412276 0.43225835629997
1.6153754511126184 13.057082866495833 234.46528728172296 71.00039480597786 0.4389239425446992
1.6365703493957096 13.04474660096912 214.47724074493348 73.8331633325311 0.44576135573886216
1.657467393386855 13.031184422395544 196.35398018183145 76.80665745469729 0.45286283308094627
1.6780820935415937 13.01653449610574 179.9046555435532 79.8823423567931 0.460037092088611
1.698385529563191 13.00072246943315 164.9689934226973 83.13295465586678 0.4675865967596543
1.7183525745010078 12.983728866998428 151.3954359858703 86.48073453508628 0.4751782010018861
1.7379786819808671 12.96555487222461 139.04868376896258 90.03301771489207 0.48322065958891086
1.7572300999114765 12.946152021267679 127.81802099440714 93.68644008740543 0.4912869362988555
1.7761039310102453 12.925492388401247 117.59109054389913 97.56899725393026 0.49985283107760164
1.7945399039527836 12.903458207219861 108.26308820629406 101.56614888279657 0.5084482702745065
1.812555056782764 12.880129568948652 99.76176685909847 105.81214974244659 0.5175656059754775
1.8301145856667607 12.855525856654227 92.01168540960276 110.19622945049592 0.5267427609590286
1.8472032730279744 12.829547574261218 84.92891795598463 114.84415073783154 0.5364427133524492
1.8638035304291918 12.802210542354928 78.47259926034378 119.66479557256753 0.546307906947785
1.879899938391744 12.773550355003103 72.55930796454612 124.75854347888816 0.5566708091824875
1.8954506588846487 12.743405869329328 67.1557221036757 130.07310091744253 0.5673151622060618
1.9104693387033709 12.711873269794282 62.20527605555265 135.6640274447984 0.5783994417088081
1.9249045400869893 12.678966515551537 57.68078888811245 141.53842433871563 0.5899126638955257
1.9387867516182817 12.644692397805679 53.52957502116847 147.68637395697968 0.6017756055911349
1.9520097964902428 12.608781124660425 49.72967038980157 154.19314500644398 0.6142503360925686
1.964604290040559 12.571316937846351 46.23780263921526 160.97155967529469 0.6270114688837677
1.9765737784374602 12.532542209637695 43.03594750423174 168.14302340760304 0.6404231727637488
1.9878895515406483 12.492263761273255 40.0971754084615 175.68955539028886 0.6543795600206458
1.9985190902940397 12.450477697413518 37.39467098451894 183.61419447814953 0.6688283546446825
2.0084499328177734 12.407209994402459 34.9111851390482 192.00018490313707 0.6839945990413209
2.017666820815673 12.362385897593057 32.62837932684047 200.8207361383002 0.6997257573683038
2.026174144561433 12.316151861531486 30.52669731241127 210.12125241173857 0.7161270398392146
2.0339263115890747 12.268312268472428 28.589303975597286 219.96839614632844 0.7333483779758952
2.0409132528161504 12.21898192853089 26.80735552097484 230.36193982207206 0.7513189632821757
2.047144099108204 12.16818672214901 25.165509684799378 241.33032960958937 0.7700326909640611
2.052563749569339 12.115846244177007 23.651319606649615 252.95704839461973 0.78967934986692
2.057202654390858 12.062024459440847 22.254880789387215 265.28411485169266 0.8103041399631932
2.0610389171682564 12.006723822493706 20.96670688000237 278.3185737535499 0.8318431422670557
2.0640473687540846 11.9499656601412 19.778673226607946 292.0572881098655 0.854182159035272
2.0662322883369284 11.891706070515445 18.681136225489503 306.73016009802365 0.8779409912785207
2.06743713693401 11.83310762132761 17.692685305048386 322.8454197075415 1.156178727083081
