e[MeV/fm^3], P[MeV/fm^3], rho[fm^-3], v2[1], mu_q[MeV], mu_e[MeV]
71.58195607221194 0.019376260638347076 0.07551183166112621 0.01806185032450322 316.57195128971085 89.92341642585284
74.10016491175249 0.06485977178396946 0.07815115873557246 0.01806185032450326 316.72146406873105 91.024765790619
76.70639143836377 0.11193304521937247 0.08088273688183939 0.018061850324503265 316.876202692721 92.16461006582368
79.40371208999426 0.16065164710631397 0.08370979050524349 0.018061850324503224 317.0363498180116 93.34429474471072
82.19531083378259 0.21107308578268988 0.08663565671212049 0.018061850324503186 317.2020944852288 94.56521234887349
85.08448292446792 0.26325687964638034 0.08966378924900394 0.018061850324503227 317.3736323424404 95.82880407201151
88.0746387941701 0.317264627411876 0.09279776257949199 0.018061850324503234 317.55116587610246 97.13656148114251
91.1693080781302 0.37316008082260077 0.09604127610361388 0.0180618503245032 317.7349046500787 98.49002827727713
94.37214378115249 0.4310092199045644 0.09939815852466523 0.018088487354544512 317.9250655530129 99.89080211763012
97.6869757993967 0.49106090179612444 0.10287237236868205 0.019255301458732603 318.1222990017657 101.33984570908403
101.11986451800226 0.5612123980307122 0.10646801866188291 0.021662464342603646 318.3451487000273 102.80997251328064
104.67528624500615 0.6427510757917515 0.11018934177159138 0.024237271178381786 318.59574432277356 104.30486344182296
108.35791622476958 0.736980624741799 0.11404073441636543 0.026920267095794273 318.8759904930379 105.82396075340817
112.1727714362078 0.844944139362974 0.11802674285124978 0.029903169158792375 319.1863342944128 107.33131489870814
116.12536221854529 0.9697012467608513 0.12215207223425231 0.033128604049492305 319.53184301002517 108.83594926945497
120.22058430169312 1.1120115025052542 0.12642159218040233 0.03642699727296762 319.9131521806471 110.36057643612367
124.4640269233187 1.2739597956119093 0.130840342509936 0.04005797794488111 320.3330553238233 111.91312631407268
128.8618971317408 1.458760515403257 0.13541353919739 0.044167339746025575 320.79588975142224 113.49907969978847
133.4208715816421 1.6702641954106736 0.1401465805286361 0.04845346643322773 321.30651694759945 115.12367962053304
138.14674713038173 1.9093441223752088 0.14504505347311691 0.052773525840877133 321.864973007233 116.79378000164584
143.046301157445 2.1790046101745664 0.1501147402788089 0.057528169039875315 322.47450701812625 118.51374226197309
148.1273960447996 2.4844335534151987 0.15536162529769304 0.06284216502195894 323.1410092423423 120.28727240461446
153.3980665613772 2.830586859448035 0.16079190204979565 0.06832610081857435 323.8695330774141 122.11815106148126
158.86527298295658 3.219172163942335 0.1664119805341341 0.07388078486914754 324.6608118435546 124.01003694966207
164.53733520637863 3.6547355939838426 0.17222849479519628 0.08003547718389081 325.5190968335605 125.96563778643767
170.4244790514288 4.145740845861174 0.17824831075389239 0.0868529844855449 326.4526563846883 127.98699818273994
176.53631225317216 4.698462512306701 0.18447853431221173 0.09382020158110449 327.46672096984696 130.0757416868159
182.8813754413206 5.316058719226849 0.19092651974116215 0.10090610940848843 328.5630444196908 132.23321948878043
189.47003531795517 6.005327445562022 0.19759987836188778 0.10878861147005087 329.74707517392477 134.4600859855788
196.31596471295904 6.779778757210621 0.2045064875302128 0.11740966184855067 331.0300349266862 136.75533593637135
203.43050851080594 7.646768440999467 0.2116544999352168 0.12608946577877583 332.4166501261103 139.11816799894396
210.8244028704521 8.611548461528256 0.2190523532228215 0.1349022716417198 333.9096258088783 141.54800776113123
218.51074020607123 9.683761637930058 0.2267087799557421 0.144675685399567 335.51527196244086 144.04316211894482
226.5082297443755 10.883905458890382 0.2346328179215674 0.15515575564888284 337.2475539070624 146.5980221258686
234.82991040706085 12.219142432571214 0.24283382080112978 0.165468793415954 339.10915812779723 149.21047258606862
243.4895649756236 13.697245910404929 0.251321469209763 0.17584512352042914 341.1031533419793 151.87844925539375
252.5038440061727 15.330749682934059 0.2601057821244808 0.18722157626269964 343.23564238728784 154.59823272020708
261.8986645589929 17.148496170258692 0.2691971287105613 0.1990941783168373 345.52172126130665 157.35874279741
271.6882403462793 19.154773742642355 0.2786062405615009 0.21042316819891171 347.9601724040327 160.15923345514636
281.89049785111735 21.359861900727388 0.28834422436678714 0.22164620815909453 350.553435966267 162.99688619016126
292.5265475405733 23.778386588672046 0.29842257502243846 0.2337246132981532 353.30588629997703 165.86712739404365
303.63223194734013 26.447522162853414 0.3088531891997931 0.24592594617416275 356.23075742095136 168.75397623493998
315.221644345916 29.365222005850605 0.3196483793885593 0.2571506414649065 359.3222217150829 171.66146423910627
327.3182001354512 32.54397588998893 0.3308208884307057 0.2680601823279971 362.5812187590644 174.58688764206116
339.94834281111105 35.99922256647753 0.34238390456234696 0.27953912812815473 366.0093102394057 177.52639819239948
353.1609909336148 39.77515980981052 0.35435107698138235 0.29073954455728535 369.6146067251103 180.46095093582716
366.9678973380775 43.86090014922628 0.36673653195926065 0.30065088098701787 373.38857293297076 183.40165313600272
381.39961501803265 48.271172544303795 0.37955488951589167 0.31015245142971803 377.3304189270836 186.34635558829183
396.4906533657989 53.02360113792524 0.3928212806773882 0.31982610479761786 381.43924800134255 189.29179087628498
412.3008527606959 58.16142376409454 0.40655136533700936 0.3289384922226952 385.715199445606 192.22134084195403
428.8422763195667 63.67123483078209 0.4207613507403866 0.3367997029933043 390.1519632333736 195.14960434240515
446.15280627746716 69.56858793441738 0.43546801061685736 0.3442133252339814 394.74706680995223 198.07590608509867
464.2780259448425 75.87458447409477 0.4506887049794844 0.35150975801747597 399.4973996827608 200.99712370244046
483.2864678357302 82.62794089575061 0.46644140061713574 0.35905415462949186 404.39704715862416 203.9015725130736
490.04952463980675 85.05642906372076 0.4719806881952514 0.10637781291999193 409.443966892103 195.23780166694274
598.7302881492717 98.27009292164882 0.8433519369287927 0.13678690972712682 414.635064288593 180.84237637263024
662.5248065416008 107.56570876051133 1.0562311382224128 0.1549953441508185 419.965155467323 166.52866994932072
725.494196072964 117.9026873375852 1.2629611869276767 0.1727770075507863 425.42575827814784 152.3395899167142
788.3284368614542 129.2993565625803 1.4660479238953583 0.18890221162930831 431.0191767573046 138.23732548653965
851.6387803132995 141.73887123591746 1.6677383684328027 0.20412667373661086 436.7425864142945 124.18318620478847
915.7371122518472 155.3189841788003 1.8686659189653498 0.2182996088237401 442.58863755631796 110.20754102005132
980.8860603315738 169.96713596836526 2.0694449905960344 0.23006996218274778 448.5493841174104 96.32843536563044
1048.181476040806 185.81327152514274 2.2755038486698127 0.239849973857158 454.6305491184618 82.51201230821812
1118.0703723660686 202.89393955333054 2.4890032554481563 0.24833608954885933 460.8299726039833 68.70890533722628
1190.6356812987858 221.21127833558393 2.7103303956802347 0.2565568926587687 467.1378280933174 54.91759412190011
1266.2630812877921 240.93963532228608 2.940804039696962 0.2643624468633672 473.54898535308183 41.162412664810034
1345.0780674398109 262.06282805006674 3.1810459491546226 0.2713249675589151 480.071280830431 27.386028190113283
1427.3518720126606 284.6704822150027 3.432487106909434 0.28076937522719536 486.70328412661297 13.584304673583224
1511.9243977609026 308.9360624956742 3.682811110895126 0.30779187034828936 493.4322960810193 1.4511857356519862
1590.5908602232512 334.6761872557026 3.848377146239022 0.32927532475129984 500.25755711425035 0.0
1672.7359754471643 361.9020634481293 4.011460798675222 0.33146054997856367 507.1877539542807 0.0
1759.5997227742168 390.6961928434787 4.18158080048262 0.3315102783360564 514.2221043128914 0.0
1851.3105630455677 421.10161509210326 4.358711776171522 0.3315594315018555 521.3446486630854 0.0
1948.220131590179 453.2353215621538 4.543274558338398 0.3316068928704532 528.5600614898749 0.0
2050.607096616839 487.18997209821805 4.735623907833006 0.3316525150677436 535.8768235754889 0.0
2158.7684569033954 523.06446343755 4.936058098271795 0.33169705637269153 543.2946808831524 0.0
2272.713807271205 560.8623682680219 5.14433789776627 0.33174038922019955 550.7940656725807 0.0
2392.905521758188 600.7374514329643 5.361049392388057 0.33178257633080666 558.3858568647358 0.0
2519.7886823062704 642.8377853598176 5.58671719536252 0.3318236660444507 566.0774961051789 0.0
2653.7138530716243 687.280113443328 5.821674047515108 0.33186366347061025 573.8691457199808 0.0
2794.6133665938974 734.0423865119772 6.06551711123328 0.33190246082360764 581.7373188974098 0.0
2943.1465189082696 783.3438193043918 6.319099182715148 0.33194016112242686 589.6997099959373 0.0
3099.8015095451583 835.3468895978599 6.582943383617374 0.3319768028720076 597.7620710944946 0.0
3264.9898041429337 890.1886322147686 6.857420277740132 0.3320124108992917 605.9248908074412 0.0
3438.5369131542384 947.8115403590256 7.141926453630007 0.33204694727749606 614.160475058444 0.0
3621.3909551549036 1008.5308635499792 7.4376832541682845 0.3320809955446906 622.493868083454 0.0
3814.3052015250773 1072.5973901341474 7.745433783587435 0.332114114156588 630.9286144231583 0.0
4017.5568227296785 1140.103471765868 8.065367233267759 0.3321470733472136 639.4654611461091 0.0
