e[MeV/fm^3], P[MeV/fm^3], rho[fm^-3], v2[1], mu_q[MeV], mu_e[MeV]
71.58195607221194 0.019376260638347076 0.07551183166112621 0.01806185032450322 316.57195128971085 89.92341642585284
74.10016491175249 0.06485977178396946 0.07815115873557246 0.01806185032450326 316.72146406873105 91.024765790619
76.70639143836377 0.11193304521937247 0.08088273688183939 0.018061850324503265 316.876202692721 92.16461006582368
79.40371208999426 0.16065164710631397 0.08370979050524349 0.018061850324503224 317.0363498180116 93.34429474471072
82.19531083378259 0.21107308578268988 0.08663565671212049 0.018061850324503186 317.2020944852288 94.56521234887349
85.08448292446792 0.26325687964638034 0.08966378924900394 0.018061850324503227 317.3736323424404 95.82880407201151
88.0746387941701 0.317264627411876 0.09279776257949199 0.018061850324503234 317.55116587610246 97.13656148114251
91.1693080781302 0.37316008082260077 0.09604127610361388 0.0180618503245032 317.7349046500787 98.49002827727713
94.37214378115249 0.4310092199045644 0.09939815852466523 0.018088487354544512 317.9250655530129 99.89080211763012
97.6869757993967 0.49106090179612444 0.10287237236868205 0.019255301458732603 318.1222990017657 101.33984570908403
101.11986451800226 0.5612123980307122 0.10646801866188291 0.021662464342603646 318.3451487000273 102.80997251328064
104.67528624500615 0.6427510757917515 0.11018934177159138 0.024237271178381786 318.59574432277356 104.30486344182296
108.35791622476958 0.736980624741799 0.11404073441636543 0.026920267095794273 318.8759904930379 105.82396075340817
112.1727714362078 0.844944139362974 0.11802674285124978 0.029903169158792375 319.1863342944128 107.33131489870814
116.12536221854529 0.9697012467608513 0.12215207223425231 0.033128604049492305 319.53184301002517 108.83594926945497
120.22058430169312 1.1120115025052542 0.12642159218040233 0.03642699727296762 319.9131521806471 110.36057643612367
124.4640269233187 1.2739597956119093 0.130840342509936 0.04005797794488111 320.3330553238233 111.91312631407268
128.8618971317408 1.458760515403257 0.13541353919739 0.044167339746025575 320.79588975142224 113.49907969978847
133.4208715816421 1.6702641954106736 0.1401465805286361 0.04845346643322773 321.30651694759945 115.12367962053304
138.14674713038173 1.9093441223752088 0.14504505347311691 0.052773525840877133 321.864973007233 116.79378000164584
143.046301157445 2.1790046101745664 0.1501147402788089 0.057528169039875315 322.47450701812625 118.51374226197309
148.1273960447996 2.4844335534151987 0.15536162529769304 0.06284216502195894 323.1410092423423 120.28727240461446
153.3980665613772 2.830586859448035 0.16079190204979565 0.06832610081857435 323.8695330774141 122.11815106148126
158.86527298295658 3.219172163942335 0.1664119805341341 0.07388078486914754 324.6608118435546 124.01003694966207
164.53733520637863 3.6547355939838426 0.17222849479519628 0.08003547718389081 325.5190968335605 125.96563778643767
170.4244790514288 4.145740845861174 0.17824831075389239 0.08677045275449968 326.4526563846883 127.98699818273994
163.0569549827007 3.5389056791362186 0.17106385995012202 0.016942609011489224 327.46672096984696 116.46525160344623
249.3302460994502 5.710727312466572 0.45769120038015315 0.03340487640879755 328.5630444196908 109.89515589676904
277.58098459488383 6.73058500503173 0.5601242271399093 0.03610021354769197 329.74707517392477 102.83766695681999
308.1921493351771 7.835654589099894 0.6711158126340933 0.049024423497656455 331.0300349266862 95.19050556921601
331.51177233927586 9.208483186936718 0.7590116797187986 0.07110516214064133 332.4166501261103 88.33451777087345
350.9624478437142 10.790023619359662 0.8350722354954857 0.08262519712104041 333.9096258088783 81.76902461161866
371.38414004977864 12.505562725002427 0.9151186171942783 0.11136474957714892 335.51527196244086 74.810322937871
386.8586684670442 14.549686601500092 0.9783252499957094 0.13209603687935034 337.2475539070624 68.65258063476502
403.48843679367536 16.74641309166981 1.0462505289994608 0.15418773304475364 339.10915812779723 62.035136461054705
417.9991662309843 19.263508172038833 1.1066772884834526 0.17636143410143446 341.1031533419793 55.90816927196908
433.12871880084015 21.97747768142883 1.1698472721581459 0.1977202433488232 343.23564238728784 49.477392402799644
447.42970763609475 25.052965300768747 1.230376552993913 0.21975609949907138 345.52172126130665 43.36370262230684
462.3185043340219 28.397752330205694 1.294042949363978 0.23287108089635966 347.9601724040327 37.07600557314666
477.52214077291336 32.065853305305595 1.3602032402631035 0.24510506235488239 350.553435966267 30.79195858181561
493.79967318568316 36.12248576185524 1.4377591404274 0.2555904784135553 353.30588629997703 24.5348469510766
510.7428398032719 40.565406403655096 1.519526912895715 0.27533779435515315 356.23075742095136 18.085272490052112
527.5532689457734 45.41265886847942 1.594467925769995 0.3206402433699309 359.3222217150829 11.522002407899251
542.579601594352 50.66444269510669 1.6361615615197347 0.34937823523192924 362.5812187590644 5.0493229199626475
558.8838514819942 56.35854377349878 1.6808959131543064 0.34909956102423534 366.0093102394057 0.5451766040658255
576.5128778372804 62.51014649812468 1.7288109139265784 0.348801468473819 369.6146067251103 0.0
595.508448351631 69.13284267165997 1.7799366629274767 0.34849504411562093 373.38857293297076 0.0
615.9560340434413 76.25544114278584 1.8344123314836303 0.34818356883804746 377.3304189270836 0.0
637.9433893995306 83.90750975703725 1.8923773037994576 0.34786988766070737 381.43924800134255 0.0
661.5668558274156 92.12155860867263 1.9539878125615717 0.3475420785825467 385.715199445606 0.0
686.9672093596805 100.94474125324999 2.019440186390451 0.3472076776907924 390.1519632333736 0.0
714.20021047525 110.39566767867959 2.0887990998251498 0.3468878935628681 394.74706680995223 0.0
743.3324822676799 120.49657617361638 2.162143030205228 0.34657680038251426 399.4973996827608 0.0
774.4311402678296 131.26970509616984 2.239534459472219 0.3462636213727115 404.39704715862416 0.0
807.6543734906667 142.7682296223315 2.3212017369598197 0.34593575623042727 409.443966892103 0.0
843.208639723848 155.06151410492578 2.407437851533767 0.3456200921314132 414.635064288593 0.0
881.0171472368378 168.123222060095 2.4980636216328076 0.34531692028204986 419.965155467323 0.0
921.2945234636489 182.02511006286414 2.5933434348403512 0.34500493108614805 425.42575827814784 0.0
964.1921908850577 196.81821692072816 2.693496870005064 0.3447072048629518 431.0191767573046 0.0
1009.7585638595236 212.51853602024232 2.798548829721195 0.3444096132647303 436.7425864142945 0.0
1058.266531121047 229.21741479588755 2.9088356103631146 0.34411648739387735 442.58863755631796 0.0
1109.6334576653771 246.88634640390165 3.0241427796628897 0.3438341870510029 448.5493841174104 0.0
1164.2303991552062 265.65047786373725 3.1450216602473886 0.34355093127807423 454.6305491184618 0.0
1222.1602115100166 285.54409884849787 3.2715632534995454 0.3432833031530782 460.8299726039833 0.0
1283.4218345707084 306.5660455944749 3.4036576303333756 0.3430129526486243 467.1378280933174 0.0
1348.449717070719 328.8619683600834 3.5418391479289113 0.34274710232351957 473.54898535308183 0.0
1417.2309188629295 352.42779457387115 3.686093663546906 0.3425016890639716 480.071280830431 0.0
1489.9863787374288 377.3375451896613 3.8366715801415507 0.3422497477729656 486.70328412661297 0.0
1567.0838840888034 403.7138016694681 3.9939221344298343 0.34200184016903146 493.4322960810193 0.0
1648.4797224184522 431.54155548984534 4.157717944643319 0.34177072328089464 500.25755711425035 0.0
1734.519841501616 460.9374489831992 4.3285342096011945 0.34154450705535266 507.1877539542807 0.0
1825.4653353904353 491.9889213246549 4.506647970472893 0.34132118220248664 514.2221043128914 0.0
1921.446845801674 524.7384741363721 4.692027100598627 0.3411007393498027 521.3446486630854 0.0
2022.8289179870394 559.3086064496291 4.88510745936621 0.3408881653696243 528.5600614898749 0.0
2129.900930696405 595.7968295251779 5.086258162750215 0.3406840844844692 535.8768235754889 0.0
2242.9700883071005 634.3059912283496 5.295786803786491 0.34048507691024144 543.2946808831524 0.0
2362.0431471089073 674.8366124413049 5.513439296255363 0.34029169501755296 550.7940656725807 0.0
2487.6000523975113 717.5503003934734 5.73982428292135 0.3401036408461011 558.3858568647358 0.0
2620.102311583714 762.6021859984945 5.975485711299694 0.3399206817726652 566.0774961051789 0.0
2759.912457798547 810.1136009619668 6.220766883668753 0.33974277855879587 573.8691457199808 0.0
2906.956457719787 860.0575444548901 6.475243478354014 0.3395703938887302 581.7373188974098 0.0
3061.918976579464 912.6647291787712 6.739801810763292 0.33940305373614077 589.6997099959373 0.0
3225.305725521085 968.1048696105656 7.014983659024188 0.33924057221294435 597.7620710944946 0.0
3397.542137647041 1026.5203064476443 7.301171463355776 0.33908282512388066 605.9248908074412 0.0
3578.4427536235316 1087.8462271021601 7.59773242430025 0.33892996712116474 614.160475058444 0.0
3768.992154263871 1152.4143938520817 7.905935782124336 0.3387794073086563 622.493868083454 0.0
3969.9698507148564 1220.4859759002798 8.226549420714495 0.3386330892357803 630.9286144231583 0.0
4181.66208616525 1292.1565679143787 8.559768775066598 0.3384875605756168 639.4654611461091 0.0
