e[MeV/fm^3], P[MeV/fm^3], rho[fm^-3], v2[1], mu_q[MeV], mu_e[MeV]
71.58195607221194 0.019376260638347076 0.07551183166112621 0.01806185032450322 316.57195128971085 89.92341642585284
74.10016491175249 0.06485977178396946 0.07815115873557246 0.01806185032450326 316.72146406873105 91.024765790619
76.70639143836377 0.11193304521937247 0.08088273688183939 0.018061850324503265 316.876202692721 92.16461006582368
79.40371208999426 0.16065164710631397 0.08370979050524349 0.018061850324503224 317.0363498180116 93.34429474471072
82.19531083378259 0.21107308578268988 0.08663565671212049 0.018061850324503186 317.2020944852288 94.56521234887349
85.08448292446792 0.26325687964638034 0.08966378924900394 0.018061850324503227 317.3736323424404 95.82880407201151
88.0746387941701 0.317264627411876 0.09279776257949199 0.018061850324503234 317.55116587610246 97.13656148114251
91.1693080781302 0.37316008082260077 0.09604127610361388 0.0180618503245032 317.7349046500787 98.49002827727713
94.37214378115249 0.4310092199045644 0.09939815852466523 0.018088487354544512 317.9250655530129 99.89080211763012
97.6869757993967 0.49106090179612444 0.10287237236868205 0.019255301458732603 318.1222990017657 101.33984570908403
101.11986451800226 0.5612123980307122 0.10646801866188291 0.021662464342603646 318.3451487000273 102.80997251328064
104.67528624500615 0.6427510757917515 0.11018934177159138 0.024237271178381786 318.59574432277356 104.30486344182296
108.35791622476958 0.736980624741799 0.11404073441636543 0.026920267095794273 318.8759904930379 105.82396075340817
112.1727714362078 0.844944139362974 0.11802674285124978 0.029903169158792375 319.1863342944128 107.33131489870814
116.12536221854529 0.9697012467608513 0.12215207223425231 0.033128604049492305 319.53184301002517 108.83594926945497
120.22058430169312 1.1120115025052542 0.12642159218040233 0.03642699727296762 319.9131521806471 110.36057643612367
124.4640269233187 1.2739597956119093 0.130840342509936 0.04005797794488111 320.3330553238233 111.91312631407268
128.8618971317408 1.458760515403257 0.13541353919739 0.044167339746025575 320.79588975142224 113.49907969978847
133.4208715816421 1.6702641954106736 0.1401465805286361 0.04845346643322773 321.30651694759945 115.12367962053304
138.14674713038173 1.9093441223752088 0.14504505347311691 0.052773525840877133 321.864973007233 116.79378000164584
143.046301157445 2.1790046101745664 0.1501147402788089 0.057528169039875315 322.47450701812625 118.51374226197309
148.1273960447996 2.4844335534151987 0.15536162529769304 0.06284216502195894 323.1410092423423 120.28727240461446
153.3980665613772 2.830586859448035 0.16079190204979565 0.06832610081857435 323.8695330774141 122.11815106148126
158.86527298295658 3.219172163942335 0.1664119805341341 0.07388078486914754 324.6608118435546 124.01003694966207
164.53733520637863 3.6547355939838426 0.17222849479519628 0.08003547718389081 325.5190968335605 125.96563778643767
170.4244790514288 4.145740845861174 0.17824831075389239 0.0868529844855449 326.4526563846883 127.98699818273994
176.53631225317216 4.698462512306701 0.18447853431221173 0.09382020158110449 327.46672096984696 130.0757416868159
182.8813754413206 5.316058719226849 0.19092651974116215 0.10090610940848843 328.5630444196908 132.23321948878043
189.47003531795517 6.005327445562022 0.19759987836188778 0.10878861147005087 329.74707517392477 134.4600859855788
196.31596471295904 6.779778757210621 0.2045064875302128 0.11740966184855067 331.0300349266862 136.75533593637135
203.43050851080594 7.646768440999467 0.2116544999352168 0.12608946577877583 332.4166501261103 139.11816799894396
210.8244028704521 8.611548461528256 0.2190523532228215 0.1349022716417198 333.9096258088783 141.54800776113123
218.51074020607123 9.683761637930058 0.2267087799557421 0.144675685399567 335.51527196244086 144.04316211894482
226.5082297443755 10.883905458890382 0.2346328179215674 0.15515575564888284 337.2475539070624 146.5980221258686
234.82991040706085 12.219142432571214 0.24283382080112978 0.165468793415954 339.10915812779723 149.21047258606862
243.4895649756236 13.697245910404929 0.251321469209763 0.17584512352042914 341.1031533419793 151.87844925539375
252.5038440061727 15.330749682934059 0.2601057821244808 0.18722157626269964 343.23564238728784 154.59823272020708
261.8986645589929 17.148496170258692 0.2691971287105613 0.1990941783168373 345.52172126130665 157.35874279741
271.6882403462793 19.154773742642355 0.2786062405615009 0.21042316819891171 347.9601724040327 160.15923345514636
281.89049785111735 21.359861900727388 0.28834422436678714 0.22164620815909453 350.553435966267 162.99688619016126
292.5265475405733 23.778386588672046 0.29842257502243846 0.2337246132981532 353.30588629997703 165.86712739404365
303.63223194734013 26.447522162853414 0.3088531891997931 0.24592594617416275 356.23075742095136 168.75397623493998
315.221644345916 29.365222005850605 0.3196483793885593 0.2571506414649065 359.3222217150829 171.66146423910627
327.3182001354512 32.54397588998893 0.3308208884307057 0.2680601823279971 362.5812187590644 174.58688764206116
339.94834281111105 35.99922256647753 0.34238390456234696 0.27953912812815473 366.0093102394057 177.52639819239948
353.1609909336148 39.77515980981052 0.35435107698138235 0.29073954455728535 369.6146067251103 180.46095093582716
366.9678973380775 43.86090014922628 0.36673653195926065 0.3011005418063286 373.38857293297076 193.61166902291973
381.86515257803165 48.41486206961731 0.37991992429445054 0.1501701713586744 377.3304189270836 186.56361284713137
411.1906216472302 53.11539608849818 0.4809602658660562 0.17040673111399463 381.43924800134255 179.6438351504002
440.7885967778064 58.46135378893415 0.5801655130911402 0.19147781142859543 385.715199445606 172.93930871701278
469.9411237494445 64.35521240421429 0.6753626576190312 0.2114940206444509 390.1519632333736 166.45833395947852
499.09161679576835 70.79205599371677 0.7682240566261296 0.22883181362063443 394.74706680995223 160.13953924761145
528.5689827091237 77.77640254870164 0.8599273419096913 0.243873945402175 399.4973996827608 153.94142673549973
558.6186052336546 85.31715135119934 0.9513081853899663 0.25713405956811153 404.39704715862416 147.83802382231607
589.4854178575647 93.45034859176808 1.0430747007293772 0.26902762516727075 409.443966892103 141.81284383023328
621.4254346599356 102.22600902244506 1.1359044898971715 0.2787640669743767 414.635064288593 135.85375540462178
654.6025858232705 111.6127882705419 1.2305782728012482 0.28659624123749916 419.965155467323 129.91089748832476
689.21883032529 121.66612523011158 1.327529481716685 0.29340543802962515 425.42575827814784 123.98574054855645
725.487376680923 132.42086399960667 1.4273888464127977 0.2988602294964211 431.0191767573046 118.05042831975192
763.5367139590473 143.88528535195593 1.5305754926055055 0.3034486907687488 436.7425864142945 112.0807093099112
803.5904844727658 156.12997363326923 1.6373632978998502 0.30726547619482614 442.58863755631796 106.07831792490434
845.657870768113 169.12471887934475 1.7478419871826347 0.31014229651135694 448.5493841174104 100.04718100249667
890.1115422447328 182.9698951729506 1.8635888298436518 0.31243165692935304 454.6305491184618 93.95177620653148
937.0823338270574 197.69368781452303 1.9851001829557076 0.3142754320211083 460.8299726039833 87.77173250258625
986.596439761464 213.29695160171786 2.112475192632116 0.3159059776492701 467.1378280933174 81.50468496762646
1039.0087137606686 229.89748400377613 2.246554313360515 0.3173462418245445 473.54898535308183 75.14582832726059
1094.337806106965 247.49196507997067 2.387468664546887 0.31856990541027863 480.071280830431 68.676717428725
1152.768630778927 266.1416241202016 2.535686335840494 0.31976528483502387 486.70328412661297 62.09126522516001
1214.5948245563627 285.95010970331145 2.6919156018425325 0.3209180754100982 493.4322960810193 55.393181719111766
1279.7904268369273 306.9088709858707 2.8561688902435143 0.32200234062256694 500.25755711425035 48.57805944504107
1348.6303008047064 329.11379716990535 3.029196097986725 0.32309466457854974 507.1877539542807 41.63195575647235
1421.3191727104927 352.6402918777241 3.2116516922556255 0.3242075069284249 514.2221043128914 34.55066894826768
1497.9611766679222 377.53243297103415 3.404227462920319 0.3252559233798462 521.3446486630854 27.344726739135815
1578.8955077406006 403.8970878543658 3.609701411124937 0.3253569109825576 528.5600614898749 20.00210478887585
1664.858868035667 431.82963573923826 3.844596679056095 0.32682685833382585 535.8768235754889 12.49245405235827
1754.9654639700877 461.4575288339739 4.079446382849593 0.3336634941482073 543.2946808831524 4.755948588749668
1847.1783724610516 492.68368624109473 4.248006516306371 0.3385612239314595 550.7940656725807 0.0
1944.4193580399722 525.5985493844815 4.423338900233284 0.33841941721637436 558.3858568647358 0.0
2047.0465277710045 560.322196583009 4.605868452261052 0.3382812544961946 566.0774961051789 0.0
2155.341243401415 596.9486976315537 4.795861737766535 0.3381469477335006 573.8691457199808 0.0
2269.2467022940536 635.4577660715056 4.992990681233172 0.3380168429240231 581.7373188974098 0.0
2389.2938111183767 676.0278191410476 5.197942445761998 0.33789057909636977 589.6997099959373 0.0
2515.874915804419 718.7903034798976 5.411137377913078 0.33776801303041015 597.7620710944946 0.0
2649.320207722415 763.8555901047488 5.632872414233422 0.3376490482522163 605.9248908074412 0.0
2789.4865608745135 811.174229074621 5.862657848704002 0.3375337987533551 614.160475058444 0.0
2937.137447423671 861.0027858049425 6.101477744774182 0.3374203094508026 622.493868083454 0.0
3092.8777614102864 913.5436644674772 6.349928153058703 0.3373100428675597 630.9286144231583 0.0
3256.9297187516136 968.8710421818555 6.608160784913779 0.3372003818909075 639.4654611461091 0.0
