e[MeV/fm^3], P[MeV/fm^3], rho[fm^-3], v2[1], mu_q[MeV], mu_e[MeV]
71.58195607221194 0.019376260638347076 0.07551183166112621 0.01806185032450322 316.57195128971085 89.92341642585284
74.10016491175249 0.06485977178396946 0.07815115873557246 0.01806185032450326 316.72146406873105 91.024765790619
76.70639143836377 0.11193304521937247 0.08088273688183939 0.018061850324503265 316.876202692721 92.16461006582368
79.40371208999426 0.16065164710631397 0.08370979050524349 0.018061850324503224 317.0363498180116 93.34429474471072
82.19531083378259 0.21107308578268988 0.08663565671212049 0.018061850324503186 317.2020944852288 94.56521234887349
85.08448292446792 0.26325687964638034 0.08966378924900394 0.018061850324503227 317.3736323424404 95.82880407201151
88.0746387941701 0.317264627411876 0.09279776257949199 0.018061850324503234 317.55116587610246 97.13656148114251
91.1693080781302 0.37316008082260077 0.09604127610361388 0.0180618503245032 317.7349046500787 98.49002827727713
94.37214378115249 0.4310092199045644 0.09939815852466523 0.018088487354544512 317.9250655530129 99.89080211763012
97.6869757993967 0.49106090179612444 0.10287237236868205 0.019255301458732603 318.1222990017657 101.33984570908403
101.11986451800226 0.5612123980307122 0.10646801866188291 0.021662464342603646 318.3451487000273 102.80997251328064
104.67528624500615 0.6427510757917515 0.11018934177159138 0.024237271178381786 318.59574432277356 104.30486344182296
108.35791622476958 0.736980624741799 0.11404073441636543 0.026920267095794273 318.8759904930379 105.82396075340817
112.1727714362078 0.844944139362974 0.11802674285124978 0.029903169158792375 319.1863342944128 107.33131489870814
116.12536221854529 0.9697012467608513 0.12215207223425231 0.033128604049492305 319.53184301002517 108.83594926945497
120.22058430169312 1.1120115025052542 0.12642159218040233 0.03642699727296762 319.9131521806471 110.36057643612367
124.4640269233187 1.2739597956119093 0.130840342509936 0.04005797794488111 320.3330553238233 111.91312631407268
128.8618971317408 1.458760515403257 0.13541353919739 0.044167339746025575 320.79588975142224 113.49907969978847
133.4208715816421 1.6702641954106736 0.1401465805286361 0.04845346643322773 321.30651694759945 115.12367962053304
138.14674713038173 1.9093441223752088 0.14504505347311691 0.052773525840877133 321.864973007233 116.79378000164584
143.046301157445 2.1790046101745664 0.1501147402788089 0.057528169039875315 322.47450701812625 118.51374226197309
148.1273960447996 2.4844335534151987 0.15536162529769304 0.06284216502195894 323.1410092423423 120.28727240461446
153.3980665613772 2.830586859448035 0.16079190204979565 0.06832610081857435 323.8695330774141 122.11815106148126
158.86527298295658 3.219172163942335 0.1664119805341341 0.07388078486914754 324.6608118435546 124.01003694966207
164.53733520637863 3.6547355939838426 0.17222849479519628 0.08003547718389081 325.5190968335605 125.96563778643767
170.4244790514288 4.145740845861174 0.17824831075389239 0.0868529844855449 326.4526563846883 127.98699818273994
176.53631225317216 4.698462512306701 0.18447853431221173 0.09382020158110449 327.46672096984696 130.0757416868159
182.8813754413206 5.316058719226849 0.19092651974116215 0.10090610940848843 328.5630444196908 132.23321948878043
189.47003531795517 6.005327445562022 0.19759987836188778 0.10878861147005087 329.74707517392477 134.4600859855788
196.31596471295904 6.779778757210621 0.2045064875302128 0.11740966184855067 331.0300349266862 136.75533593637135
203.43050851080594 7.646768440999467 0.2116544999352168 0.12608946577877583 332.4166501261103 139.11816799894396
210.8244028704521 8.611548461528256 0.2190523532228215 0.1349022716417198 333.9096258088783 141.54800776113123
218.51074020607123 9.683761637930058 0.2267087799557421 0.144675685399567 335.51527196244086 144.04316211894482
226.5082297443755 10.883905458890382 0.2346328179215674 0.15515575564888284 337.2475539070624 146.5980221258686
234.82991040706085 12.219142432571214 0.24283382080112978 0.165468793415954 339.10915812779723 149.21047258606862
243.4895649756236 13.697245910404929 0.251321469209763 0.17584512352042914 341.1031533419793 151.87844925539375
252.5038440061727 15.330749682934059 0.2601057821244808 0.18722157626269964 343.23564238728784 154.59823272020708
261.8986645589929 17.148496170258692 0.2691971287105613 0.1990941783168373 345.52172126130665 157.35874279741
271.6882403462793 19.154773742642355 0.2786062405615009 0.21042316819891171 347.9601724040327 160.15923345514636
281.89049785111735 21.359861900727388 0.28834422436678714 0.22164620815909453 350.553435966267 162.99688619016126
292.5265475405733 23.778386588672046 0.29842257502243846 0.2337246132981532 353.30588629997703 165.86712739404365
303.63223194734013 26.447522162853414 0.3088531891997931 0.24592594617416275 356.23075742095136 168.75397623493998
315.221644345916 29.365222005850605 0.3196483793885593 0.2571506414649065 359.3222217150829 171.66146423910627
327.3182001354512 32.54397588998893 0.3308208884307057 0.2680601823279971 362.5812187590644 174.58688764206116
339.94834281111105 35.99922256647753 0.34238390456234696 0.27953912812815473 366.0093102394057 177.52639819239948
353.1609909336148 39.77515980981052 0.35435107698138235 0.29073954455728535 369.6146067251103 180.46095093582716
366.9678973380775 43.86090014922628 0.36673653195926065 0.30065088098701787 373.38857293297076 183.40165313600272
381.39961501803265 48.271172544303795 0.37955488951589167 0.31015245142971803 377.3304189270836 186.34635558829183
396.4906533657989 53.02360113792524 0.3928212806773882 0.31982610479761786 381.43924800134255 189.29179087628498
412.3008527606959 58.16142376409454 0.40655136533700936 0.3289384922226952 385.715199445606 276.2922111332341
428.8422763195667 63.67123483078209 0.4207613507403866 0.3367997029933043 390.1519632333736 253.91745123468917
446.15280627746716 69.56858793441738 0.43546801061685736 0.3445605000712746 394.74706680995223 230.74417806690013
468.52933268764286 77.3798482419335 0.45422697829715325 0.04989997076861519 399.4973996827608 206.78807795620742
567.7843469622319 83.0985377745516 0.7929754631188444 0.06533228373083716 404.39704715862416 182.53848225452847
685.7312313242694 91.88576462007883 1.1923373481127801 0.08670474561673724 409.443966892103 158.52186974204378
793.3399581442935 102.41402065716854 1.5552031323467541 0.10905956946390727 414.635064288593 134.8599791151085
893.9470361298949 114.44166806539658 1.8933493826775172 0.13225891237432363 419.965155467323 111.45696643508148
988.1085585720575 128.01532882976568 2.2081020168293137 0.15422676024719906 425.42575827814784 88.55627664395924
1080.2823234822974 143.1399298638417 2.5181086441616714 0.17281155711809748 431.0191767573046 66.05563969769433
1172.0634559393295 159.79802530467225 2.8296147245608942 0.18905867109622387 436.7425864142945 43.86356749809805
1265.361686401053 178.15391830546386 3.1535639584334687 0.20872675653611417 442.58863755631796 22.043727472045326
1356.2702957510323 198.19038772733302 3.4654169859267903 0.2874532403268002 448.5493841174104 2.2160243960769126
1420.5185827518392 219.70331357038697 3.6076627387355638 0.33481919786154535 454.6305491184618 0.0
1488.712744683631 242.5344893101427 3.756623980288566 0.33477653864031076 460.8299726039833 0.0
1560.8528356861807 266.6837658583326 3.9121731379939244 0.3347334386307852 467.1378280933174 0.0
1637.455623067456 292.32350346722416 4.074949068603282 0.33469125509451847 473.54898535308183 0.0
1718.5053400131624 319.4485066192094 4.244932449651452 0.33465250228564436 480.071280830431 0.0
1804.264875208471 348.1464562017754 4.422422348880379 0.3346129042580577 486.70328412661297 0.0
1895.172802697107 378.5635088551373 4.607839234655198 0.33457411692024874 493.4322960810193 0.0
1991.1776855385704 410.68245870495986 4.801031438988607 0.33453812372043545 500.25755711425035 0.0
2092.6900421596893 444.6403600432488 5.00256293465396 0.3345030431238323 507.1877539542807 0.0
2200.0206013706147 480.5408480523203 5.212764353963068 0.3344685584430922 514.2221043128914 0.0
2313.326739603729 518.4361932459273 5.431602395446667 0.33443466385806797 521.3446486630854 0.0
2433.0416761096626 558.4709582458287 5.659595377499137 0.33440211530446096 528.5600614898749 0.0
2559.50890044046 600.7598155112246 5.897180829029957 0.33437099389069 535.8768235754889 0.0
2693.0940734758665 645.4247185695799 6.144725651527181 0.3343407641255598 543.2946808831524 0.0
2833.8078950453687 692.4689390213953 6.4019329787900645 0.3343115009842581 550.7940656725807 0.0
2982.2202243817687 742.0826944224926 6.669525234545139 0.3342831503598225 558.3858568647358 0.0
3138.8794372092807 794.4489851315047 6.948148769264044 0.3342556686301883 566.0774961051789 0.0
3304.2171155114215 849.7117459174173 7.23821293908008 0.334229041702784 573.8691457199808 0.0
3478.1485271424467 907.84234321547 7.539219093965363 0.33420333057319374 581.7373188974098 0.0
3661.486341012484 969.1120732384436 7.852218656932665 0.33417845651142963 589.6997099959373 0.0
3854.8318791622014 1033.7215596301694 8.177855921960438 0.3341543844767747 597.7620710944946 0.0
4058.691670879722 1101.8397269427933 8.516586816922818 0.3341310890847695 605.9248908074412 0.0
4272.84913702059 1173.3938858115152 8.867665392366966 0.334108586554279 614.160475058444 0.0
4498.472951403163 1248.7741749257268 9.232597421487815 0.33408649139392965 622.493868083454 0.0
4736.490655402646 1328.2899807139497 9.612297534469553 0.33406508316541617 630.9286144231583 0.0
4987.2433359410215 1412.0550302063614 10.00699856472612 0.3340438224906652 639.4654611461091 0.0
