e[MeV/fm^3], P[MeV/fm^3], rho[fm^-3], v2[1], mu_q[MeV], mu_e[MeV]
71.58195607221194 0.019376260638347076 0.07551183166112621 0.01806185032450322 316.57195128971085 89.92341642585284
74.10016491175249 0.06485977178396946 0.07815115873557246 0.01806185032450326 316.72146406873105 91.024765790619
76.70639143836377 0.11193304521937247 0.08088273688183939 0.018061850324503265 316.876202692721 92.16461006582368
79.40371208999426 0.16065164710631397 0.08370979050524349 0.018061850324503224 317.0363498180116 93.34429474471072
82.19531083378259 0.21107308578268988 0.08663565671212049 0.018061850324503186 317.2020944852288 94.56521234887349
85.08448292446792 0.26325687964638034 0.08966378924900394 0.018061850324503227 317.3736323424404 95.82880407201151
88.0746387941701 0.317264627411876 0.09279776257949199 0.018061850324503234 317.55116587610246 97.13656148114251
91.1693080781302 0.37316008082260077 0.09604127610361388 0.0180618503245032 317.7349046500787 98.49002827727713
94.37214378115249 0.4310092199045644 0.09939815852466523 0.018088487354544512 317.9250655530129 99.89080211763012
97.6869757993967 0.49106090179612444 0.10287237236868205 0.019255301458732603 318.1222990017657 101.33984570908403
101.11986451800226 0.5612123980307122 0.10646801866188291 0.021662464342603646 318.3451487000273 102.80997251328064
104.67528624500615 0.6427510757917515 0.11018934177159138 0.024237271178381786 318.59574432277356 104.30486344182296
108.35791622476958 0.736980624741799 0.11404073441636543 0.026920267095794273 318.8759904930379 105.82396075340817
112.1727714362078 0.844944139362974 0.11802674285124978 0.029903169158792375 319.1863342944128 107.33131489870814
116.12536221854529 0.9697012467608513 0.12215207223425231 0.033128604049492305 319.53184301002517 108.83594926945497
120.22058430169312 1.1120115025052542 0.12642159218040233 0.03642699727296762 319.9131521806471 110.36057643612367
124.4640269233187 1.2739597956119093 0.130840342509936 0.04005797794488111 320.3330553238233 111.91312631407268
128.8618971317408 1.458760515403257 0.13541353919739 0.044167339746025575 320.79588975142224 113.49907969978847
133.4208715816421 1.6702641954106736 0.1401465805286361 0.04845346643322773 321.30651694759945 115.12367962053304
138.14674713038173 1.9093441223752088 0.14504505347311691 0.052773525840877133 321.864973007233 116.79378000164584
143.046301157445 2.1790046101745664 0.1501147402788089 0.057528169039875315 322.47450701812625 118.51374226197309
148.1273960447996 2.4844335534151987 0.15536162529769304 0.06284216502195894 323.1410092423423 120.28727240461446
153.3980665613772 2.830586859448035 0.16079190204979565 0.06832610081857435 323.8695330774141 122.11815106148126
158.86527298295658 3.219172163942335 0.1664119805341341 0.07388078486914754 324.6608118435546 124.01003694966207
164.53733520637863 3.6547355939838426 0.17222849479519628 0.08003547718389081 325.5190968335605 125.96563778643767
170.4244790514288 4.145740845861174 0.17824831075389239 0.0868529844855449 326.4526563846883 127.98699818273994
176.53631225317216 4.698462512306701 0.18447853431221173 0.09382020158110449 327.46672096984696 130.0757416868159
182.8813754413206 5.316058719226849 0.19092651974116215 0.10090610940848843 328.5630444196908 132.23321948878043
189.47003531795517 6.005327445562022 0.19759987836188778 0.10878861147005087 329.74707517392477 134.4600859855788
196.31596471295904 6.779778757210621 0.2045064875302128 0.11740966184855067 331.0300349266862 136.75533593637135
203.43050851080594 7.646768440999467 0.2116544999352168 0.12608946577877583 332.4166501261103 139.11816799894396
210.8244028704521 8.611548461528256 0.2190523532228215 0.1349022716417198 333.9096258088783 141.54800776113123
218.51074020607123 9.683761637930058 0.2267087799557421 0.144675685399567 335.51527196244086 144.04316211894482
226.5082297443755 10.883905458890382 0.2346328179215674 0.15515575564888284 337.2475539070624 146.5980221258686
234.82991040706085 12.219142432571214 0.24283382080112978 0.165468793415954 339.10915812779723 149.21047258606862
243.4895649756236 13.697245910404929 0.251321469209763 0.17584512352042914 341.1031533419793 151.87844925539375
252.5038440061727 15.330749682934059 0.2601057821244808 0.18722157626269964 343.23564238728784 154.59823272020708
261.8986645589929 17.148496170258692 0.2691971287105613 0.19974621670466464 345.52172126130665 172.07308598380286
280.84951367210334 21.130727152671902 0.2873207867893706 0.09486011587131664 347.9601724040327 167.18437139686225
283.31705508351683 21.371040585325943 0.29655464732590286 0.0999195393291857 350.553435966267 161.98528203134657
303.93630641937057 23.867172054235255 0.3684448527494002 0.13058361677134722 353.30588629997703 157.2841553525578
323.88961175301137 26.65666995370121 0.4367647766333209 0.1518434232472352 356.23075742095136 152.79716720199679
342.8826598419773 29.758349094694363 0.5005595315377207 0.1761537668591946 359.3222217150829 148.60049332239717
361.0836462567811 33.18861120003324 0.56017395042239 0.20246685034104062 362.5812187590644 144.70536611373592
378.65256407779685 36.983176923422874 0.6157992295950844 0.2265938198709725 366.0093102394057 141.14921165507167
396.15789580621157 41.13487226739264 0.6695327897567188 0.2468880245210785 369.6146067251103 137.81306048204192
413.7467792795637 45.64914660069849 0.721802898074787 0.2652705749998985 373.38857293297076 134.68912469018707
431.6009468249309 50.541476429518575 0.7731571915736234 0.28142923879027437 377.3304189270836 131.75813927393176
449.8911401617262 55.827770124679866 0.8241203377633188 0.2952707963300141 381.43924800134255 128.99760120316108
468.7773116993446 61.526139248475076 0.8751830754008659 0.3073035238673114 385.715199445606 126.38344529515724
488.3880784794255 67.66625912447827 0.9266221763983792 0.31739225003800775 390.1519632333736 123.91268242738973
508.8599002971126 74.25559723851438 0.9789293845161542 0.325263268194111 394.74706680995223 121.54848825208555
530.2999868254343 81.30538292080631 1.0324580084826283 0.3315418850698939 399.4973996827608 119.26498494379825
552.7938677598905 88.8274396833903 1.0874643178093717 0.33668321040216953 404.39704715862416 117.04386591999497
576.4688055401125 96.85517271784643 1.1442403651816027 0.34098332439172174 409.443966892103 114.87136048010528
601.4767585512711 105.43270673425062 1.2031045406751786 0.3442771877901851 414.635064288593 112.73453448666157
627.8228917844914 114.53874408389686 1.264219346724032 0.3467138739193967 419.965155467323 110.60578798562413
655.6508401252465 124.2189122609858 1.327835979731392 0.34864990196290213 425.42575827814784 108.47758982957531
685.0835556746466 134.5052846018154 1.3942279248778924 0.34999891021581964 431.0191767573046 106.33212643227715
716.1761266379826 145.40444147176922 1.4634661563899012 0.3509211216463588 436.7425864142945 104.16361259068937
749.1119783784034 156.97566121354475 1.5360523485553732 0.3515346487370308 442.58863755631796 101.95683423042198
783.8606474375787 169.19867316665298 1.612041039325793 0.3518605042583429 448.5493841174104 99.69774817728887
820.6728325698422 182.15554855233546 1.6919311625708922 0.35197210221305575 454.6305491184618 97.37231840581339
859.63089319817 195.8676842687166 1.7759118590943446 0.3519015216274979 460.8299726039833 94.9712046201394
900.7448417990914 210.33269937286158 1.8640135587976165 0.35167906338585553 467.1378280933174 92.4909823612163
944.3056898169641 225.64528972511562 1.956786042519134 0.35134195478414254 473.54898535308183 89.9201017900113
990.3201904366797 241.8033697457944 2.054284882710332 0.3509389923506361 480.071280830431 87.25345609541036
1038.9410706513827 258.8553935659633 2.1568066262748506 0.35045268402119323 486.70328412661297 84.48489251770481
1090.4162726485547 276.8807748170255 2.264803019878249 0.34991923689323023 493.4322960810193 81.60800778332539
1144.7259728900794 295.8700700630506 2.3782480300018816 0.34938465654576056 500.25755711425035 78.62363214082177
1202.1052178080693 315.901514189088 2.4976020054179595 0.3488406298120448 507.1877539542807 75.52360184120212
1262.7316214770135 337.0334620404128 2.6231988604241727 0.34829457141333053 514.2221043128914 72.30409496016583
1326.6947728430341 359.29355880943274 2.755178878680979 0.3477586325933024 521.3446486630854 68.9677919588643
1394.239388443428 382.7645400342811 2.894005891615106 0.3472561011183366 528.5600614898749 65.50952302892246
1465.5591416119112 407.51325391427287 3.040053437255406 0.34679773690376914 535.8768235754889 61.92534438830668
1540.8575291984391 433.60963797686304 3.1936970679269403 0.34638349975189886 543.2946808831524 58.21346022388991
1620.1363507842334 461.05470058532245 3.354902406314692 0.3460220590588685 550.7940656725807 54.38249522942009
1703.7106154802575 489.95896897295063 3.524276758943022 0.3457196260464239 558.3858568647358 50.42628118085421
1791.880752014752 520.4288671291752 3.7024025054519893 0.34548222638329307 566.0774961051789 46.34038685008425
1884.8786886078237 552.5483412998752 3.889740023073641 0.3453161839571237 573.8691457199808 42.12436771997167
1982.6430869122992 586.3015808185171 4.086200844313169 0.345228842265735 581.7373188974098 37.79115460325721
2085.613406142714 621.8475204242295 4.2927948400045075 0.34522979266315135 589.6997099959373 33.33141727552453
2194.104230344646 659.3045408277136 4.510500778893367 0.3453387769616234 597.7620710944946 28.741930827237795
2308.3661264872876 698.7736628351226 4.74078477042787 0.3456092904104495 605.9248908074412 24.021753858946152
2428.217283754444 740.2182768732212 4.986263126195216 0.3462468199277473 614.160475058444 19.184549504620456
2554.1381634768004 783.8770018570228 5.2600050575350314 0.34756128946685205 622.493868083454 14.205429831822375
2686.417309125135 829.9696372492442 5.573243897008411 0.3471400631122794 630.9286144231583 9.039236120697995
2826.798406016218 878.5064236882572 5.794229852618956 0.34436025301177864 639.4654611461091 3.7666250302687634
