e[MeV/fm^3], P[MeV/fm^3], rho[fm^-3], v2[1], mu_q[MeV], mu_e[MeV]
71.58195607221194 0.019376260638347076 0.07551183166112621 0.01806185032450322 316.57195128971085 89.92341642585284
74.10016491175249 0.06485977178396946 0.07815115873557246 0.01806185032450326 316.72146406873105 91.024765790619
76.70639143836377 0.11193304521937247 0.08088273688183939 0.018061850324503265 316.876202692721 92.16461006582368
79.40371208999426 0.16065164710631397 0.08370979050524349 0.018061850324503224 317.0363498180116 93.34429474471072
82.19531083378259 0.21107308578268988 0.08663565671212049 0.018061850324503186 317.2020944852288 94.56521234887349
85.08448292446792 0.26325687964638034 0.08966378924900394 0.018061850324503227 317.3736323424404 95.82880407201151
88.0746387941701 0.317264627411876 0.09279776257949199 0.018061850324503234 317.55116587610246 97.13656148114251
91.1693080781302 0.37316008082260077 0.09604127610361388 0.0180618503245032 317.7349046500787 98.49002827727713
94.37214378115249 0.4310092199045644 0.09939815852466523 0.018088487354544512 317.9250655530129 99.89080211763012
97.6869757993967 0.49106090179612444 0.10287237236868205 0.019255301458732603 318.1222990017657 101.33984570908403
101.11986451800226 0.5612123980307122 0.10646801866188291 0.021662464342603646 318.3451487000273 102.80997251328064
104.67528624500615 0.6427510757917515 0.11018934177159138 0.024237271178381786 318.59574432277356 104.30486344182296
108.35791622476958 0.736980624741799 0.11404073441636543 0.026920267095794273 318.8759904930379 105.82396075340817
112.1727714362078 0.844944139362974 0.11802674285124978 0.029903169158792375 319.1863342944128 107.33131489870814
116.12536221854529 0.9697012467608513 0.12215207223425231 0.033128604049492305 319.53184301002517 108.83594926945497
120.22058430169312 1.1120115025052542 0.12642159218040233 0.03642699727296762 319.9131521806471 110.36057643612367
124.4640269233187 1.2739597956119093 0.130840342509936 0.04005797794488111 320.3330553238233 111.91312631407268
128.8618971317408 1.458760515403257 0.13541353919739 0.044167339746025575 320.79588975142224 113.49907969978847
133.4208715816421 1.6702641954106736 0.1401465805286361 0.04845346643322773 321.30651694759945 115.12367962053304
138.14674713038173 1.9093441223752088 0.14504505347311691 0.052773525840877133 321.864973007233 116.79378000164584
143.046301157445 2.1790046101745664 0.1501147402788089 0.057528169039875315 322.47450701812625 118.51374226197309
148.1273960447996 2.4844335534151987 0.15536162529769304 0.06284216502195894 323.1410092423423 120.28727240461446
153.3980665613772 2.830586859448035 0.16079190204979565 0.06832610081857435 323.8695330774141 122.11815106148126
158.86527298295658 3.219172163942335 0.1664119805341341 0.07388078486914754 324.6608118435546 124.01003694966207
164.53733520637863 3.6547355939838426 0.17222849479519628 0.08003547718389081 325.5190968335605 125.96563778643767
170.4244790514288 4.145740845861174 0.17824831075389239 0.0868529844855449 326.4526563846883 127.98699818273994
176.53631225317216 4.698462512306701 0.18447853431221173 0.09382020158110449 327.46672096984696 130.0757416868159
182.8813754413206 5.316058719226849 0.19092651974116215 0.10090610940848843 328.5630444196908 132.23321948878043
189.47003531795517 6.005327445562022 0.19759987836188778 0.10878861147005087 329.74707517392477 134.4600859855788
196.31596471295904 6.779778757210621 0.2045064875302128 0.11740966184855067 331.0300349266862 136.75533593637135
203.43050851080594 7.646768440999467 0.2116544999352168 0.12608946577877583 332.4166501261103 139.11816799894396
210.8244028704521 8.611548461528256 0.2190523532228215 0.1349022716417198 333.9096258088783 141.54800776113123
218.51074020607123 9.683761637930058 0.2267087799557421 0.144675685399567 335.51527196244086 144.04316211894482
226.5082297443755 10.883905458890382 0.2346328179215674 0.15515575564888284 337.2475539070624 146.5980221258686
234.82991040706085 12.219142432571214 0.24283382080112978 0.165468793415954 339.10915812779723 149.21047258606862
243.4895649756236 13.697245910404929 0.251321469209763 0.17584512352042914 341.1031533419793 151.87844925539375
252.5038440061727 15.330749682934059 0.2601057821244808 0.18722157626269964 343.23564238728784 154.59823272020708
261.8986645589929 17.148496170258692 0.2691971287105613 0.1990941783168373 345.52172126130665 157.35874279741
271.6882403462793 19.154773742642355 0.2786062405615009 0.21042316819891171 347.9601724040327 160.15923345514636
281.89049785111735 21.359861900727388 0.28834422436678714 0.22164620815909453 350.553435966267 162.99688619016126
292.5265475405733 23.778386588672046 0.29842257502243846 0.2337246132981532 353.30588629997703 165.86712739404365
303.63223194734013 26.447522162853414 0.3088531891997931 0.24592594617416275 356.23075742095136 168.75397623493998
315.221644345916 29.365222005850605 0.3196483793885593 0.2571506414649065 359.3222217150829 171.66146423910627
327.3182001354512 32.54397588998893 0.3308208884307057 0.2680601823279971 362.5812187590644 174.58688764206116
339.94834281111105 35.99922256647753 0.34238390456234696 0.27953912812815473 366.0093102394057 177.52639819239948
353.1609909336148 39.77515980981052 0.35435107698138235 0.29073954455728535 369.6146067251103 180.46095093582716
366.9678973380775 43.86090014922628 0.36673653195926065 0.30065088098701787 373.38857293297076 183.40165313600272
381.39961501803265 48.271172544303795 0.37955488951589167 0.31015245142971803 377.3304189270836 186.34635558829183
396.4906533657989 53.02360113792524 0.3928212806773882 0.31982610479761786 381.43924800134255 189.29179087628498
412.3008527606959 58.16142376409454 0.40655136533700936 0.3301116344857489 385.715199445606 192.22134084195403
421.71908422819337 61.27235180861348 0.414544908374295 0.23980787623952438 390.1519632333736 192.3402888622111
455.32986016828005 69.65008215403488 0.5079937598424693 0.25870666923572583 394.74706680995223 188.9944479361373
479.62786699935725 76.10212280237371 0.5727529420972929 0.27080898578488855 399.4973996827608 185.71096748299288
504.73868437381554 83.0391479066764 0.6380313412325888 0.2808783177646319 404.39704715862416 182.46449067580636
530.8343625560476 90.49419946662417 0.7043100956395498 0.2897126720286176 409.443966892103 179.23363142408016
558.1132014725573 98.51217725551317 0.7720934697476778 0.29675848517756 414.635064288593 175.99738169496348
586.6587216581541 107.06789233247993 0.8418493013386679 0.3022053531069333 419.965155467323 172.72401302080527
616.6512127996181 116.21004701807125 0.9139706221582528 0.3067210718323927 425.42575827814784 169.40005920972712
648.2661858461951 125.970552934032 0.9889484832543518 0.3101020155593126 431.0191767573046 166.00195242796062
681.6068288486554 136.35777728986668 1.0671208053080299 0.31266245030062345 436.7425864142945 162.51195839692696
716.9015927942484 147.43474897579517 1.1489719161083571 0.31454941636682365 442.58863755631796 158.9148376229671
754.1545608456798 159.18047230508427 1.2346153677699958 0.3158106759444257 448.5493841174104 155.2025527221017
793.669232689972 171.68118654192966 1.3247049831815858 0.31664602669894726 454.6305491184618 151.3538694550156
835.5668829278617 184.96078321988116 1.4195446742017575 0.3170918896059369 460.8299726039833 147.3585716625697
879.883607322744 199.01975559664317 1.519235289247467 0.3172582772961443 467.1378280933174 143.21529108336142
926.9779252746198 213.96180619447742 1.6245022115266603 0.31720915053434506 473.54898535308183 138.90726148360562
976.8712981175186 229.78473443156136 1.7354435084064785 0.3170087485546089 480.071280830431 134.43096524209105
1029.756305407481 246.542674625726 1.8524546343863089 0.3166916113665277 486.70328412661297 129.77902630119527
1085.9464620724473 264.32667327748015 1.9761407836265612 0.31630637039919285 493.4322960810193 124.94389978844244
1145.4292550718874 283.1294754534485 2.1064807957856813 0.31591147826516686 500.25755711425035 119.93019254505144
1208.4840445414845 303.0362788249215 2.2440280635914225 0.3155241299790359 507.1877539542807 114.72684678965075
1275.326132119474 324.11365214187305 2.389153736234518 0.31517756241582573 514.2221043128914 109.33002224146009
1346.0625790823108 346.39671716545877 2.5417334995595504 0.31482901297843746 521.3446486630854 103.75448611462204
1421.0019602636698 369.9750166664557 2.702715239661526 0.3144670564815564 528.5600614898749 98.00066790264377
1500.3959073454132 394.9279548553807 2.873073383775875 0.3141749262482758 535.8768235754889 92.05018927377702
1584.4887049587255 421.3373130445875 3.05332757393527 0.3139855818130477 543.2946808831524 85.90196044867126
1673.29630894912 449.21556184099603 3.2435044390362937 0.31391141986840543 550.7940656725807 79.57223462630576
1767.1822134156732 478.6868296045513 3.4443761389097967 0.3139622417574426 558.3858568647358 73.0526728307432
1866.4924716488679 509.8724995833612 3.6566777347982424 0.31414673054559783 566.0774961051789 66.33782889885515
1971.4939793826547 542.8721557680176 3.880976513998908 0.314472219064331 573.8691457199808 59.42883835929575
2082.118744944883 577.6832158545624 4.117127913184153 0.3149432098266858 581.7373188974098 52.3487138829725
2198.86221540668 614.4835866991243 4.366194964537641 0.31556480103231843 589.6997099959373 45.08418521659395
2322.0788804129375 653.4107196343524 4.628946303137095 0.316340494665726 597.7620710944946 37.63253695361846
2452.055300799072 694.584594313251 4.906022177703547 0.31727104764873904 605.9248908074412 29.996024299558893
2588.610163069689 737.9800088544102 5.197124787018839 0.3183410964714426 614.160475058444 22.20383533589197
2732.4505005559877 783.8541927625573 5.504247011054163 0.3191880930379294 622.493868083454 14.235125486857632
2884.5026553485773 832.4298247357998 5.840409461066913 0.32209349330888193 630.9286144231583 6.07920498776682
3042.635091373291 883.7952105512096 6.140011616148568 0.32755672528867485 639.4654611461091 0.0
