e[MeV/fm^3], P[MeV/fm^3], rho[fm^-3], v2[1], mu_q[MeV], mu_e[MeV]
71.58195607221194 0.019376260638347076 0.07551183166112621 0.01806185032450322 316.57195128971085 89.92341642585284
74.10016491175249 0.06485977178396946 0.07815115873557246 0.01806185032450326 316.72146406873105 91.024765790619
76.70639143836377 0.11193304521937247 0.08088273688183939 0.018061850324503265 316.876202692721 92.16461006582368
79.40371208999426 0.16065164710631397 0.08370979050524349 0.018061850324503224 317.0363498180116 93.34429474471072
82.19531083378259 0.21107308578268988 0.08663565671212049 0.018061850324503186 317.2020944852288 94.56521234887349
85.08448292446792 0.26325687964638034 0.08966378924900394 0.018061850324503227 317.3736323424404 95.82880407201151
88.0746387941701 0.317264627411876 0.09279776257949199 0.018061850324503234 317.55116587610246 97.13656148114251
91.1693080781302 0.37316008082260077 0.09604127610361388 0.0180618503245032 317.7349046500787 98.49002827727713
94.37214378115249 0.4310092199045644 0.09939815852466523 0.018088487354544512 317.9250655530129 99.89080211763012
97.6869757993967 0.49106090179612444 0.10287237236868205 0.019255301458732603 318.1222990017657 101.33984570908403
101.11986451800226 0.5612123980307122 0.10646801866188291 0.021662464342603646 318.3451487000273 102.80997251328064
104.67528624500615 0.6427510757917515 0.11018934177159138 0.024237271178381786 318.59574432277356 104.30486344182296
108.35791622476958 0.736980624741799 0.11404073441636543 0.026920267095794273 318.8759904930379 105.82396075340817
112.1727714362078 0.844944139362974 0.11802674285124978 0.029903169158792375 319.1863342944128 107.33131489870814
116.12536221854529 0.9697012467608513 0.12215207223425231 0.033128604049492305 319.53184301002517 108.83594926945497
120.22058430169312 1.1120115025052542 0.12642159218040233 0.03642699727296762 319.9131521806471 110.36057643612367
124.4640269233187 1.2739597956119093 0.130840342509936 0.04005797794488111 320.3330553238233 111.91312631407268
128.8618971317408 1.458760515403257 0.13541353919739 0.044167339746025575 320.79588975142224 113.49907969978847
133.4208715816421 1.6702641954106736 0.1401465805286361 0.04845346643322773 321.30651694759945 115.12367962053304
138.14674713038173 1.9093441223752088 0.14504505347311691 0.052773525840877133 321.864973007233 116.79378000164584
143.046301157445 2.1790046101745664 0.1501147402788089 0.057528169039875315 322.47450701812625 118.51374226197309
148.1273960447996 2.4844335534151987 0.15536162529769304 0.06284216502195894 323.1410092423423 120.28727240461446
153.3980665613772 2.830586859448035 0.16079190204979565 0.06832610081857435 323.8695330774141 122.11815106148126
158.86527298295658 3.219172163942335 0.1664119805341341 0.07388078486914754 324.6608118435546 124.01003694966207
164.53733520637863 3.6547355939838426 0.17222849479519628 0.08003547718389081 325.5190968335605 125.96563778643767
170.4244790514288 4.145740845861174 0.17824831075389239 0.0868529844855449 326.4526563846883 127.98699818273994
176.53631225317216 4.698462512306701 0.18447853431221173 0.09382020158110449 327.46672096984696 130.0757416868159
182.8813754413206 5.316058719226849 0.19092651974116215 0.10090610940848843 328.5630444196908 132.23321948878043
189.47003531795517 6.005327445562022 0.19759987836188778 0.10878861147005087 329.74707517392477 134.4600859855788
196.31596471295904 6.779778757210621 0.2045064875302128 0.11740966184855067 331.0300349266862 136.75533593637135
203.43050851080594 7.646768440999467 0.2116544999352168 0.12608946577877583 332.4166501261103 139.11816799894396
210.8244028704521 8.611548461528256 0.2190523532228215 0.1349022716417198 333.9096258088783 141.54800776113123
218.51074020607123 9.683761637930058 0.2267087799557421 0.144675685399567 335.51527196244086 144.04316211894482
226.5082297443755 10.883905458890382 0.2346328179215674 0.15515575564888284 337.2475539070624 214.01787046685513
234.82991040706085 12.219142432571214 0.24283382080112978 0.165468793415954 339.10915812779723 207.0894597531676
243.4895649756236 13.697245910404929 0.251321469209763 0.17584512352042914 341.1031533419793 199.66832391177624
252.5038440061727 15.330749682934059 0.2601057821244808 0.18722157626269964 343.23564238728784 191.73174975504972
261.8986645589929 17.148496170258692 0.2691971287105613 0.1990941783168373 345.52172126130665 183.22355387395388
271.6882403462793 19.154773742642355 0.2786062405615009 0.21078621200389236 347.9601724040327 174.1482677127537
283.1128347131668 21.628914835989015 0.2895176272195567 0.06848227815648922 350.553435966267 164.49680965959803
313.5281178461084 23.91699483126186 0.40311880558555513 0.08197366106800685 353.30588629997703 155.51585822232957
346.25871737861445 26.837639766870137 0.5255068509756977 0.10158623712114823 356.23075742095136 146.78150896143617
375.8281983430927 30.171496081842143 0.6361361050381136 0.1272211037139922 359.3222217150829 138.42937178434423
402.61546627857297 33.93065401726153 0.7359781811625498 0.1574482886080153 362.5812187590644 130.48570366049023
427.00784199565044 38.15133291484013 0.8258626337878301 0.18681429934773974 366.0093102394057 123.0202104562064
450.29664941034076 42.808451075342255 0.9104108337597683 0.21333177734499076 369.6146067251103 115.84305042928007
472.8153263265521 47.90328822521279 0.9905728935483789 0.2388083703769006 373.38857293297076 108.9553941827639
494.8801363883638 53.44407563213786 1.0670022575331066 0.26173679403309635 377.3304189270836 102.37328348426023
516.9148135097507 59.44510687695785 1.1417436986492664 0.2813229776270023 381.43924800134255 96.05916871635571
539.2313404516424 65.92618174524848 1.2161558159743406 0.29869643008778923 385.715199445606 89.96513460030545
562.000602910411 72.91964502745282 1.290694302529808 0.31372222148353757 390.1519632333736 84.10562759039892
585.4378461725978 80.43110528235313 1.3661132802248375 0.3258461821703449 394.74706680995223 78.4330450620766
609.6997364012308 88.47121073427977 1.4429452725600465 0.335831628359466 399.4973996827608 72.91750051264513
634.9032292051929 97.05167557491617 1.5215746421702883 0.3442885342132609 404.39704715862416 67.54287240803772
661.1948591831364 106.2089307818654 1.602430632901551 0.3516423381111702 409.443966892103 62.304050372369225
688.7398411887394 115.99149730809813 1.6860035597014027 0.35753077294699587 414.635064288593 57.20126938367044
717.5779394401436 126.3739220583721 1.7726480144420602 0.36217290816317305 419.965155467323 52.18546129127462
747.8521467635114 137.4066969800331 1.8629010601010114 0.3661582368380165 425.42575827814784 47.26779172355196
779.6985236651134 149.12546671549129 1.9575247737316817 0.36932335046447373 431.0191767573046 42.42493143900281
813.1836540122994 161.53967058704322 2.0573792048170203 0.3719738646413622 436.7425864142945 37.63151381271672
848.4825295812631 174.71592443378702 2.164450673673047 0.374264078713233 442.58863755631796 32.88883141672787
885.5650044300402 188.63302055027287 2.281593021684069 0.37638449903896243 448.5493841174104 28.165344335460436
924.6571989384756 203.39136157832223 2.417986902400292 0.37918223960892705 454.6305491184618 23.431198762446257
965.7120986330518 219.03003767450156 2.5706669916192966 0.38232566768954657 460.8299726039833 18.634306995580033
1008.6720429094604 235.51786872353193 2.6633705092839004 0.38314199502019175 467.1378280933174 13.852555612639172
1054.1924304410347 252.92712254651545 2.760134441646155 0.3818747962236726 473.54898535308183 9.171865663899935
1102.2661826568976 271.2560940943405 2.8609747170547486 0.38069770971929007 480.071280830431 4.552096598746839
1153.0405174121775 290.5551974817076 2.966064716763577 0.3794839188551542 486.70328412661297 0.009403972200699351
1206.7575134651229 310.9051692795527 3.0756309932807686 0.37828537194277256 493.4322960810193 0.0
1263.3864018929744 332.2941333391467 3.189590897831894 0.37716381809592114 500.25755711425035 0.0
1323.1606953984885 354.8047445306593 3.3082649578887864 0.376062247187944 507.1877539542807 0.0
1386.2540224258994 378.4963823352443 3.431834733905796 0.37497102010497896 514.2221043128914 0.0
1452.7477669864106 403.3924361569361 3.5602646020875617 0.3738902508434734 521.3446486630854 0.0
1522.8861670232827 429.5779019626836 3.6938455656462557 0.3728446631416702 528.5600614898749 0.0
1596.864267274163 457.12159665067554 3.832828170852941 0.3718376065783495 535.8768235754889 0.0
1674.8861981985497 486.09320277512995 3.9774145582436873 0.37085255796207584 543.2946808831524 0.0
1756.948763378923 516.4854127605818 4.1274197969561754 0.3698924757434052 550.7940656725807 0.0
1843.374961085875 548.4117923102822 4.283254199670807 0.368956104922475 558.3858568647358 0.0
1934.474199582995 581.9801851794024 4.445282394700307 0.36804250037362074 566.0774961051789 0.0
2030.4871890967006 617.272612958644 4.613730394275726 0.3671516706294904 573.8691457199808 0.0
2131.354937993946 654.2610159757207 4.788297708742252 0.3662861379234932 581.7373188974098 0.0
2237.53897918036 693.1082755282581 4.969583523624948 0.3654437225685263 589.6997099959373 0.0
2349.377135677252 733.931161697961 5.15794950626787 0.3646236748041427 597.7620710944946 0.0
2467.1516870133246 776.8257047350156 5.353647714672822 0.36382554383072696 605.9248908074412 0.0
2590.7273415626037 821.7359739628446 5.556236678450097 0.3630502794117447 614.160475058444 0.0
2720.7677538536823 868.8961398507917 5.766574188617618 0.3622848436167865 622.493868083454 0.0
2857.79175771806 918.4840156161561 5.985168668070425 0.3615392924267895 630.9286144231583 0.0
3001.9884702468853 970.5632881204921 6.212149374958293 0.36079718239298764 639.4654611461091 0.0
