e[MeV/fm^3], P[MeV/fm^3], rho[fm^-3], v2[1], mu_q[MeV], mu_e[MeV]
71.58195607221194 0.019376260638347076 0.07551183166112621 0.01806185032450322 316.57195128971085 89.92341642585284
74.10016491175249 0.06485977178396946 0.07815115873557246 0.01806185032450326 316.72146406873105 91.024765790619
76.70639143836377 0.11193304521937247 0.08088273688183939 0.018061850324503265 316.876202692721 92.16461006582368
79.40371208999426 0.16065164710631397 0.08370979050524349 0.018061850324503224 317.0363498180116 93.34429474471072
82.19531083378259 0.21107308578268988 0.08663565671212049 0.018061850324503186 317.2020944852288 94.56521234887349
85.08448292446792 0.26325687964638034 0.08966378924900394 0.018061850324503227 317.3736323424404 95.82880407201151
88.0746387941701 0.317264627411876 0.09279776257949199 0.018061850324503234 317.55116587610246 97.13656148114251
91.1693080781302 0.37316008082260077 0.09604127610361388 0.0180618503245032 317.7349046500787 98.49002827727713
94.37214378115249 0.4310092199045644 0.09939815852466523 0.018088487354544512 317.9250655530129 99.89080211763012
97.6869757993967 0.49106090179612444 0.10287237236868205 0.019255301458732603 318.1222990017657 101.33984570908403
101.11986451800226 0.5612123980307122 0.10646801866188291 0.021662464342603646 318.3451487000273 102.80997251328064
104.67528624500615 0.6427510757917515 0.11018934177159138 0.024237271178381786 318.59574432277356 104.30486344182296
108.35791622476958 0.736980624741799 0.11404073441636543 0.026920267095794273 318.8759904930379 105.82396075340817
112.1727714362078 0.844944139362974 0.11802674285124978 0.029903169158792375 319.1863342944128 107.33131489870814
116.12536221854529 0.9697012467608513 0.12215207223425231 0.033128604049492305 319.53184301002517 108.83594926945497
120.22058430169312 1.1120115025052542 0.12642159218040233 0.03642699727296762 319.9131521806471 110.36057643612367
124.4640269233187 1.2739597956119093 0.130840342509936 0.04005797794488111 320.3330553238233 111.91312631407268
128.8618971317408 1.458760515403257 0.13541353919739 0.044167339746025575 320.79588975142224 113.49907969978847
133.4208715816421 1.6702641954106736 0.1401465805286361 0.04845346643322773 321.30651694759945 115.12367962053304
138.14674713038173 1.9093441223752088 0.14504505347311691 0.052773525840877133 321.864973007233 116.79378000164584
143.046301157445 2.1790046101745664 0.1501147402788089 0.057528169039875315 322.47450701812625 118.51374226197309
148.1273960447996 2.4844335534151987 0.15536162529769304 0.06284216502195894 323.1410092423423 120.28727240461446
153.3980665613772 2.830586859448035 0.16079190204979565 0.06832610081857435 323.8695330774141 122.11815106148126
158.86527298295658 3.219172163942335 0.1664119805341341 0.07388078486914754 324.6608118435546 124.01003694966207
164.53733520637863 3.6547355939838426 0.17222849479519628 0.08003547718389081 325.5190968335605 125.96563778643767
170.4244790514288 4.145740845861174 0.17824831075389239 0.0868529844855449 326.4526563846883 127.98699818273994
176.53631225317216 4.698462512306701 0.18447853431221173 0.09382020158110449 327.46672096984696 130.0757416868159
182.8813754413206 5.316058719226849 0.19092651974116215 0.10090610940848843 328.5630444196908 132.23321948878043
189.47003531795517 6.005327445562022 0.19759987836188778 0.10878861147005087 329.74707517392477 134.4600859855788
196.31596471295904 6.779778757210621 0.2045064875302128 0.11740966184855067 331.0300349266862 136.75533593637135
203.43050851080594 7.646768440999467 0.2116544999352168 0.12608946577877583 332.4166501261103 139.11816799894396
210.8244028704521 8.611548461528256 0.2190523532228215 0.1349022716417198 333.9096258088783 141.54800776113123
218.51074020607123 9.683761637930058 0.2267087799557421 0.144675685399567 335.51527196244086 144.04316211894482
226.5082297443755 10.883905458890382 0.2346328179215674 0.15515575564888284 337.2475539070624 146.5980221258686
234.82991040706085 12.219142432571214 0.24283382080112978 0.165468793415954 339.10915812779723 149.21047258606862
243.4895649756236 13.697245910404929 0.251321469209763 0.17584512352042914 341.1031533419793 151.87844925539375
252.5038440061727 15.330749682934059 0.2601057821244808 0.18722157626269964 343.23564238728784 154.59823272020708
261.8986645589929 17.148496170258692 0.2691971287105613 0.1990941783168373 345.52172126130665 157.35874279741
271.6882403462793 19.154773742642355 0.2786062405615009 0.21042316819891171 347.9601724040327 180.22797924238395
281.89049785111735 21.359861900727388 0.28834422436678714 0.221851386141509 350.553435966267 175.20484151499778
297.70043317855055 25.011738620759633 0.30331208730167836 0.1251819043989552 353.30588629997703 169.87335985792186
309.28794371764826 26.491203095684014 0.34354853182087974 0.13017311252767177 356.23075742095136 164.58711839375533
331.46598124460775 29.484120391921405 0.42026197505278295 0.14641575302056087 359.3222217150829 159.54563126510428
352.7121530126777 32.82827052189303 0.49245423195211485 0.1704291182754326 362.5812187590644 154.762154270454
373.13112488690103 36.56393853998569 0.5601552337556396 0.19308753966735548 366.0093102394057 150.2693359254022
393.3915261077626 40.67974830395794 0.6258027730064832 0.21258089774084243 369.6146067251103 145.93999114981509
413.6728637935016 45.182733083723626 0.6899342479234557 0.23049316226230065 373.38857293297076 141.76251015885103
434.20036772607176 50.090101202458726 0.7532531155181384 0.2464117329469877 377.3304189270836 137.7112706511966
455.1892606526552 55.41971777256142 0.8164454738913773 0.26015263929963606 381.43924800134255 133.7575479100218
476.84256119846697 61.1919859737815 0.8801603927822016 0.2721576729305486 385.715199445606 129.87114263146452
499.32817125617964 67.4419294908365 0.9448219074365874 0.2822502676281604 390.1519632333736 126.04199419303042
522.8226021607335 74.17872961725683 1.011062255464579 0.29013378424323677 394.74706680995223 122.23041811571949
547.4656923578684 81.41623714440982 1.079346934694836 0.2964248919302852 399.4973996827608 118.4080727569532
573.3713469892141 89.16971046886735 1.1500236637842716 0.3015819747186639 404.39704715862416 114.55497243924377
600.7046490383478 97.47885217331668 1.223502917005558 0.30592025268351786 409.443966892103 110.6523163053292
629.6601980961476 106.39604741468052 1.3001648240711663 0.3092651310881396 414.635064288593 106.68329794462264
660.242076311706 115.8960616641573 1.3800374876520838 0.31169268909838044 419.965155467323 102.64138308857522
692.6584756958736 126.03612081026142 1.463944333715585 0.3135850318530147 425.42575827814784 98.5067294732493
727.0738837288715 136.85672484061928 1.5524805734876612 0.3149658997694116 431.0191767573046 94.25018245991028
763.562078802607 148.37070498436105 1.6458787528364933 0.3160059682633902 436.7425864142945 89.85914610287055
802.3647283243406 160.6512416234389 1.7447279675339538 0.3167854790913942 442.58863755631796 85.32057498319666
843.445882870728 173.67813393262585 1.8489912235400476 0.3173391955233058 448.5493841174104 80.6325598040273
887.1260632584294 187.55061054689057 1.9594625419741287 0.3177618059990044 454.6305491184618 75.77433698474492
933.511104338906 202.29836831146278 2.0764305681798967 0.31807273183006357 460.8299726039833 70.7391289859309
982.6173682473748 217.92452255416538 2.199954874139565 0.31833764185700364 467.1378280933174 65.52967276581658
1034.8195724812772 234.54947591319385 2.330953157972293 0.31858526071325644 473.54898535308183 60.13162262716345
1090.1148931230691 252.17236937491555 2.4694585926620385 0.31883089606112835 480.071280830431 54.54285733547075
1148.6935845771625 270.85688070803934 2.6159523442294836 0.3191307203398954 486.70328412661297 48.75791429695354
1210.8700588628365 290.7102866619862 2.7712154580993418 0.319498583355057 493.4322960810193 42.773293050681595
1276.606603094246 311.72630942179336 2.935196346397676 0.3199346099382838 500.25755711425035 36.59548216829648
1346.1846038374636 334.00394201867783 3.1086422062930668 0.320464436684464 507.1877539542807 30.213417569977434
1419.8151517715116 357.6219110457119 3.29219989780158 0.3210903133479399 514.2221043128914 23.624692348977415
1497.6101517837785 382.6280203337129 3.4866486073901855 0.32158774751399566 521.3446486630854 16.839836075774027
1579.9926034899438 409.1344507915755 3.697927210727358 0.3221534916185491 528.5600614898749 9.847436414502063
1667.1554499037416 437.25161446799257 3.9269007995659133 0.3265339940998806 535.8768235754889 2.6025771874928507
1757.1426228286261 467.00263938471807 4.093658800407038 0.33064855200711607 543.2946808831524 0.0
1851.946647610216 498.3528975563405 4.266952030094339 0.33071840743413405 550.7940656725807 0.0
1951.9526095086953 531.4302462477029 4.447269361618842 0.330786430826552 558.3858568647358 0.0
2057.5312169463655 566.3578576627264 4.635047744240279 0.33085275113376555 566.0774961051789 0.0
2168.974560301183 603.2329395279813 4.830564500069433 0.330917371189992 573.8691457199808 0.0
2286.2267008375907 642.037535698733 5.033484816536824 0.3309801114013018 581.7373188974098 0.0
2409.8366517223453 682.9538946157486 5.244518761444641 0.3310411330617824 589.6997099959373 0.0
2540.211088471357 726.1172221262616 5.464102108766981 0.33110049361481675 597.7620710944946 0.0
2677.692852435642 771.6416307340015 5.69254369112929 0.3311582286862853 605.9248908074412 0.0
2822.137102663544 819.4797371555943 5.929341688749982 0.3312142724320082 614.160475058444 0.0
2974.333365726791 869.8936313485005 6.175513050426222 0.3312695691105034 622.493868083454 0.0
3134.909211963163 923.0920825156194 6.431676993521838 0.3313233981555115 630.9286144231583 0.0
3304.0956180398853 979.1520310899024 6.697991165305465 0.3313769910100479 639.4654611461091 0.0
