e[MeV/fm^3], P[MeV/fm^3], rho[fm^-3], v2[1], mu_q[MeV], mu_e[MeV]
71.58195607221194 0.019376260638347076 0.07551183166112621 0.01806185032450322 316.57195128971085 89.92341642585284
74.10016491175249 0.06485977178396946 0.07815115873557246 0.01806185032450326 316.72146406873105 91.024765790619
76.70639143836377 0.11193304521937247 0.08088273688183939 0.018061850324503265 316.876202692721 92.16461006582368
79.40371208999426 0.16065164710631397 0.08370979050524349 0.018061850324503224 317.0363498180116 93.34429474471072
82.19531083378259 0.21107308578268988 0.08663565671212049 0.018061850324503186 317.2020944852288 94.56521234887349
85.08448292446792 0.26325687964638034 0.08966378924900394 0.018061850324503227 317.3736323424404 95.82880407201151
88.0746387941701 0.317264627411876 0.09279776257949199 0.018061850324503234 317.55116587610246 97.13656148114251
91.1693080781302 0.37316008082260077 0.09604127610361388 0.0180618503245032 317.7349046500787 98.49002827727713
94.37214378115249 0.4310092199045644 0.09939815852466523 0.018088487354544512 317.9250655530129 99.89080211763012
97.6869757993967 0.49106090179612444 0.10287237236868205 0.019255301458732603 318.1222990017657 101.33984570908403
101.11986451800226 0.5612123980307122 0.10646801866188291 0.021662464342603646 318.3451487000273 102.80997251328064
104.67528624500615 0.6427510757917515 0.11018934177159138 0.024237271178381786 318.59574432277356 104.30486344182296
108.35791622476958 0.736980624741799 0.11404073441636543 0.026920267095794273 318.8759904930379 105.82396075340817
112.1727714362078 0.844944139362974 0.11802674285124978 0.029903169158792375 319.1863342944128 107.33131489870814
116.12536221854529 0.9697012467608513 0.12215207223425231 0.033128604049492305 319.53184301002517 108.83594926945497
120.22058430169312 1.1120115025052542 0.12642159218040233 0.03642699727296762 319.9131521806471 110.36057643612367
124.4640269233187 1.2739597956119093 0.130840342509936 0.04005797794488111 320.3330553238233 111.91312631407268
128.8618971317408 1.458760515403257 0.13541353919739 0.044167339746025575 320.79588975142224 113.49907969978847
133.4208715816421 1.6702641954106736 0.1401465805286361 0.04845346643322773 321.30651694759945 115.12367962053304
138.14674713038173 1.9093441223752088 0.14504505347311691 0.052773525840877133 321.864973007233 116.79378000164584
143.046301157445 2.1790046101745664 0.1501147402788089 0.057528169039875315 322.47450701812625 118.51374226197309
148.1273960447996 2.4844335534151987 0.15536162529769304 0.06284216502195894 323.1410092423423 120.28727240461446
153.3980665613772 2.830586859448035 0.16079190204979565 0.06832610081857435 323.8695330774141 122.11815106148126
158.86527298295658 3.219172163942335 0.1664119805341341 0.07388078486914754 324.6608118435546 124.01003694966207
164.53733520637863 3.6547355939838426 0.17222849479519628 0.08003547718389081 325.5190968335605 125.96563778643767
170.4244790514288 4.145740845861174 0.17824831075389239 0.0868529844855449 326.4526563846883 127.98699818273994
176.53631225317216 4.698462512306701 0.18447853431221173 0.09382020158110449 327.46672096984696 130.0757416868159
182.8813754413206 5.316058719226849 0.19092651974116215 0.10090610940848843 328.5630444196908 132.23321948878043
189.47003531795517 6.005327445562022 0.19759987836188778 0.10878861147005087 329.74707517392477 134.4600859855788
196.31596471295904 6.779778757210621 0.2045064875302128 0.11740966184855067 331.0300349266862 136.75533593637135
203.43050851080594 7.646768440999467 0.2116544999352168 0.12608946577877583 332.4166501261103 139.11816799894396
210.8244028704521 8.611548461528256 0.2190523532228215 0.1349022716417198 333.9096258088783 294.32190124336256
218.51074020607123 9.683761637930058 0.2267087799557421 0.144675685399567 335.51527196244086 280.7655075042127
226.5082297443755 10.883905458890382 0.2346328179215674 0.15515575564888284 337.2475539070624 266.1399338331987
234.82991040706085 12.219142432571214 0.24283382080112978 0.165468793415954 339.10915812779723 250.42249836539668
243.4895649756236 13.697245910404929 0.251321469209763 0.17584512352042914 341.1031533419793 233.58729206701292
252.5038440061727 15.330749682934059 0.2601057821244808 0.18722157626269964 343.23564238728784 215.5827889711821
261.8986645589929 17.148496170258692 0.2691971287105613 0.19974621670466464 345.52172126130665 196.28153429175666
279.32410986770145 20.79496506958668 0.2859607134859561 0.0117999000896606 347.9601724040327 175.69380782965396
321.71886686254584 21.49920571649675 0.43932542611864334 0.02142310656636119 350.553435966267 153.79900750827767
420.04095464370835 24.702755231178372 0.7977524232398083 0.04059719576425003 353.30588629997703 133.0972310257157
504.57005562882233 28.71685811925585 1.1082747006585911 0.06008301348989448 356.23075742095136 112.79290728085005
573.604388469884 33.57476404684259 1.3669423206271616 0.08486687001292714 359.3222217150829 93.19968169820822
631.9943640347744 39.246122138215476 1.5909194857781785 0.11247445631739345 362.5812187590644 74.37450640785102
683.9785141165983 45.803217101547354 1.7973516093370572 0.13370927308563235 366.0093102394057 56.27083786743154
736.3154057107677 53.2001734284285 2.0173312291278664 0.14809435828885326 369.6146067251103 38.394324027286984
790.2043085148181 61.555954956701015 2.259713006609076 0.2484779259717802 373.38857293297076 20.274798027182186
820.6094037644481 70.71361811908008 2.3620685435718856 0.34709808463470204 377.3304189270836 3.103639478307768
846.1225697147362 80.55203698614875 2.429343240235675 0.38516148480386736 381.43924800134255 0.0
873.494980413303 91.08133343180671 2.500730615129435 0.38412250949856586 385.715199445606 0.0
902.886975005394 102.35423727325846 2.5764682996132575 0.3830161499316589 390.1519632333736 0.0
934.3596109392474 114.39122775580574 2.6566245852646406 0.38195441732908186 394.74706680995223 0.0
967.9858582089039 127.21679590449162 2.741282230838094 0.3809180409338624 399.4973996827608 0.0
1003.8384795392406 140.85469439569346 2.8305038423138082 0.3798711528808323 404.39704715862416 0.0
1042.0924505081555 155.36518833436938 2.9245369124743115 0.3787713542309483 409.443966892103 0.0
1082.975969194848 170.82672430436799 3.02369854020641 0.37770913181297394 414.635064288593 0.0
1126.4016641174214 187.20705319126768 3.127788055658729 0.37668519136152856 419.965155467323 0.0
1172.6051478406541 204.58573638437156 3.237086169631431 0.37562814257452537 425.42575827814784 0.0
1221.754503778055 223.0211902093132 3.3518349570850545 0.37461614028783563 431.0191767573046 0.0
1273.9019578209814 242.53022559179328 3.4720589361377634 0.37360112514078603 436.7425864142945 0.0
1329.3475635377954 263.21459579992205 3.5981184589238406 0.37259838997540173 442.58863755631796 0.0
1387.996539797256 285.0386602018399 3.7297717092619656 0.37162943859648 448.5493841174104 0.0
1450.2611525304806 308.14603817093257 3.8676264220343377 0.37065434061810487 454.6305491184618 0.0
1516.2538039782053 332.5742286493248 4.011779958828152 0.36973027612437104 460.8299726039833 0.0
1585.9695823533152 358.3182226278216 4.162102863134229 0.36879388393507506 467.1378280933174 0.0
1659.8871458155593 385.54119897838336 4.319173980266341 0.36787061736665905 473.54898535308183 0.0
1737.993390183483 414.2397161504918 4.482985359614063 0.36701580628229147 480.071280830431 0.0
1820.531478283929 444.4964397687124 4.653809189446188 0.36613577688480925 486.70328412661297 0.0
1907.903283853674 476.4453975169081 4.832014869879394 0.36526761515747497 493.4322960810193 0.0
2000.0589584450008 510.0680916629775 5.017462538867651 0.3644560267736763 500.25755711425035 0.0
2097.3826424661884 545.498140438292 5.210679615503849 0.36365964601599954 507.1877539542807 0.0
2200.1615124460327 582.833010922706 5.411968011426366 0.3628714765901999 514.2221043128914 0.0
2308.5334856328004 622.1143593709037 5.621277413829665 0.3620915678577519 521.3446486630854 0.0
2422.901432400694 663.4806214514265 5.839088441205483 0.3613377089871679 528.5600614898749 0.0
2543.586383731046 707.0432023301688 6.065812432199898 0.3606122682541497 535.8768235754889 0.0
2670.926064710255 752.9165750083689 6.301785181246427 0.35990327592278204 543.2946808831524 0.0
2804.9198264569027 801.0933098076194 6.5467104610051905 0.35921281902184354 550.7940656725807 0.0
2946.099591084808 851.7575367709386 6.801263564867815 0.35853995278545403 558.3858568647358 0.0
3094.975604365611 905.0847829796711 7.066045832309553 0.3578839579016755 566.0774961051789 0.0
3251.94622397758 961.2099005269014 7.341432467322429 0.3572448019621519 573.8691457199808 0.0
3416.9197674789666 1020.0926237995495 7.626937534736818 0.3566242558965578 581.7373188974098 0.0
3590.655846379583 1081.996607073042 7.9235461706807335 0.3560207191204423 589.6997099959373 0.0
3773.712296414746 1147.112610551249 8.231855734833104 0.35543361927106476 597.7620710944946 0.0
3966.556387684997 1215.5986329916648 8.552284499892835 0.35486260024535055 605.9248908074412 0.0
4168.971569012324 1287.369965885741 8.884114769420151 0.3543083098049058 614.160475058444 0.0
4382.05014243033 1362.8056887577575 9.228757014125453 0.3537614070575308 622.493868083454 0.0
4606.6499752193695 1442.1973921317083 9.587053499355351 0.35322904132241995 630.9286144231583 0.0
4843.08461390776 1525.6503398307127 9.959218452033815 0.35269922842650914 639.4654611461091 0.0
