e[MeV/fm^3], P[MeV/fm^3], rho[fm^-3], v2[1], mu_q[MeV], mu_e[MeV]
71.58195607221194 0.019376260638347076 0.07551183166112621 0.01806185032450322 316.57195128971085 89.92341642585284
74.10016491175249 0.06485977178396946 0.07815115873557246 0.01806185032450326 316.72146406873105 91.024765790619
76.70639143836377 0.11193304521937247 0.08088273688183939 0.018061850324503265 316.876202692721 92.16461006582368
79.40371208999426 0.16065164710631397 0.08370979050524349 0.018061850324503224 317.0363498180116 93.34429474471072
82.19531083378259 0.21107308578268988 0.08663565671212049 0.018061850324503186 317.2020944852288 94.56521234887349
85.08448292446792 0.26325687964638034 0.08966378924900394 0.018061850324503227 317.3736323424404 95.82880407201151
88.0746387941701 0.317264627411876 0.09279776257949199 0.018061850324503234 317.55116587610246 97.13656148114251
91.1693080781302 0.37316008082260077 0.09604127610361388 0.0180618503245032 317.7349046500787 98.49002827727713
94.37214378115249 0.4310092199045644 0.09939815852466523 0.018088487354544512 317.9250655530129 99.89080211763012
97.6869757993967 0.49106090179612444 0.10287237236868205 0.019255301458732603 318.1222990017657 101.33984570908403
101.11986451800226 0.5612123980307122 0.10646801866188291 0.021662464342603646 318.3451487000273 102.80997251328064
104.67528624500615 0.6427510757917515 0.11018934177159138 0.024237271178381786 318.59574432277356 104.30486344182296
108.35791622476958 0.736980624741799 0.11404073441636543 0.026920267095794273 318.8759904930379 105.82396075340817
112.1727714362078 0.844944139362974 0.11802674285124978 0.029903169158792375 319.1863342944128 107.33131489870814
116.12536221854529 0.9697012467608513 0.12215207223425231 0.033128604049492305 319.53184301002517 108.83594926945497
120.22058430169312 1.1120115025052542 0.12642159218040233 0.03642699727296762 319.9131521806471 110.36057643612367
124.4640269233187 1.2739597956119093 0.130840342509936 0.04005797794488111 320.3330553238233 111.91312631407268
128.8618971317408 1.458760515403257 0.13541353919739 0.044167339746025575 320.79588975142224 113.49907969978847
133.4208715816421 1.6702641954106736 0.1401465805286361 0.04845346643322773 321.30651694759945 115.12367962053304
138.14674713038173 1.9093441223752088 0.14504505347311691 0.052773525840877133 321.864973007233 116.79378000164584
143.046301157445 2.1790046101745664 0.1501147402788089 0.057528169039875315 322.47450701812625 118.51374226197309
148.1273960447996 2.4844335534151987 0.15536162529769304 0.06284216502195894 323.1410092423423 120.28727240461446
153.3980665613772 2.830586859448035 0.16079190204979565 0.06832610081857435 323.8695330774141 122.11815106148126
158.86527298295658 3.219172163942335 0.1664119805341341 0.07388078486914754 324.6608118435546 124.01003694966207
164.53733520637863 3.6547355939838426 0.17222849479519628 0.08003547718389081 325.5190968335605 125.96563778643767
170.4244790514288 4.145740845861174 0.17824831075389239 0.0868529844855449 326.4526563846883 127.98699818273994
176.53631225317216 4.698462512306701 0.18447853431221173 0.09382020158110449 327.46672096984696 130.0757416868159
182.8813754413206 5.316058719226849 0.19092651974116215 0.10090610940848843 328.5630444196908 132.23321948878043
189.47003531795517 6.005327445562022 0.19759987836188778 0.10878861147005087 329.74707517392477 134.4600859855788
196.31596471295904 6.779778757210621 0.2045064875302128 0.11740966184855067 331.0300349266862 136.75533593637135
203.43050851080594 7.646768440999467 0.2116544999352168 0.12608946577877583 332.4166501261103 139.11816799894396
210.8244028704521 8.611548461528256 0.2190523532228215 0.1349022716417198 333.9096258088783 141.54800776113123
218.51074020607123 9.683761637930058 0.2267087799557421 0.144675685399567 335.51527196244086 144.04316211894482
226.5082297443755 10.883905458890382 0.2346328179215674 0.15515575564888284 337.2475539070624 146.5980221258686
234.82991040706085 12.219142432571214 0.24283382080112978 0.165468793415954 339.10915812779723 149.21047258606862
243.4895649756236 13.697245910404929 0.251321469209763 0.17584512352042914 341.1031533419793 151.87844925539375
252.5038440061727 15.330749682934059 0.2601057821244808 0.18722157626269964 343.23564238728784 154.59823272020708
261.8986645589929 17.148496170258692 0.2691971287105613 0.1990941783168373 345.52172126130665 157.35874279741
271.6882403462793 19.154773742642355 0.2786062405615009 0.21042316819891171 347.9601724040327 160.15923345514636
281.89049785111735 21.359861900727388 0.28834422436678714 0.22164620815909453 350.553435966267 162.99688619016126
292.5265475405733 23.778386588672046 0.29842257502243846 0.2337246132981532 353.30588629997703 165.86712739404365
303.63223194734013 26.447522162853414 0.3088531891997931 0.24592594617416275 356.23075742095136 168.75397623493998
315.221644345916 29.365222005850605 0.3196483793885593 0.2571506414649065 359.3222217150829 171.66146423910627
327.3182001354512 32.54397588998893 0.3308208884307057 0.2680601823279971 362.5812187590644 174.58688764206116
339.94834281111105 35.99922256647753 0.34238390456234696 0.27953912812815473 366.0093102394057 177.52639819239948
353.1609909336148 39.77515980981052 0.35435107698138235 0.2920249078355086 369.6146067251103 180.46095093582716
356.7754761398028 40.832656522746184 0.3575778230556553 0.08199889559557172 373.38857293297076 172.8467104460929
432.06221243121513 48.76748222570809 0.6349242776343259 0.12879057659641124 377.3304189270836 161.90056408552908
470.51154520556287 54.178801162754496 0.7747776974965732 0.15517285870585595 381.43924800134255 151.43392668890255
506.24775278224433 60.2035059660884 0.9032687800908186 0.1840180663606663 385.715199445606 141.40967973949236
539.7916884673838 66.86202158024814 1.0219528219983578 0.21223585887732 390.1519632333736 131.8655387894388
572.0447850315496 74.13321971585876 1.1340027136470627 0.23769476821480406 394.74706680995223 122.71819495661893
603.5932272042555 82.0102340473386 1.2414156781606172 0.26078649059251924 399.4973996827608 113.91632294268635
634.7981863876688 90.49087076624564 1.3451319111402857 0.2817834006457036 404.39704715862416 105.44326852849052
666.0047522675856 99.59679799029855 1.4462831852926252 0.3003452620204099 409.443966892103 97.33100007074108
697.6516680147292 109.37619930819763 1.5471983693362672 0.3153649636244642 414.635064288593 89.54844080913418
730.0147377062135 119.79250137453688 1.6490922065327984 0.3278764948156332 419.965155467323 81.99937550245816
763.2476888768854 130.89420476688701 1.752353234962903 0.33912008666527993 425.42575827814784 74.71291165303668
797.5649657260581 142.7112995266439 1.857744316336217 0.34840732881193315 431.0191767573046 67.65547836870566
833.1154326948407 155.24682983009654 1.9659391170219849 0.35636973125955684 436.7425864142945 60.787251986466714
870.0782912835252 168.56367876991285 2.077710794083091 0.36310160997107443 442.58863755631796 54.12768809977935
908.513214963441 182.63236910689824 2.193916892850553 0.36854633147175386 448.5493841174104 47.62983685413944
948.6886124786889 197.54414890512788 2.3166398267016093 0.3730393412156454 454.6305491184618 41.28655444891627
990.7647371478748 213.32270893695303 2.44949478346538 0.37623110290063044 460.8299726039833 35.06103177468189
1034.8597443679187 229.969497749419 2.599514574818866 0.37864060230370766 467.1378280933174 28.91906940552804
1081.3228174519545 247.61712024060003 2.78463807709814 0.38782408683746583 473.54898535308183 22.802223461540787
1128.3514320449526 266.23693409134677 2.9047782022372655 0.39725629193380296 480.071280830431 16.738392300152164
1177.4671374434092 285.816735781314 3.006495166828313 0.39782205684081307 486.70328412661297 10.87711257445922
1229.3863186006163 306.42608621105387 3.1124138594076856 0.3962026845938933 493.4322960810193 5.244531079598097
1284.0801386514115 328.05283174576124 3.2224831981717528 0.3946798378007754 500.25755711425035 0.6536929840718918
1341.7709831720708 350.7775213390061 3.3370215042427107 0.393180790286054 507.1877539542807 0.0
1402.622758371491 374.65681140565096 3.456201772388165 0.3916935701145827 514.2221043128914 0.0
1466.7095342881032 399.7103413897596 3.5799832836785956 0.3902185488588015 521.3446486630854 0.0
1534.262727780331 426.0200938420662 3.708641261615883 0.3887896139157605 528.5600614898749 0.0
1605.4677221088546 453.65300115357223 3.8424147044113597 0.38741147937122866 535.8768235754889 0.0
1680.5170949214967 482.6754719808977 3.981493188956949 0.38606172392139104 543.2946808831524 0.0
1759.4039926771702 513.07678697284 4.125694214898316 0.38474452018173366 550.7940656725807 0.0
1842.4351732751163 544.9671724620358 4.275407808024248 0.3834582657486165 558.3858568647358 0.0
1929.9039054010468 578.4507476890828 4.430979549705719 0.38220177636056496 566.0774961051789 0.0
2022.0371836112529 613.6055905274158 4.592621608826193 0.38097517365534017 573.8691457199808 0.0
2118.7744616532805 650.4001729607451 4.760041247276636 0.3797820417320579 581.7373188974098 0.0
2220.5544413492385 688.9929428367005 4.933808853287265 0.37861948504016185 589.6997099959373 0.0
2327.69671960902 729.4960586399624 5.114266456175281 0.3774865706273802 597.7620710944946 0.0
2440.4673944102356 772.0008383991528 5.301650815960772 0.3763827724091766 605.9248908074412 0.0
2558.7328087878495 816.4480888958332 5.495534968384857 0.37530949619928844 614.160475058444 0.0
2683.1237624664595 863.0655825498753 5.696735347974818 0.37424874719081025 622.493868083454 0.0
2814.1301578563516 912.0232018344798 5.9057306933422264 0.3732145635678332 630.9286144231583 0.0
2951.929865985021 963.3811123935093 6.122642643401718 0.37218484629266513 639.4654611461091 0.0
