e[MeV/fm^3], P[MeV/fm^3], rho[fm^-3], v2[1], mu_q[MeV], mu_e[MeV]
78.65522425252887 0.2435229754360066 0.0829 0.007712150056824463 317.24466114983903 92.4051909548098
78.99924811959762 0.24620412636923011 0.08326146450221096 0.007874855322006769 317.2554182968304 92.58265670477257
79.34478385419357 0.24895340406434205 0.08362450507904626 0.008039172918267612 317.2664008913886 92.76015810046582
79.6918383485726 0.2517722304546457 0.08398912860258109 0.00820601370422036 317.27761242888016 92.93769865918871
80.0404185312881 0.25466204823995553 0.08435534197485445 0.008375393648973994 317.2890564277614 93.11528198575091
80.3905313674395 0.25762432108447086 0.08472315212800012 0.00854732862980595 317.3007364294806 93.29291177290789
80.74218385892392 0.2606605338142956 0.08509256602437758 0.008721834431034303 317.31265599838025 93.47059180177831
81.09538304468899 0.26377219261766616 0.08546359065670396 0.008898926743656 317.3248187215993 93.64832594224384
81.45013600098818 0.2669608252453467 0.08583623304818629 0.009078621165868939 317.3372282089768 93.82611815332925
81.80644984163807 0.2702279812144116 0.08621050025265463 0.009260933203516564 317.34988809295373 94.00397248356408
82.16433171827697 0.2735752320121394 0.08658639935469542 0.009445878268294627 317.3628020284794 94.18189307132535
82.52378882062692 0.27700417130176086 0.0869639374697857 0.009633471680152772 317.3759736929139 94.35988414515802
82.8848283767558 0.2805164151313202 0.08734312174442772 0.009823728666780829 317.3894067859365 94.53795002407782
83.24745765334369 0.2841136021423442 0.08772395935628417 0.010016664364072225 317.40310502945186 94.71609511785056
83.61168395594918 0.2877973937823842 0.08810645751431424 0.010212293816986129 317.41707216750007 94.89432392725195
83.97751462927968 0.29156947451766013 0.08849062345890993 0.010410631980062979 317.43131196616633 95.07264104430372
84.34495705746248 0.2954315520494062 0.0888764644620331 0.010611693719369042 317.44582821349445 95.25105115248917
84.71401866431839 0.29938535753137463 0.08926398782735326 0.010815493812686872 317.46062471940155 95.42955902694422
85.0847069136377 0.3034326457898425 0.08965320089038557 0.01102204695085568 317.47570531559506 95.60816953462684
85.45702930945842 0.3075751955456555 0.09004411101862998 0.01123136773944361 317.49107385549246 95.78688763446152
85.83099339634553 0.31181480963907254 0.09043672561171051 0.011443470700341851 317.5067342141444 95.96571837746052
86.20660675967454 0.31615331525666945 0.0908310521015154 0.011658370273657459 317.52269028815886 96.1446669068202
86.58387702591533 0.32059256416133297 0.09122709795233779 0.011876080819456347 317.5389459956318 96.32373845799245
86.96281186291893 0.3251344329242478 0.0916248706610168 0.012096616619162115 317.55550527607744 96.50293835873097
87.3434189802073 0.32978082315982166 0.09202437775707985 0.01231999187829902 317.5723720903654 96.68227202911223
87.72570612926407 0.3345336617636655 0.09242562680288485 0.012546220729585389 317.58955042066043 96.8617449815293
88.10968110382862 0.3393949011538783 0.09282862539376355 0.012775317234671513 317.60704427036507 97.04136282066017
88.49535174019186 0.3443665195144447 0.09323338115816504 0.01300729538600226 317.6248576640693 97.22113124340905
88.88272591749492 0.34945052104211294 0.0936399017578005 0.013242169111498059 317.64299464750286 97.4010560388206
89.27181155803 0.3546489361976578 0.09404819488778801 0.013479952276444551 317.66145928749256 97.5811430879658
89.66261662754319 0.35996382195855187 0.0944582682767983 0.013720658686355136 317.6802556719253 97.76139836380142
90.05514913554057 0.36539726207690976 0.09487012968720102 0.013964302091138026 317.6993879097164 97.94182793100067
90.449417135596 0.3709513673399366 0.09528378691521154 0.0142108961884157 317.7188601307821 98.12243794575436
90.84542872566179 0.37662827583512815 0.0956992477910388 0.014460454626888664 317.73867648601976 98.3032346555453
91.24319204838203 0.3824301532181168 0.09611652017903338 0.01471299101001361 317.7588411472934 98.48422439889245
91.64271529140817 0.3883591929856508 0.09653561197783636 0.014968518900476735 317.77935830742376 98.66541360506558
92.04400668771689 0.3944176167519585 0.09695653112052872 0.015227051824171889 317.80023218018766 98.8468087937713
92.4470745159314 0.40060767453002094 0.09737928557478183 0.01548860327448126 317.8214670003225 99.02841657480835
92.85192710064489 0.40693164501659856 0.09780388334300796 0.015753186716605305 317.84306702353655 99.21024364769356
93.25857281274612 0.41339183588234263 0.09823033246251192 0.016020815592125426 317.86503652652976 99.39229680125769
93.66702006974931 0.4199905840660183 0.09865864100564319 0.016291503324359136 317.88737980701825 99.5745829132096
94.07727733612448 0.42673025607460474 0.09908881707994853 0.01656526332259467 317.9101011837685 99.75710894967163
94.48935312363251 0.4336132482867469 0.0995208688283258 0.01684210898745686 317.93320499663963 99.93988196468275
94.90325599166226 0.44064198726322434 0.09995480442917781 0.017122053716415953 317.956695606632 100.12290909967187
95.31899454757026 0.44781893006100254 0.10039063209656729 0.017405110908471966 317.980577395946 100.30619758289889
95.73657744702363 0.4551465645538507 0.10082836008037221 0.0176912939706102 318.0048547680478 100.4897547288659
96.15601339434578 0.46262740975817584 0.10126799666644218 0.01798061632245329 318.0295321477449 100.67358793769571
96.5773111428652 0.47026401616412405 0.10170955017675501 0.018273091403180675 318.0546139812705 100.8577046944805
97.00047949526694 0.47805896607399706 0.10215302896957458 0.018568732676718325 318.0801047363761 101.04211256859836
97.42552730394736 0.4860148739446729 0.10259844143960871 0.018867553637495482 318.10600890243404 101.22681921299743
97.85246347137176 0.4941343867380575 0.1030457960181683 0.01916956781769752 318.13233099055 101.41183236345013
98.28129695043528 0.5024201842769985 0.10349510117332678 0.019474788792993247 318.15907553368464 101.59715983777487
98.71203674482712 0.5108749796081912 0.10394636541008055 0.019783230188992418 318.18624708678453 101.78280953502664
99.14469190939673 0.5195015193713572 0.10439959727050992 0.020094905687928488 318.21385022692556 101.96878943465546
99.5792715505255 0.5283025841758966 0.10485480533394065 0.020409829035062388 318.2418895534632 102.15510759563365
100.0157848264995 0.5372809889837835 0.10531199821710664 0.020728014045995224 318.2703696881956 102.3417721555525
100.4542409478865 0.546439583500965 0.10577118457431275 0.02104947461329132 318.2992952755372 102.52879132968621
100.89464917791672 0.5557812525746922 0.10623237309759884 0.021374224713270218 318.32867098270185 102.71617341002501
101.33701883286618 0.5653089165997514 0.10669557251690419 0.021702278413199494 318.358501499898 102.90392676427741
101.78135928244396 0.575025531931221 0.10716079160023272 0.022033649878819284 318.3887915405338 103.09205983484101
102.22767995018293 0.5849340913067432 0.1076280391538191 0.022368353381338024 318.4195458414349 103.28058113774216
102.67599031383415 0.5950376242751031 0.10809732402229529 0.022706403304173617 318.45076916307215 103.46949926154558
103.12629990576448 0.6053391976343947 0.1085686550888581 0.023047814151652912 318.48246628980166 103.65882286623238
103.57861831335832 0.6158419158785295 0.10904204127543718 0.02339260055539638 318.5146420301155 103.8485606820483
104.03295517942234 0.6265489216515608 0.10951749154286414 0.0237407772818492 318.5473012169056 104.03872150832052
104.48932020259544 0.6374633962117068 0.10999501489104185 0.02409235924056663 318.58044870773784 104.22931421224689
104.94772313776078 0.6485885599041559 0.11047462035911514 0.024447361491027886 318.6140893851382 104.42034772765177
105.4081737964628 0.659927672642553 0.11095631702564171 0.024805799250845917 318.64822815689206 104.61183105371583
105.87068204732759 0.6714840344008889 0.11144011400876395 0.02516768790322077 318.68286995635407 104.80377325367341
106.33525781648827 0.6832609857137023 0.11192602046638171 0.025533043004426825 318.7180197427707 104.99618345348313
106.80191108801263 0.6952619081870351 0.11241404559632541 0.02590188029167273 318.7536825016154 105.1890708404682
107.2706519043369 0.7074902250183881 0.11290419863653041 0.02627421569089239 318.78986324493474 105.38244466192914
107.74149036670234 0.7199494015277484 0.11339648886521174 0.026638205100103507 318.8265670117069 105.57631422372745
108.21443662847402 0.7326317018969009 0.11389092560103964 0.02694396114283415 318.8637659392723 105.77021542941414
108.68950073765929 0.7454931013775581 0.11438751820331619 0.027229810117875286 318.90132640906813 105.96216664767937
109.16669276866097 0.7585621247318285 0.11488627607215222 0.027555334555755207 318.9393275147918 106.15324659056273
109.6460229350526 0.7718511105098297 0.1153872086486455 0.027898204133518623 318.97780045327005 106.34384318019683
110.12750153623604 0.7853677137472368 0.11589032541505918 0.028251691359682307 319.01676247995914 106.53414305711398
110.61113894605523 0.7991180429399837 0.11639563589500154 0.028613274957232315 319.05622615581143 106.72426480828494
111.09694560845786 0.8131074758100756 0.11690314965360604 0.02898165408433806 319.09620175865524 106.91429373230439
111.58493203542113 0.8273409872887596 0.11741287629771259 0.02935605150029319 319.1366982546757 107.104295848817
112.07510880588201 0.8418233113423208 0.11792482547604927 0.029735960038474007 319.1777237783802 107.2943248188133
112.56748656519252 0.8565590315483659 0.11843900687941493 0.030121028634292002 319.21928590136474 107.48442581733639
113.0620760248838 0.8715526364206737 0.1189554302408628 0.030511003861404262 319.26139179637846 107.67463789455292
113.55888796262357 0.8868085554700749 0.11947410533588455 0.030905697047968972 319.3040483440487 107.86499550864743
114.05793322230467 0.9023311839336665 0.11999504198259545 0.031304964468087726 319.34726220580757 108.05552957026914
114.55922271422456 0.9181249004482225 0.12051825004192022 0.031708694755993916 319.39103987572025 108.24626818195779
115.06276741533233 0.9341940801257692 0.12104373941777956 0.03211680055819466 319.43538771853207 108.43723717819312
115.56857836952678 0.9505431045186121 0.12157152005727774 0.03252921280019039 319.4803119983698 108.62846053014631
116.07666668799425 0.9671763694172163 0.12210160195089093 0.0329458766314612 319.52581890090306 108.81996065570651
116.58704354957754 0.9840982910955716 0.12263399513265619 0.03336674848164112 319.57191455081056 109.01175866139997
117.09972020117219 1.0013133114194057 0.12316870968036144 0.03379179388021947 319.61860502579196 109.20387453421493
117.6147079581445 1.018825902109039 0.12370575571573635 0.034220985811045046 319.665896367996 109.39632729583799
118.13201820476763 1.0366405683596884 0.12424514340464367 0.034654303446805756 319.71379459347537 109.58913512819402
118.65166239467574 1.0547618519672362 0.124786882957272 0.03509173116444153 319.7623057001152 109.78231547673835
119.1736520513319 1.0731943340708536 0.12533098462832878 0.03553325776894778 319.81143567436516 109.97588513625891
119.69799876850902 1.091942637593242 0.12587745871723455 0.03597887587190263 319.86119049701983 110.16986032276024
120.2247142107842 1.1110114294401383 0.12642631556831785 0.0364285813915175 319.91157614823584 110.36425673415053
120.75381011404318 1.1304054225095126 0.12697756557101106 0.03688237314531295 319.96259861193124 110.55908960182325
121.28529828599612 1.1501293775452444 0.12753121916004703 0.037340252514367345 320.01426387967905 110.75437373477203
121.81919060670317 1.170188104866255 0.12808728681565676 0.03780222316649229 320.0665779541826 110.95012355752822
122.3554990291095 1.1905864659945242 0.12864577906376742 0.03826829082513572 320.1195468524065 111.14635314294667
122.8942355795899 1.2113293752006782 0.12920670647620197 0.038738463074442064 320.1731766084168 111.34307624066811
123.43541235850229 1.2324218009816648 0.12977007967087914 0.03921274919510109 320.2274732759783 111.54030630192683
123.97904154074979 1.253868767484517 0.1303359093120144 0.039691160024919014 320.28244293094554 111.73805650124966
124.52513537635116 1.2756753558850733 0.13090420611032172 0.04017370783945662 320.3380916734781 111.93633975549756
125.0737061910203 1.2978467057314074 0.13147498082321665 0.040660406249153125 320.39442563010806 112.13516874062219
125.62476638675345 1.3203880162574624 0.13204824425501951 0.0411512701104042 320.45145095567466 112.33455590644861
126.17832844242486 1.3433045476744134 0.13262400725716028 0.04164631544865438 320.50917383515315 112.53451348974421
126.73440491439106 1.3666016224435569 0.13320228072838386 0.04214555939135067 320.5676004853819 112.73505352579451
127.29300843710217 1.3902846265361852 0.1337830756149562 0.04264902010868332 320.6267371567101 112.93618785867129
127.85415172372275 1.4143590106823087 0.13436640291087193 0.04315671676210542 320.6865901345683 113.13792815034593
128.41784756675943 1.4388302916139037 0.13495227365806195 0.04366866945746106 320.74716574097977 113.34028588882109
128.98410883869792 1.463704053301176 0.13554069894660292 0.044184899204074535 320.80847033600816 113.54327239530743
129.55294849264752 1.4889859481893188 0.13613168991492694 0.044705427879359494 320.8705103191604 113.74689883066128
130.12437956299328 1.5146816984337523 0.13672525775003233 0.045230278194309026 320.93329213074395 113.95117620108736
130.69841516605794 1.5407970971364322 0.13732141368769554 0.045759473664477524 320.9968222531817 114.15611536321582
131.27506850077066 1.5673380095863996 0.13792016901268378 0.04629303858284395 321.06110721229453 114.36172702861168
131.85435284934488 1.594310374503142 0.13852153505896875 0.04683099799469259 321.1261535785485 114.56802176777813
132.43628157796417 1.6217202052862991 0.13912552320994084 0.04737337767532046 321.19196796827526 114.77501001370312
133.02086813747704 1.649573591271183 0.13973214489862507 0.047920204108584885 321.25855704486384 114.98270206499329
133.60812606409954 1.677876698991447 0.14034141160789707 0.048471504466982784 321.32592751992905 115.19110808863691
134.19806898012735 1.7066357734492317 0.1409533348707008 0.04902730659380028 321.3940861544583 115.40023812243
134.79071059465542 1.735857139394792 0.1415679262702667 0.049587638985657545 321.4630397599338 115.61010207709636
135.38606470430759 1.765547202614023 0.14218519744033087 0.05015253077531101 321.5327951994404 115.82070973813059
135.98414519397377 1.7957124512257534 0.14280516006535546 0.05072201171615709 321.60335938875033 116.03207076738913
136.5849660375573 1.8263594569889434 0.14342782588074965 0.05129611216759811 321.6747392973936 116.2441947044499
137.18854129872994 1.8574948766207107 0.14405320667309202 0.05187486307931577 321.7469419497099 116.45709096776251
137.79488513169747 1.8891254531230006 0.14468131428035358 0.052458295977408476 321.8199744258854 116.67076885560661
138.4040117819726 1.9212580171223674 0.14531216059212168 0.05304644295073868 321.89384386297337 116.88523754687367
139.01593558715874 1.9538994882186955 0.1459457575498253 0.053639336636055024 321.9685574559005 117.10050610168832
139.63067097774214 1.9870568763456986 0.14658211714696096 0.05423701020456817 322.04412245845845 117.31658346188128
140.24823247789422 2.0207372831421297 0.1472212514293199 0.05483949734882887 322.12054618427834 117.53347845132781
140.86863470628202 2.054947903335222 0.14786317249521583 0.05544683226873515 322.1978360077946 117.75119977615914
141.49189237689018 2.089696026133906 0.14850789249571425 0.056059049657237736 322.2759993651915 117.9697560248624
142.11802029985094 2.124989036633959 0.14915542363486212 0.05667618468727942 322.3550437553359 118.18915566827235
142.74703338228454 2.160834417234453 0.14980577816991927 0.05729827299781043 322.4349767406953 118.40940705946706
143.37894662914982 2.197239749065186 0.15045896841159018 0.05792535067925475 322.5158059482415 118.63051843357418
144.0137751441042 2.2342127134247254 0.1511150067242569 0.05855745425919512 322.5975390703387 118.8524979074943
144.65153413037373 2.2717610932297485 0.1517739055262133 0.05919462068842596 322.6801838656165 119.07535347954905
145.29223889163438 2.3098927744756037 0.15243567728990023 0.059836887325732446 322.76374815982706 119.29909302905779
145.9359048329014 2.3486157477064933 0.15310033454214125 0.06048429192247551 322.8482398466875 119.52372431585177
146.5825474614312 2.3879381094967096 0.1537678898643802 0.06113687260754852 322.9336668887039 119.74925497972691
147.23218238763252 2.427868063942045 0.1544383558929189 0.06179466787167365 323.0200373179805 119.97569253984241
147.88482532598798 2.468413924161291 0.1551117453191567 0.06245771655101273 323.1073592370106 120.20304439406998
148.54049209598693 2.50958411380712 0.15578807088983052 0.06312605781069869 323.1956408194502 120.43131781829497
149.1991986230681 2.5513871685868823 0.1564673454072563 0.06379973112806536 323.2848903108734 120.66051996567694
149.86096093957417 2.5938317377923834 0.1571495817295712 0.06447877627507226 323.3751160295091 120.89065786586893
150.5257951857157 2.636926585838425 0.157834792770977 0.06516323330061113 323.4663263669583 121.12173842420283
151.19371761054745 2.6806805938101017 0.1585229915019846 0.06585314251242269 323.55852978889226 121.35376842084096
151.86474457295452 2.725102761018284 0.15921419094965955 0.06654740082441801 323.651734835729 121.58675450989848
151.92750019746603 2.717439364280203 0.15951043220752353 0.007183766954392726 323.62557898010925 121.52137231533278
197.07081752710687 3.1358422894533273 0.310847427075583 0.011352882539834977 324.3963963963964 113.48145132253424
232.802880353629 3.600461374256855 0.43407749533108186 0.01556183303561845 325.0850850850851 106.87175538428696
262.80804565906806 4.131872929320462 0.5403375141225361 0.02051558142127216 325.77377377377377 100.87401811634629
288.48067676356254 4.720173700753983 0.634332064089663 0.02609924758221649 326.46246246246244 95.34046956905726
310.5851548484114 5.357678130589325 0.7181221403940808 0.03232480634568452 327.15115115115117 90.18547623425002
329.8181477841032 6.0376889524908135 0.7936980294405789 0.038983045343607164 327.83983983983984 85.35336639808911
346.82005045413626 6.754980901213227 0.8630859810754072 0.045771722843607365 328.5285285285285 80.79425348906773
362.1391049774927 7.505613009271865 0.9281926546997102 0.05232565031795278 329.21721721721724 76.46451139336352
376.2419923671547 8.286734907018172 0.9908306193609315 0.05821381809626569 329.9059059059059 72.3258651223423
389.5422487895359 9.096446566509012 1.0528388589984912 0.06293460994211386 330.5945945945946 68.34394155028997
402.43805707400213 9.93373684819613 1.1162846288530217 0.0659152264923431 331.28328328328325 64.48654764362885
415.3636012195117 10.79852568045853 1.1837963062827952 0.06652650803416965 331.971971971972 60.721590556842166
428.872297003344 11.691862639711077 1.2591779852378948 0.06413287861638817 332.66066066066065 57.01421741382999
443.802460129675 12.616413630842139 1.348716704106081 0.10921056207820556 333.3493493493493 53.32212166554389
450.97527335781285 13.562706201435908 1.3879645874099118 0.27832713440377166 334.03803803803805 49.72916650704068
453.8333616105134 14.524914904736656 1.3971027618734893 0.3398556249574094 334.7267267267267 46.2701941801956
456.6545124541452 15.49259312410359 1.405984130235588 0.3453436414880975 335.4154154154154 43.01525892674271
459.4537086920861 16.46576388931239 1.4146848507565064 0.34937765273634147 336.1041041041041 39.936265666383974
462.2412948947222 17.444450276456337 1.4232583035456274 0.3523538309096099 336.7927927927928 37.01083283185156
465.02459284221027 18.4286754079435 1.43174284511614 0.3545531399356636 337.48148148148147 34.22080025996742
467.8088955581735 19.418462452494374 1.4401666239439863 0.35617653593327336 338.1701701701702 31.551201307648594
470.5980999768592 20.413834625138144 1.4485506742766974 0.35736916164279275 338.85885885885887 28.989534512529044
