M[M_sun], R[km], Lambda[1], P_c[MeV/fm^3], rho_c[fm^-3]
0.24162668629717493 15.618656898711224 2160425.4255784233 3.5677272577965504 0.1711233750220791
0.25363396849172304 15.277519826591758 1723477.8942601776 3.784638555399332 0.17388591634469192
0.26601835929228596 14.981762514578888 1383563.311355594 4.011020894277418 0.17666206191410136
0.27878287061734824 14.724110643861414 1117097.3337059862 4.247135994300242 0.1794506453554391
0.2919255404345552 14.49912836696892 906521.8128179138 4.493606321382047 0.182258183454755
0.3054483987305756 14.301980037502629 739268.9268784387 4.75057463490715 0.18508013095347864
0.3193521052902905 14.128923884091744 605640.4574520119 5.0187440618504455 0.18792356500530477
0.33363692562468467 13.976740530165719 498251.0679930115 5.298310031806327 0.1907845493733857
0.34830249540173697 13.842860503482445 411522.9099974137 5.59003385262959 0.19367004373993177
0.363350030380626 13.724809439391162 341117.6915106048 5.89404137596179 0.19657434690672146
0.3787878728330612 13.620799944955664 283731.8982721078 6.211213404888879 0.19950549297874018
0.39460302352167437 13.529251588768602 236799.58370919796 6.5418388211355865 0.20246022196354735
0.41081160754500445 13.448641063934089 198212.244842439 6.886556688220295 0.2054411771061089
0.42739999394762634 13.377785490486483 166404.18157936758 7.246099064976736 0.2084519352647966
0.44437778151718244 13.315608318251849 140084.64253052892 7.620769809703325 0.2114887650513906
0.4617411548047335 13.261189442212718 118222.7927124758 8.011427660166177 0.2145564386890851
0.4794869749182461 13.213742550657589 100038.4525852466 8.41881712449761 0.217657264924603
0.4976223649903397 13.172528201693645 84839.34025322562 8.84343966642995 0.22078959505774862
0.5161385338343772 13.13688070908422 71400.59182556337 9.286046689751604 0.22395512272544188
0.5350371780049581 13.106280677598658 61431.52860073403 9.747577254388506 0.22715758838941116
0.5543221535408349 13.080202992961627 52439.383877011394 10.228838176483759 0.23039833854097835
0.5739797283213522 13.058177977522696 44850.44570039088 10.730386457702288 0.23367517438966975
0.5940171078949319 13.039840256915042 38435.91171346135 11.253293948101792 0.2369921250092446
0.6144279062970893 13.024761374548204 32995.340675891886 11.798576176187474 0.24035184500472911
0.6352050393964076 13.012655132920775 28377.14379736991 12.367208570706895 0.24375596090932378
0.6563484660967953 13.003170785858565 24450.05215446899 12.959997083553363 0.247203758473751
0.6778600987248472 12.996120566375666 21094.63663837555 13.578032495887769 0.250697399362728
0.699722111101685 12.991151288929629 18230.853894448534 14.222619682311718 0.2542407873799948
0.7219293793294693 12.98806199738664 15782.094701432203 14.894943663110597 0.2578358982269511
0.7444908854251442 12.986660389586818 13680.628270022265 15.596187457018182 0.26148418822620423
0.7673841470745217 12.986725636643815 11877.654446368231 16.327306898193015 0.26518447474982254
0.7906016562148804 12.988079174476344 10326.551349493995 17.09005944296144 0.2689429363882053
0.814149105766045 12.990584947122613 8989.989361703718 17.885893985816267 0.2727619936053099
0.8380024936150471 12.994031413193467 7836.991764370965 18.71633710679026 0.27664420258514166
0.8621582366372571 12.998285030285592 6840.630219894466 19.58243862065107 0.28058743108509404
0.8866020733171025 13.00319942023965 5978.816959700119 20.48636310569035 0.28459883560335725
0.9113320641584864 13.008685073783512 5231.799638015927 21.429930507565906 0.2886817147305443
0.9363290877490508 13.014561460117235 4583.880005136156 22.414873226751375 0.29283801805709525
0.9615741013250514 13.020743919388101 4020.899834901104 23.44271024300981 0.2970675171204379
0.9870721754902345 13.027123306136433 3531.2221383553738 24.516094399932115 0.3013782578942702
1.012786502999481 13.033578992510273 3105.2101877605087 25.637248770826815 0.30577399475799505
1.038714870291141 13.040020401537326 2733.4130493188504 26.807571320952043 0.31025185208275224
1.064845635388339 13.046365933785252 2396.4451891216177 28.03039453244717 0.3148224204003909
1.0911471438966065 13.05248520126156 2125.099516459914 29.30812914920479 0.31948863971767416
1.1176179125269863 13.058336941148156 1876.8777027019946 30.642824374009688 0.3242503965627296
1.1442263198313876 13.063804792326417 1659.513485754436 32.03830543253735 0.3291187434718432
1.170958743233111 13.068829932394754 1468.845333953157 33.49659788092849 0.33409193889124267
1.197787551191218 13.073297816992437 1301.5329424491167 35.02172914262688 0.3391803623366454
1.224709622868207 13.077194073995134 1154.421862614061 36.61645623015105 0.34438540341914425
1.2516857267586452 13.080391808484329 1025.0722691617286 38.28491883187419 0.3497160312432809
1.2786994745097071 13.08285574707747 911.1153692869234 40.030255658272516 0.35517425415140336
1.305721140677772 13.084473167618025 810.7158727367237 41.85748060843633 0.360771969764161
1.3327436770274468 13.085253877310333 722.0888558038492 43.769484767134365 0.36650795032188094
1.3597245286448314 13.08506200479392 643.9044188771956 45.772026174277904 0.37239596881811793
1.3866358938550245 13.083853972616176 574.7127878639864 47.8698719028284 0.3784429221276991
1.4134653640597075 13.08159470588752 513.4412488495888 50.06710510008393 0.38465112249454314
1.4401894090572294 13.078241024185017 459.228955094053 52.370172201072954 0.3910340010797402
1.4667570987156597 13.073670802188087 411.146702686667 54.78483434544692 0.39759995353712346
1.4931572004856586 13.067883439024017 368.4570563764064 57.31724150555968 0.4043579739923733
1.5193580550348864 13.060809491614629 330.58402329167075 59.97397819326951 0.41131776116906327
1.5453316474349377 13.052394089440188 296.8677044441533 62.76210254322355 0.4184897763116835
1.5710407090026688 13.0425928861751 266.88878792349834 65.68918913259111 0.42588530582379636
1.596458952378554 13.031350799732852 240.1755634113446 68.76337591576396 0.4335165291731919
1.6215536859080164 13.018626524095525 216.3991065125573 71.99341569955942 0.441396592683434
1.6462858849775388 13.00436602634031 195.1621647404639 75.38873263776992 0.4495396899059738
1.670649569251504 12.988542610875045 176.19859564583402 78.95948428430671 0.4579611493501503
1.6945814008770375 12.971095445980568 159.23516998252828 82.7159098992862 0.4666745742386408
1.718073854355854 12.951995851276003 144.07538949350854 86.6695696379004 0.4756968952643381
1.7410760129943665 12.931188676126817 130.501247540307 90.83370609484427 0.48504942691171493
1.763563332336566 12.908647850022769 118.33502317873406 95.22017351633679 0.4947454071559182
1.7855009753669124 12.884328759208767 107.41763206869045 99.84474412991636 0.5048108988199675
1.8068466336514606 12.85817727643824 97.62720657775897 104.72246164693915 0.5152660791439768
1.8275961756848558 12.830228350158825 88.82644508507335 109.86940341947516 0.5261321031226517
1.8476752017561626 12.800334185058615 80.92081101393455 115.30439131322004 0.537437130263362
1.8671036566575954 12.768614389730367 73.79696820098515 121.04684357400316 0.5492078619314057
1.8857934025160894 12.73488718040309 67.38645211629564 127.11790428265755 0.5614734624362957
1.9037475535656017 12.699222371707215 61.60321818014416 133.54061858489717 0.5742657714295779
1.9209190620874306 12.661544225211355 56.38799632697617 140.33953262094835 0.5876174649752065
1.937288985173604 12.621894411660572 51.683391778097246 147.54158330605995 0.601564757899785
1.9528406514589827 12.580238189922 47.42549201401095 155.17723173634386 0.6161507191093819
1.9674959630695474 12.536460571444575 43.58280968119328 163.27688070485814 0.6314123924112506
1.9812634647669969 12.490640220267599 40.101529777836696 171.87670279389712 0.6474001569966605
1.9941151989541357 12.442775487471755 36.94554315456485 181.01455329439787 0.6641629977013689
2.0059903916042265 12.39275057073088 34.09125977410521 190.7318797054515 0.6817542576429715
2.0168976779564023 12.340667626570259 31.50225338361811 201.07428267729924 0.7002326032876265
2.0268020499609096 12.286484407190539 29.151087661428775 212.09197652629786 0.71966253312043
2.035675806135683 12.230205855004257 27.014665422598558 223.83960813145868 0.7401126699448336
2.0434988973206405 12.171838071349622 25.07497796908152 236.37717288394794 0.7616575298128347
2.0502415017872577 12.111353609004636 23.311616114527023 249.7710893528852 0.7843795925193501
2.0558733079684024 12.048761076934566 21.706987613581333 264.0945777909001 0.8083689221867827
2.06040522674019 11.984140915592961 20.246973947766485 279.4280598315076 0.8337226300522348
2.0638070253119234 11.917482515619715 18.91708875631647 295.8607996285058 0.8605481206273028
2.0660487983464026 11.848782092061654 17.706552463634313 313.4908540228739 0.8889605051622814
2.0671333266749925 11.778106026019529 16.604432072569164 332.4282281173645 0.9190901696988981
