M[M_sun], R[km], Lambda[1], P_c[MeV/fm^3], rho_c[fm^-3]
0.24162668629717493 15.618656898711224 2160425.4255784233 3.5677272577965504 0.1711233750220791
0.2536421163035418 15.2773496175086 1723138.9758067443 3.7848048614587677 0.1738879892694941
0.2660381738788009 14.98128102885735 1383081.9873735402 4.011370490362579 0.17666628657647304
0.2788117932126789 14.723612510856293 1116467.469058635 4.24768069498345 0.17945696306251788
0.2919650548724016 14.498521875905393 906013.1563393394 4.49436040677576 0.18226658037062807
0.30549956395671174 14.301296964678915 738738.4989870591 4.751563694335537 0.18509081468295352
0.31941529502166094 14.128217691097108 605136.8905358929 5.019975367016849 0.18793634027164635
0.3337121221339226 13.976007717118526 497728.57170532795 5.299815981431046 0.1907997117872843
0.3483922159261513 13.842049478188796 411052.3768904026 5.591818192345149 0.19368730771753476
0.3634537284261532 13.72408335964775 340693.32973770984 5.896144171763011 0.19659409680988557
0.3789053491930985 13.620073784844239 283340.2764167566 6.213660082585606 0.19952780373334258
0.39473597938965166 13.52853877502292 233315.35699911445 6.544626826173397 0.20248466900131862
0.4109598501238508 13.44792984503483 197898.50204432485 6.88973981413752 0.20546828594216696
0.4275644594326634 13.377149130437848 166108.45096927998 7.2497071564284665 0.20848178408070217
0.44455935929066503 13.314988171372281 139825.81748178453 7.624792881159247 0.21152079128700618
0.46193896039808624 13.26062245846375 118005.25513335493 8.015935845491612 0.21459131314728866
0.4797026396359133 13.213232664298891 99829.68477423798 8.423845547228114 0.21769507163393034
0.49785661272238146 13.172040149022191 84662.07974303405 8.848969775211975 0.22082963540816417
0.5163938836453775 13.136439713418373 71955.09684971401 9.292167928650814 0.2239982166289071
0.5353106721498977 13.105875883073004 61291.69987061286 9.754331090155084 0.22720382872408273
0.5546132746087662 13.07985719619134 52311.200045177975 10.23626859392467 0.23044782222251958
0.5742949322195476 13.057874174527086 44740.88313404907 10.738461166302077 0.23372701652011207
0.5943500606871243 13.039549173091583 38335.61922598771 11.262134307197503 0.2370473597328524
0.6147834084011558 13.024531979798464 32911.10669320432 11.808234362917798 0.24041058289437822
0.6355831202018926 13.012453983976132 28301.41360563066 12.377740015389236 0.2438183183747524
0.6567545194399038 13.003044365632777 24377.650865523832 12.97135342727301 0.24726866667756459
0.6782841842878032 12.995984968778146 21033.843257496632 13.590374897856615 0.2507661185501632
0.7001701163937079 12.991068679942227 18041.62293215092 14.236014258958651 0.2543134536120269
0.7224019000766965 12.987994792963763 15734.465984454662 14.909460776405936 0.25791265567721083
0.7449866719409197 12.986648920113156 13638.57287466052 15.611760430172318 0.26156378693500687
0.7679046155661274 12.986759543422105 11839.567578989958 16.344146476125257 0.26526841582230276
0.7911466225199824 12.98813558822671 10293.452695966891 17.10825005961202 0.2690313911971175
0.8147184253437262 12.990662763226787 8959.099419040052 17.90552566964723 0.2728551445413552
0.8386010930503351 12.994117222788276 7809.715342067136 18.737356821875363 0.27674092256374044
0.8627771989029103 12.998382935026092 6817.070010519234 19.60505101530352 0.28068887863900854
0.8872495769304056 13.00333066853038 5957.573253617341 20.510710913199215 0.2847055314710483
0.9120077082206237 13.008843516071849 5213.404992311764 21.456129895293248 0.28879389292179103
0.9370246325064682 13.014715130665062 4566.908782034217 22.442815109782778 0.292954072731512
0.9623008191047192 13.020921276724149 4006.171331777737 23.47274499034094 0.29718949715354254
0.9878232724956901 13.027320616106364 3517.891379537108 24.548363239604484 0.3015064466755511
1.0135633580256318 13.033771474501664 3093.433897261368 25.671639079279878 0.30590675624843805
1.0395247727805992 13.040220687146437 2722.556317126763 26.84447858965021 0.3103912810980188
1.0656724638882378 13.04655041831815 2399.2681202353915 28.07000355908349 0.3149689514132435
1.0920014618983718 13.052683466212017 2116.5525808814223 29.350299641151786 0.31964042759586936
1.1184979463140277 13.058518090516015 1869.3825587686474 30.688059351459394 0.3244099658768369
1.1451256451391332 13.063976873346306 1652.8090792426408 32.08674671042919 0.3292860609940042
1.1718856163246067 13.068993207439409 1462.750467438046 33.548231044625325 0.33426594797650294
1.1987393379109859 13.073448328119348 1295.9691576548068 35.07708697523793 0.33936341568154776
1.22568272604627 13.077320112821841 1149.5738039314897 36.67537820838467 0.3445754765999997
1.2526759328852173 13.080481697354232 1020.6321996576221 38.348082216019364 0.3499161189974623
1.2797150468675964 13.08293330237216 907.0916454635196 40.09749592547297 0.35538227307459963
1.306757735481501 13.084521736584193 807.1461616911363 41.92907542650387 0.36098841174574653
1.333792920700855 13.08522900842361 718.8784569803609 43.84623599691549 0.36673609466960355
1.36080062748159 13.08503296628274 640.9365869855908 45.85377313685709 0.37263367788081275
1.3877288808977457 13.083784360847247 572.0761562142391 47.956963401588084 0.3786908126469167
1.4145829885843486 13.081496237395426 511.0649118005672 50.16049507249672 0.3849128114890315
1.4413062875969165 13.078046959183208 457.0699106949141 52.46971253334768 0.39130730153762694
1.4678973844432501 13.073457611945818 409.2035832331915 54.8909653132943 0.3978856390153303
1.4943058673229286 13.06759722163979 366.7107996627533 57.43043902411458 0.4046568778077072
1.520516229119121 13.06045972867204 328.9959797139257 60.09475700564242 0.4116307813015814
1.5464988098168635 13.051981388109962 295.43327185085144 62.89101972697628 0.41881788079370474
1.5722143313217758 13.042108224929509 265.5978884671955 65.82684795951356 0.42622953866661983
1.5976377828520054 13.030790004638765 239.03956998990918 68.91043010463537 0.43387801688971106
1.6227187757114756 13.017949520790843 215.34004282461086 72.15057410644735 0.4417765514717567
1.647476930075641 13.003647466008925 194.19435557065088 75.55676443394444 0.4499394335670025
1.671825895078841 12.9877237477146 175.32296753847334 79.13901858429853 0.4583812373384859
1.695764116786536 12.970186376421944 158.44600635318133 82.90734938702595 0.4671145016239045
1.7192282456567765 12.950953081376129 143.35801056787 86.87456863936671 0.47616111714123166
1.7422313051117715 12.93006048085173 129.84377923706623 91.05234998709592 0.4855358290920511
1.76471235906866 12.90742123871946 117.7412854559936 95.45456576259679 0.49525971608145797
1.7866405387078919 12.882999266900747 106.87469273819991 100.09508873590698 0.5053511316188021
1.8079802722160687 12.856754895493122 97.13693299431253 104.99032590104633 0.5158353379972714
1.8286926610598 12.828636178811571 88.37591477479467 110.15679044582522 0.5267347992480801
1.8487741313507613 12.798682961631956 80.50537039533599 115.61202219873748 0.5380725895175836
1.8681634845456003 12.76679178138499 73.42134861332609 121.37640795777214 0.5498787342448862
1.8868367688520407 12.732957140806691 67.04348895187319 127.47124997366772 0.5621826244187584
1.9047623940172824 12.697156027625415 61.28826942710191 133.91910083475602 0.5750139940312969
1.9219083983153735 12.659359271189949 56.103882146767525 140.74535463821698 0.5884081605911594
1.9382261668683967 12.61948677616967 51.41917461579322 147.97780195011103 0.6024038461648482
1.9537374048638045 12.577695683294358 47.18579040023033 155.64507805034836 0.6170373347064967
1.9683483642571107 12.533751505674406 43.36125581761344 163.78064598388548 0.632355647982873
1.982071569530403 12.487773656189049 39.89909831272922 172.4180844610354 0.6483997590515844
1.9948653884219 12.439714277595087 36.76547116165907 181.5969716145823 0.665223880747272
2.0067007279375813 12.389561238600958 33.92212721811319 191.35911118175298 0.6828818391904289
2.0175599350788076 12.337319965948693 31.344606690852206 201.75049287408294 0.7014328096842819
2.027403346344473 12.282954855990695 29.006331316166555 212.821198175447 0.7209399980403526
2.036221475103925 12.22650890248503 26.883222784318466 224.626299595772 0.7414724848693668
2.043972899098958 12.167936957033305 24.95438891526214 237.22726717954157 0.7631085290631475
2.0506409227381353 12.107254660579192 23.199279187820625 250.69060906745995 0.7859296949108968
2.056216812921204 12.044507867238321 21.603762349743384 265.0894940647636 0.8100245206699087
2.060678444441704 11.97970255724908 20.15152807969453 280.50580760207583 0.8354933459875132
2.063997712586175 11.912843180461559 18.83073628872517 297.02872943465337 0.8624415425826827
2.0661620501579 11.843951746557579 17.626708828457836 314.75873257591707 0.8909901293531849
2.0671652403233307 11.77308453808277 16.530531750733164 333.80530723309187 0.9212655017330978
