M[M_sun], R[km], Lambda[1], P_c[MeV/fm^3], rho_c[fm^-3]
0.24162668629717493 15.618656898711224 2160425.4255784233 3.5677272577965504 0.1711233750220791
0.253641952118695 15.277351026074145 1723111.491039047 3.7848017255495843 0.17388795018189893
0.26603785907314437 14.981298376270203 1382962.0111198707 4.011363898088619 0.17666620691273272
0.2788111118018326 14.723612485124418 1116571.7245604636 4.247670423351812 0.1794568439270699
0.2919651359403734 14.498490249312528 905951.9600489994 4.494346186286162 0.182266422022176
0.30549894087078516 14.301319965276289 738672.478170101 4.751545042177553 0.1850906132040491
0.3194138797823772 14.128234286253223 605155.7940531987 5.019952145831365 0.18793609934288438
0.3337104506498253 13.976070046930015 497732.124004167 5.299787579917182 0.19079942583116632
0.3483903515731375 13.84211001986469 411052.489102966 5.591784539629913 0.1936869821182573
0.3634519911914693 13.724061062518327 340688.53780606156 5.896104511851033 0.19659372431559932
0.3789033679372032 13.620085572268605 283354.4997094921 6.213613935593933 0.19952738292834313
0.394733458471256 13.52853030332772 236440.01826787376 6.544574240052803 0.20248420789208138
0.41095667974069733 13.447949312164084 197901.65752763255 6.889679773796768 0.20546777461343016
0.42756369439262354 13.377118487258448 166114.75602226914 7.249639098528082 0.20848122105513403
0.4445562309521867 13.315013684391381 139838.24424918162 7.624716993839505 0.21152018717514567
0.46193581839137976 13.260629630306884 118007.67404097746 8.01585080520474 0.2145906552919176
0.479697927796102 13.213218391310898 99834.47870049987 8.423750690930083 0.21769435844717583
0.49785263489454007 13.172050683948825 84666.80654587467 8.84886545268152 0.2208288800684701
0.5163880418949583 13.136465763644821 71956.8007250388 9.292052451768399 0.22399740366445575
0.5353052546816115 13.105886844037453 61293.60256122964 9.75420367606301 0.22720295637976418
0.5546081885003732 13.079876393732539 52315.90359902949 10.23612841220023 0.2304468886669199
0.5742891394226862 13.057879191905585 44741.94514595024 10.738308826048883 0.23372603844849746
0.5943435625296138 13.039575740644986 38339.4467983605 11.261967517647763 0.23704631762872735
0.6147780026541735 13.024541277923655 32911.770764707326 11.808052138895158 0.24040947466828652
0.635577057093591 13.012451000688927 28302.899261091894 12.377541310260586 0.24381714182694114
0.6567469840323562 13.003040202334157 24378.414073389347 12.971139153514743 0.24726744197662942
0.6782762248279383 12.995987680426618 21035.324258874713 13.590142013033004 0.2507648219098589
0.7001613996989831 12.991073100584657 18178.79093678709 14.235761514556483 0.25431208246130993
0.7223928257956082 12.98800899886331 15735.861693018895 14.909186843700077 0.2579112072917352
0.7449779643818224 12.98665366433908 13639.397166435781 15.611466567574727 0.26156228490433475
0.7678948650419382 12.986757085835302 11839.976689064806 16.343828704548116 0.2652668318106906
0.7911363338152051 12.988128569594327 10293.345520397841 17.1079067844574 0.2690297219662833
0.814707445276534 12.990661056013144 8959.790923876864 17.905155190606962 0.27285338664479963
0.8385858604414842 12.994118568844334 7810.161188824429 18.736960782077777 0.276739102965787
0.8627637372256117 12.998390845860376 6817.324961425626 19.604624265869877 0.2806869640834366
0.8872358808669167 13.003336839676205 5957.6517031151325 20.510251400503442 0.2847035178151669
0.9119949860780101 13.008827446033644 5213.467798537519 21.455635425094908 0.2887917757435939
0.9370111905325307 13.014716695129165 4567.310630624479 22.442287741708327 0.2929518823447686
0.9622866793845664 13.020917732280383 4006.4636316702267 23.47217810713884 0.2971871948724214
0.9878088452780389 13.027308801658613 3518.1447843666256 24.547754173427418 0.3015040271447669
1.0135487876897873 13.03377111927212 3093.6022769939264 25.670990187531626 0.30590425205021204
1.0395094081595926 13.040221955391791 2722.7302707141594 26.843781940576307 0.3103886492832629
1.0656597887885015 13.046560464706937 2399.3239689103602 28.069255892225875 0.3149661854684267
1.0919843312354753 13.05267758229955 2116.7808474419758 29.349503606105205 0.3196375623584697
1.1184809151862523 13.05851543462204 1869.504670712169 30.68720544575377 0.3244069536691286
1.145107860910443 13.063969297742236 1652.9153121300915 32.08583772072788 0.32928293779492235
1.1718688445528156 13.068990990894143 1462.8810135659878 33.54725631020992 0.3342626630210237
1.1987222354650906 13.073447747284813 1296.0592037301358 35.07604189638617 0.3393599598891065
1.2256648772038263 13.077316284106624 1149.5963313152631 36.674265817463336 0.34457188819908185
1.2526580153590283 13.08048125771476 1020.706047412364 38.34688971645819 0.3499123414202744
1.2796964365664891 13.082930664205287 907.1893471668432 40.096226425476964 0.35537834566572457
1.3067376318250294 13.084514726964676 807.1649184312298 41.927723679338506 0.3609843252092768
1.3337728305602303 13.085234002681176 718.9082274581073 43.844786849863134 0.3667317870551203
1.3607780809416887 13.085040568605756 640.9440586114739 45.85222962592689 0.3726291895606978
1.3877081533106495 13.083782845457613 572.1301498943518 47.955318935126215 0.37868613196452083
1.4145620639589547 13.0814990667343 511.11102340324294 50.158731621690464 0.38490787010553607
1.4412837783459689 13.078053448059425 457.10668452067705 52.46783289718915 0.3913021407609744
1.4678766392162714 13.073460964185626 409.25671261944217 54.88896117046447 0.3978802442232696
1.4942841483500786 13.067604947943233 366.7370034197338 57.42830137933033 0.4046512332477381
1.5204945575605062 13.060465690630647 329.0231839704297 60.09247612932237 0.4116248699981505
1.5464775523661785 13.05198779331899 295.4659313114921 62.888585088886295 0.4188116844462034
1.5721919896375576 13.042117948678676 265.619269850519 65.82424815572348 0.4262230375372012
1.597615373447814 13.030800708106439 239.05840456181969 68.90765277703333 0.43387118967981936
1.6226959997123886 13.017961161291927 215.3639265670718 72.14760585396864 0.4417693751861378
1.6474539921083686 13.003662631592327 194.21281529175408 75.55359071456566 0.4499318833638122
1.6718038142510752 12.987740606485811 175.34100504698316 79.13564017492729 0.4583733555480743
1.695741553977895 12.97020238976605 158.45835895012738 82.90373333303812 0.46710619194237213
1.7192057107492948 12.950971882675947 143.375769774253 86.87069633031 0.4761523482664305
1.7422095214953794 12.930081157079929 129.86491524838772 91.04821981099967 0.48552664097050013
1.7646894948333962 12.907445852590582 117.75094365633647 95.45013794100294 0.4952500004521966
1.7866184884552958 12.883024404042311 106.88668994019483 100.0903594136641 0.5053409259465778
1.8079587734369016 12.856783051685142 97.1431486718706 104.98527055940147 0.5158246029686923
1.8286717398883536 12.828664548334798 88.38450471986765 110.15136095632529 0.5267234127483963
1.8487548406038965 12.798713256930652 80.51575303257587 115.60621004688696 0.5380605836174799
1.8681433715035272 12.766826517241869 73.42622241458075 121.37018118575567 0.549866058818918
1.8868169986831984 12.732993404578764 67.04922586210049 127.4645736300003 0.5621692250502894
1.9047435613510526 12.69719552676976 61.29654977352011 133.91196120893807 0.5749998981930982
1.9218896864542094 12.659401269353678 56.11004626022586 140.73768620866048 0.588393219574227
1.9382079284184646 12.619531077554758 51.423448722559684 147.96955880589636 0.6023879900668293
1.9537111150048403 12.57771633553017 47.194756575398394 155.6362369087422 0.6170205798581422
1.9683326141856783 12.53380241716829 43.365917900103135 163.77113322292823 0.6323378476453759
1.9820555356612382 12.487827877271439 39.901149965786786 172.407852815911 0.6483808674375672
1.9948508630290762 12.439770181167788 36.76803757145576 181.58596394474395 0.6652038301240315
2.006687327483504 12.389619496041433 33.92563634104273 191.34725602332605 0.6828605270299436
2.017548424720302 12.337383543834394 31.346841450064776 201.73771139525354 0.7014101238201487
2.0273917528559355 12.283022168195114 29.00831451026774 212.8074355424146 0.7209159211372546
2.0362109537593067 12.226579482411925 26.886027527161584 224.61142846013985 0.741446779757395
2.0439640055960546 12.168010401070555 24.956134920939267 237.21121510986302 0.7630811588097774
2.0506334546369245 12.107331249272095 23.20142303331128 250.67322528399 0.7859003897813778
2.05620959819805 12.044589195355806 21.605516424456283 265.0706839227899 0.8099932195008183
2.060674275171063 11.979786428347394 20.15433101042603 280.4854647778705 0.8354599790210656
2.063994852821926 11.912930902935567 18.832482986913476 297.00665923019517 0.8624057848968966
2.066160508370098 11.844043138323954 17.628489971919397 314.7347578202875 0.8909517504848934
2.0671642095289733 11.773179734172988 16.53235270568141 333.7792698440289 0.9212243777569249
