M[M_sun], R[km], Lambda[1], P_c[MeV/fm^3], rho_c[fm^-3]
0.24162668629717493 15.618656898711224 2160425.4255784233 3.5677272577965504 0.1711233750220791
0.25364102429041785 15.277355478734192 1723219.6352344356 3.7847814396669053 0.17388769732815756
0.26603555786728117 14.981360389427472 1383099.5970388907 4.011321253515321 0.17666569157823153
0.27880810073685247 14.723645561022625 1116555.2654096656 4.247603977768154 0.17945607325843083
0.2919603064182777 14.498547400324572 906036.8356988991 4.494254196536317 0.18226539769496175
0.3054928065991301 14.30139076224023 738829.5182169756 4.751424385279821 0.18508930987927644
0.3194062324772936 14.128306448678119 605263.4986216885 5.019801933448419 0.18793454083143468
0.3337013239246929 13.976129759851597 497804.5688467987 5.29960385795985 0.19079757605590586
0.34837818920709135 13.842227769454404 411119.8197785205 5.5915668498550355 0.19368487590980096
0.3634391803102466 13.724150100114384 340760.3426972697 5.8958479642652595 0.1965913147663825
0.3788896204393909 13.620158608831652 283398.0213746124 6.213315426298175 0.19952466088299442
0.3947176842216429 13.528626574408573 236487.18730797723 6.5442340794388505 0.2024812251430315
0.41093868154808766 13.44805660695842 197944.34754993627 6.889291396034554 0.20546446702543075
0.42754150009232755 13.377230962281656 166149.9863697554 7.249198859970831 0.20847757907437336
0.44453477823398585 13.315061400399776 139867.72772372648 7.62422611168662 0.2115162794375725
0.4619110727972724 13.260734094887985 118036.79510966998 8.015300718566925 0.21458639992704814
0.47967105945210736 13.213306648627594 99861.63399786297 8.42313711133475 0.21768974518638745
0.4978236410092122 13.172140313232797 84685.85470485371 8.848190642840668 0.22082399415689827
0.5163575811710451 13.136513564871368 71973.75701238374 9.29130549283577 0.22399214502700257
0.5352713956178667 13.105941849646088 61309.785699974454 9.75337950469348 0.22719731366630905
0.5545732500155445 13.07989527841122 52331.58910739503 10.235221657433284 0.23044085003389822
0.5742506136310237 13.057917145980388 44756.57437378314 10.737323427905542 0.23371971188717908
0.5943030255867058 13.039612057743406 38352.100072075074 11.260888659596539 0.23703957690409996
0.6147342976326964 13.02456148522102 32923.11927499006 11.80687344914738 0.2404023062680196
0.6355316420465592 13.012463782428323 28312.92071088908 12.376256019575486 0.24380953152542229
0.6566957147460445 13.003077456805919 24386.274772160235 12.969753164045622 0.24725952022917566
0.6782251875801493 12.996008078232917 21042.950241736136 13.58863564689147 0.25075643486676247
0.70010510075061 12.991090799720798 18184.869206744443 14.234126696912986 0.2543032134958067
0.7223340744521317 12.988009649101336 15740.566492904312 14.90741498098795 0.2579018387856675
0.744916565584384 12.986658734350074 13644.067892263827 15.609565799278478 0.2615525694376338
0.7678312419119402 12.986760161061914 11844.626785229668 16.34177329520547 0.26525658611063196
0.7910700097288352 12.98812721439267 10228.594888874539 17.105686421088112 0.2690189250910966
0.8146374332533406 12.990647972066686 8963.643483217165 17.902758876605194 0.2728420163062059
0.8385134346735599 12.99411794988103 7813.320024417273 18.734399144977612 0.2767273335687384
0.8626897529169233 12.998375369770665 6820.235426259893 19.601864005057276 0.2806745805339758
0.8871583547589287 13.003321058227034 5960.531058162621 20.5072792344853 0.28469049332283375
0.9119126760362964 13.008815975304142 5215.713110949266 21.452437163043644 0.2887780817116654
0.9369265444435172 13.014696650341927 4569.2749312520355 22.438876704638556 0.29293771483873077
0.9621979266541326 13.020899243699413 4008.3576163510343 23.46851149856988 0.2971723036855673
0.9877171846817258 13.02728343881922 3519.866735397618 24.54381473979842 0.30148837764509584
1.0134535530712612 13.033750222984546 3094.725420263115 25.66679317547984 0.30588805497240534
1.0394105394492013 13.040202624926863 2724.0693621124506 26.839276053019727 0.31037162685144726
1.0655590704323175 13.046532746180617 2400.4811171614165 28.064420043350474 0.31494829556064835
1.0918821095880384 13.052653380856578 2117.8051232999314 29.344354931969846 0.3196190302928844
1.118373377543718 13.058493627694396 1870.4461914875155 30.68168249199902 0.3243874710918802
1.1449986908414378 13.063950045328147 1653.6767945382182 32.07995850965903 0.3292627374047688
1.171755718024197 13.068964696636673 1463.6082143717097 33.54095189761971 0.3342414165005826
1.1986052046243034 13.073427892073488 1296.77430714083 35.069282535981635 0.33933760851671546
1.2255463742774109 13.077295959602603 1150.2127512225436 36.667071120211396 0.3445486792194623
1.2525358189317481 13.080466764832343 1021.2569099752124 38.339176926778705 0.3498879089933814
1.2795724550291245 13.082917781191467 907.6793525285605 40.08801564453537 0.35535294425253594
1.3066113737132394 13.084508621147346 807.6406801876083 41.918980976724065 0.3609578946947597
1.3336432928700115 13.085233372116738 719.3712003092846 43.83541423449749 0.36670392679509384
1.3606481938918766 13.085036155578155 641.3340839914529 45.842246731681406 0.3726001606603056
1.3875742938263116 13.083794071855918 572.4355970764614 47.94468313476132 0.3786558590433713
1.4144266462706685 13.081514201963921 511.3941548019256 50.14732632686347 0.38487591121254133
1.441153593884401 13.07809137545615 457.3830007474289 52.455676208610676 0.39126876304885555
1.4677381120514612 13.073491525556005 409.4745475563215 54.87599927636605 0.3978453531355025
1.4941443032754713 13.06763566321258 366.9612890255504 57.414476109941084 0.4046147269194968
1.5203532435649425 13.060507442981736 329.21536458523303 60.07772456676685 0.4115866386562847
1.5463343849628932 13.052041165223258 295.63672692275077 62.87283913816556 0.4187716097497606
1.5720493678229557 13.042174499057277 265.77785602447716 65.80743407244671 0.42618099185211705
1.597471506460112 13.03086920191762 239.20033374893964 68.88969064703956 0.4338270352806478
1.6225583762892326 13.018068039769192 215.4958717231078 72.12840901938186 0.4417229633768451
1.647310406079835 13.003751270391659 194.33385092472324 75.53306514014852 0.4498830535086954
1.6716593485397901 12.987841536016253 175.44441176742868 79.11379088270134 0.4583223813992833
1.6955987263959498 12.970317203377826 158.55816645055583 82.88034722674863 0.46705245073823026
1.7190624602744533 12.951093948067777 143.45774743392852 86.8456530689082 0.4760956376008745
1.742068599029035 12.930218509655724 129.94617463060908 91.02150896874471 0.4854672191783905
1.7645536850420895 12.907603444484216 117.82080117336237 95.42150230203077 0.4951871674662642
1.7864805343627508 12.883186639142785 106.95363246929212 100.0597740471741 0.5052749240526009
1.8078219801697515 12.856958702343796 97.2039338827202 104.95257692175079 0.5157551779606124
1.8285465519514439 12.828878428545302 88.44179632391871 110.11624784602326 0.5266497749930684
1.8486216349126752 12.798922176629276 80.56488930204267 115.56862240552019 0.537982940520914
1.8680140552890874 12.767047149218108 73.47039778782255 121.32991237217873 0.5497840862713492
1.8866911485614517 12.73323514377353 67.08969781845867 127.42139764772308 0.5620825711983662
1.9046210642422747 12.697451689714322 61.33449978056668 133.86578940014766 0.5749087407063265
1.921756098992014 12.659626493915397 56.14258842686079 140.6880949210326 0.5882965968873142
1.938101023384023 12.619851247497179 51.45512916868989 147.91625118684422 0.6022854502093631
1.9535977860073666 12.578014393217206 47.22345241379564 155.57906240962177 0.6169122284590609
1.9682294070359034 12.534129511433099 43.39200219917833 163.7095658891074 0.6322225668744087
1.981957722150841 12.488177196749717 39.927061208597536 172.34168691907325 0.6482586993434858
1.9947559278293074 12.440138031479451 36.78899567800258 181.51478009380006 0.6650741677525173
2.006602557739716 12.390009828581544 33.946914700866714 191.270592161251 0.6827227074856465
2.017468592165488 12.337793955993277 31.367137006250413 201.65505783208036 0.701263421898618
2.027320353861373 12.283457154700406 29.026107613800555 212.7184377388316 0.7207602248044556
2.036145967988034 12.2270338089486 26.90279332916395 224.51526306578728 0.7412805555838833
2.0439071755497435 12.168488023430982 24.97139341930278 237.1074138168244 0.7629041680697973
2.05058380438917 12.107829802805425 23.214944641072627 250.56081327108103 0.7857108885371011
2.0561686857766355 12.045109001168463 21.618424777713493 264.9490492778621 0.8097908123848345
2.0606313871327475 11.98032807676735 20.16485631912221 279.0037077364202 0.8368534788444459
2.0623556479088334 11.917847450706278 19.015837833037523 297.8159281442919 1.326413902343542
