M[M_sun], R[km], Lambda[1], P_c[MeV/fm^3], rho_c[fm^-3]
0.24162668629717493 15.618656898711224 2160425.4255784233 3.5677272577965504 0.1711233750220791
0.2536245554128783 15.277777835510438 1723760.5120839395 3.784475993918205 0.17388389009425192
0.26600125477219294 14.982101232839943 1383978.3080493666 4.01067919082779 0.1766579326295722
0.2787543100750635 14.724677193831994 1117511.0312317503 4.2466036227194035 0.1794444706473682
0.29188538667972985 14.499697540258836 907037.9498416721 4.492869347202743 0.18224997707622564
0.30539884223759756 14.302626970561844 739806.4126140346 4.749608075442657 0.18506969026655565
0.31928979625315174 14.129639429347055 606167.2086622659 5.017540834398647 0.18791108105608922
0.3335616293781875 13.977483817919836 498714.09760600684 5.29683850707612 0.1907697335610536
0.34821536585320195 13.843548437081667 411979.22235377575 5.588290394837485 0.19365317530618445
0.3632497330180566 13.725563234699745 341537.86733523913 5.891986873538622 0.196555050585184
0.3786734496868042 13.621509126538719 284116.8296913582 6.208823051225022 0.19948369583149897
0.39447676230945344 13.529932694602104 237120.5584259369 6.539115136070651 0.20243633892504614
0.41066659237874026 13.449293854101882 198515.2482983907 6.883447167384098 0.20541469512180807
0.42724171164252445 13.378382851679929 166663.5567007773 7.2425745963487165 0.20842277823908092
0.4442010599621338 13.316214885568375 140327.1465383535 7.61684016955321 0.21145748258904537
0.4615462680487339 13.261806920070468 118440.09628963907 8.007024407106975 0.214522375966795
0.4792747080037253 13.214261381491127 100230.49588472606 8.413906003657505 0.21762034016150644
0.497392124227528 13.173017003096264 85012.33144297586 8.838038814582603 0.22075049058276738
0.515889499217225 13.137330238042567 72265.77062465381 9.280068837440227 0.22391303827249415
0.5347705342774165 13.106691268340073 61569.60995101849 9.740981967660353 0.22711243356538152
0.554034845227813 13.080562081845493 52560.30237036449 10.221582568773151 0.23035001902404748
0.5736723735759269 13.058493771885672 44958.84377383111 10.722502068887271 0.23362455417119934
0.5936906535937172 13.040108856340067 38528.7961607026 11.244662400279966 0.23693819494225477
0.6140792757993759 13.024990651400117 32802.51621330943 11.789146603787524 0.24029449747164325
0.634836259457292 13.012848659493386 28452.886152279625 12.356926940116457 0.24369508261167028
0.6559563951552331 13.003328024432298 24513.53328606148 12.948910601280708 0.24714039268730653
0.6774449404122945 12.996221838482564 21154.682389494596 13.565984004522367 0.25063031659078944
0.6992844364228817 12.991233302636855 18284.51455071532 14.20954474234934 0.25416985519257623
0.7214683950731244 12.988093913667546 15828.14150984846 14.880773701452906 0.25776097629825945
0.7440065499445956 12.986685107650095 13722.837901887415 15.5809125576136 0.26140575299523916
0.7668754528287779 12.98671981955792 11914.444702488663 16.310871552133285 0.2651025486718419
0.7900730566146728 12.988054964301016 10359.095030043745 17.07230640427664 0.26885660937276445
0.8135858230043451 12.990500160603556 9018.23841877466 17.86673553553116 0.2726710881286019
0.8374201231790511 12.993931387554513 7862.372208013313 18.695679674720957 0.27654852955571846
0.861550297761525 12.998166849793572 6863.555810504585 19.56037339029334 0.2804884383122915
0.8859682869581033 13.003065211410712 5999.375409826513 20.462605696266277 0.2844947269516164
0.9106742246045612 13.008526266337011 5249.924015122032 21.404367759190002 0.2885722624446381
0.9356444800702372 13.014400631801587 4600.203309927296 22.387537948828466 0.2927242028100459
0.9608659419568399 13.02055903329387 4035.661290754999 23.413408137705343 0.2969485125642926
0.9863367392509369 13.026951152427758 3544.431244734204 24.48461438267098 0.3012532027299576
1.0120277902071906 13.033399067038841 3116.5749324144203 25.603443579253298 0.3056425939974529
1.037930406252296 13.03982545130756 2743.90738721038 26.771569774518802 0.31011584472310955
1.0640372219281014 13.046172946136634 2418.0655841510493 27.991759646187813 0.31467949315638144
1.0903171044619049 13.052309278845865 2133.6015422469754 29.26691888854016 0.3193400552080535
1.1167593762822887 13.058159144090157 1884.4377157780136 30.59870631793708 0.3240947672611547
1.1433401171130952 13.063626214193693 1666.2708271481797 31.990994454334505 0.32895512370479424
1.1700520841146482 13.06866436119591 1474.9330167416836 33.44624476573556 0.33392224370141904
1.1968577433008452 13.073151708142186 1307.0828497102423 34.967746807645256 0.3390018573895052
1.223758340534189 13.077064314231508 1159.3276666173597 36.55900101092198 0.34420006177578805
1.250707750979289 13.080274099496462 1029.5202312975885 38.22333142406215 0.3495209358366345
1.2777056271826934 13.082776423624354 915.1155712521113 39.96469626301542 0.35497143528445674
1.3047143587918313 13.084447311338785 814.3008833270495 41.78724901227575 0.3605585394549412
1.3317108440638552 13.085236601986132 725.3513236174903 43.694660441197115 0.36628553372890366
1.3586664478335728 13.085070852657939 646.7446335368502 45.69233559321681 0.3721642394335395
1.3855745617617143 13.083933520757096 577.2631525180834 47.78444498468186 0.3781985031140217
1.4123893884567718 13.081728998720164 515.7638397944701 49.97607496035498 0.38439604601129385
1.4390911035822227 13.078399339873343 461.34377213919333 52.27315233502507 0.39076762087777517
1.4656454288019918 13.073884703452153 413.05471848795355 54.6813964074119 0.39732151721084075
1.4920357781871076 13.06816587568733 370.1861236696878 57.20692251455692 0.40406667107570626
1.5182299458996706 13.061147429565837 332.13386976242896 59.85619224207391 0.4110123178764591
1.5441879104350893 13.052794804191697 298.2850401269116 62.63626436104752 0.4181690676017813
1.5698895742349541 13.043064488901239 268.1899863587483 65.55492264490483 0.4255492905813674
1.5953011254599794 13.03188864727689 241.34361820373184 68.62009515970716 0.4331643172863655
1.6203972908248425 13.0192489637729 217.43532446945085 71.84029959890525 0.44102640689936234
1.645139605604929 13.005077406934362 196.10866727213926 75.22503332979046 0.4491502531316885
1.6694847535736557 12.989332361831533 177.04956065767385 78.7843897778481 0.45755108126139615
1.6934264635803307 12.971972500635028 160.019401184893 82.52925784983314 0.4662453381360134
1.7169209059830892 12.952966222200125 144.7956996087513 86.46989445669054 0.47524472922095606
1.7399193441869438 12.932234076236744 131.15260410512076 90.61999513328689 0.4845726769270497
1.7624335619915563 12.909835418624127 118.91738943500332 94.99189872827705 0.4942445212996318
1.7843799699855165 12.885618995882497 107.9531557342713 99.60088656917175 0.5042845597465319
1.8057556251137759 12.859612455493814 98.11213744139319 104.46082138518614 0.5147087188787957
1.826513966557855 12.83175904263721 89.26995425774592 109.58957535256337 0.525545259332743
1.846617871256562 12.80200218254874 81.31889350406274 115.00487293837845 0.5368184286567845
1.866063815534039 12.77039458136731 74.17016932094023 120.72599344272327 0.5485547286425757
1.8847800743355947 12.736797829137808 67.72188976087328 126.77392749955632 0.5607831037772505
1.9027742799193645 12.701298037366575 61.9115246931927 133.17155060555785 0.5735351513658878
1.9199852992464719 12.663785387015379 56.67003144117539 139.94381583789598 0.58684535600949
1.9363835469501165 12.624240956044536 51.93685144971504 147.11702900664292 0.6007481065819629
1.9519598230117448 12.582720805359518 47.66196050409012 154.72069060369537 0.6152836372450321
1.9666604611556806 12.539095548975022 43.79995048130613 162.7866591580512 0.6304944849048912
1.9804796770085544 12.49346300741236 40.298231482485384 171.3499276373086 0.6464275242664239
1.9933676135753693 12.44572374273361 37.129540590599476 180.44757273927095 0.6631297440012394
2.0053057803210357 12.395899677675535 34.25811753458952 190.12133722726787 0.6806561628926354
2.016258865059454 12.34396215186011 31.651646236500916 200.41649205439776 0.6990650898176709
2.0262113864123577 12.289926520548695 29.290877569571723 211.38213407994206 0.7184181753862312
2.0351433747352066 12.233830860878891 27.142719737067356 223.0734784011676 0.7387868408027607
2.043031276714852 12.1756370315756 25.192932943132604 235.54966872883705 0.7602438394682876
2.0498343172708617 12.115344748090443 23.421672163237627 248.2127401778193 0.7817235299970928
2.0555138466348315 12.052992439444173 21.809522749860957 263.138543487757 0.8297444350248037
2.0600132588244082 11.98866431213203 20.34973272520578 278.4286667282054 0.880094809799473
2.063282345513448 11.922277489111403 19.027097408744183 294.8444816788805 0.9357216082774639
2.0652893423845056 11.853844579402976 17.82751468358166 312.4950908461389 0.9972129601349934
2.0660137150662994 11.783414583490927 16.743704058212188 331.50216165342994 1.0652294861842884
