M[M_sun], R[km], Lambda[1], P_c[MeV/fm^3], rho_c[fm^-3]
0.24162668629717493 15.618656898711224 2160425.4255784233 3.5677272577965504 0.1711233750220791
0.2536407827530422 15.277371722639998 1723268.8938451393 3.7847770055375083 0.17388764205887372
0.2660343731001431 14.981392317410197 1383161.5215298159 4.011311932221184 0.17666557893589294
0.2788071501789934 14.723670602464658 1116570.828244065 4.247589454089981 0.17945590480565074
0.291959229103523 14.498564506833992 906051.9916171447 4.494234089501038 0.18226517379845733
0.3054910170947536 14.301429552315433 738835.0208481445 4.751398012322271 0.18508902500100136
0.31940392202478957 14.128348618623816 605265.7830536925 5.019769100445857 0.1879342001763607
0.3336993743511878 13.976203909039782 497823.3483356194 5.299563700701385 0.19079717173894606
0.3483759918290934 13.842242569776706 411144.24752068066 5.59151926822931 0.19368441554448282
0.3634369689525458 13.724165755929187 340759.5311221696 5.895791889514938 0.1965907881004608
0.3788856505489349 13.620196749544561 283407.13505143544 6.213250180062538 0.19952406591588698
0.3947151403789489 13.528613040485414 236496.8060814523 6.544159729610834 0.2024805731954815
0.41093473163990335 13.448074737128323 197952.60960670252 6.889206507601691 0.20546374407991444
0.42753864971089695 13.377251914714702 166161.78672105182 7.249102636621944 0.20847678304326797
0.4445293943555122 13.315087790549928 139864.12833222534 7.624118819511677 0.21151542532287132
0.461905739300437 13.260721294068999 118041.62475236456 8.015180486542057 0.21458546983513235
0.47966533754678875 13.213306555693274 99865.2658981534 8.423003002236717 0.21768873687345133
0.49781731205553026 13.172123774933828 84690.98804120287 8.848043151264179 0.2208229262548662
0.5163512533000992 13.136518306763422 71980.417481144 9.291142232447195 0.2239909956636889
0.5352641973229472 13.105950967243006 61312.628633279346 9.753199368940226 0.22719608036159086
0.5545661106853048 13.07990057786663 52335.89320063865 10.235023472541538 0.23043953019983135
0.5742372189515337 13.057977406625263 44758.327989339756 10.737108055044784 0.23371832912669885
0.5942937420594757 13.03958976965179 38352.011980331015 11.260652860650513 0.2370381036280181
0.6147253628127161 13.024580208714424 32925.59639421328 11.806615831638597 0.24040073952374086
0.6355202222993049 13.012490105366586 28082.672139799677 12.375975104175003 0.24380786820449127
0.6566868127007099 13.003060202896407 24389.06106539957 12.969450240727777 0.2472577888437104
0.6782129187144634 12.99601672875434 21044.38794690138 13.588306415190102 0.2507546017928557
0.7000947808564351 12.991073367570442 18187.079312335805 14.233769392202413 0.2543012751003136
0.7223227976974548 12.988016063196442 15742.756550686008 14.907027725289522 0.2578997912188128
0.7449038277537119 12.986652956908065 13645.283047711348 15.609150371493467 0.2615504460463609
0.767817317713804 12.986745043363763 11845.808278701596 16.341324071145017 0.2652543468413599
0.7910557318695427 12.988114825553252 10297.92483363613 17.105201147053958 0.26901656536779606
0.814622862219435 12.990644943459486 8964.556931026942 17.902235149517537 0.27283953125862326
0.8384981499039245 12.994110374898108 7814.23175548195 18.733839287432478 0.2767247613129966
0.8626731586787469 12.998371794653576 6820.857068733741 19.6012607397461 0.2806718740629841
0.8871409183638728 13.003312054513076 5961.050262647583 20.506629659052358 0.28468764678256836
0.9118937392963666 13.008809317328156 5216.061493427607 21.451738176435015 0.28877508885342473
0.936908104245067 13.014693429192144 4569.834644340598 22.438131218011318 0.29293461851169694
0.9621789179532522 13.02089991647507 4008.6116102247643 23.467710159655937 0.2971690492101368
0.9876979371626997 13.027283524911782 3520.2341903375636 24.542953778311993 0.30148495745382786
1.013437143085197 13.033749089707374 3095.2026837371272 25.665875923330216 0.30588451511970716
1.0393889635317461 13.040190401980322 2724.2967580020604 26.838291300503194 0.31036790663376373
1.065536399351262 13.046527853383113 2400.878568044461 28.063363182815856 0.3149443857739726
1.0918581228385809 13.052653375327719 2118.0125821837582 29.34322970815104 0.31961498017802764
1.11834998674347 13.058488173184953 1870.6607030556702 30.68047547580696 0.32438321326405006
1.1449751767684042 13.063949677519632 1653.7803748192232 32.078673639444254 0.32925832271726546
1.1717313464252217 13.068959093978322 1463.7898515152176 33.53957410777985 0.33423677320676615
1.1985806132023076 13.073428216653163 1296.923361559176 35.067805326552865 0.3393327237856069
1.2255198472281725 13.077294907377855 1150.3369820051576 36.66549877661991 0.34454360708242976
1.2525095259991672 13.080463299786595 1021.3739078199674 38.337491365712296 0.3498825695054347
1.279544933736084 13.082910892418138 907.7922410037883 40.08622125847847 0.35534739302154156
1.3065839954832712 13.084512486487824 807.7647088971779 41.91707035144914 0.3609521185850952
1.3336153743977388 13.08523030742975 719.4004880653343 43.8333659579123 0.366697838257792
1.360619251882003 13.085037602744913 641.4120283232346 45.84006509406671 0.37259381675447517
1.387545006514688 13.083794000700147 572.4988797198954 47.94235882168464 0.3786492432980505
1.4143963232705046 13.08151579877472 511.45057757182565 50.14483386302798 0.3848689270541991
1.4411239458128593 13.078098600012972 457.43926668199896 52.45301954919427 0.3912614688574624
1.4677068639830093 13.073496652711281 409.53433347398067 54.87316666323749 0.39783772825039476
1.4941134253495028 13.067643779038207 367.0316996670194 57.411454832803834 0.4046067490832771
1.5203225658528243 13.0605186570668 329.26078223885065 60.07450087793465 0.4115782838837412
1.546303309774517 13.052050522555747 295.67961282918475 62.86939815883755 0.4187628521838008
1.5720178101065632 13.042189757206819 265.81456636583397 65.80375968953396 0.4261718036053191
1.5974400254830652 13.03088494300418 239.23530381891135 68.88576539948357 0.4338173862608771
1.6225323602726391 13.018085264883453 215.43236300951583 72.12421397277052 0.4417128210951882
1.6472792009922188 13.003769328075155 194.36447319555703 75.52857974829219 0.4498723828677654
1.671628257152147 12.987861877323663 175.4674294899138 79.10901624246617 0.4583112422182401
1.6955669891223284 12.970340089449763 158.5851165988188 82.87523677847464 0.46704070694298067
1.7190383248470038 12.951143706159176 143.4757874125218 86.8401805192983 0.47608324496855364
1.742037343536667 12.930249084852964 129.96633590714544 91.01567203936662 0.48545423415902067
1.764523518852607 12.907635757248563 117.83996985157577 95.4152447947942 0.49517343709815365
1.7864498415841923 12.883222751262002 106.96981616247984 100.05309051445023 0.5052605012789396
1.8077913696330157 12.856998132167769 97.21673636147295 104.94543272390352 0.5157400072415089
1.8285174491077782 12.828921859710423 88.45153830233323 110.10857499151398 0.5266336838015402
1.8485931646159912 12.798967953152202 80.57364317272595 115.56040886441319 0.5379659741792621
1.8679859394784852 12.767096943416696 73.48265941197208 121.32111299736391 0.5497661739688374
1.8866636088381035 12.73328820762663 67.0997515627078 127.41196306375902 0.5620636360636302
1.9045936145076243 12.697507314037876 61.340802532905485 133.85570023587925 0.574888821563403
1.9217302059907644 12.659684654274486 56.15027698010955 140.67725861985846 0.5882754836517899
1.9380764609075294 12.619915488890705 51.462855755404554 147.9046028945372 0.6022630441395718
1.9535701979708056 12.578059340934535 47.22712981348975 155.56656923394817 0.616888552640575
1.9682056054858732 12.534200395873127 43.39833972988801 163.69611292642415 0.6321973770892796
1.9819355430741186 12.488252314792682 39.93308139874713 172.3272292226558 0.6482320047878227
1.9947360995976975 12.44021818096992 36.79522845432392 181.4992260406422 0.6650458358290211
2.0065830795742694 12.390093701724387 33.950713850235665 191.25384080832637 0.6826925933775916
2.0174503997613424 12.33788387916176 31.368946693074417 201.63699783146168 0.701231367178992
2.027303444774574 12.283548100210426 29.03144020470491 212.698991634964 0.7207262050091626
2.036131102252147 12.22713308163754 26.90548141718259 224.4942509936901 0.7412442357170368
2.043894136964418 12.168593310754275 24.974049478106043 237.08473346903511 0.7628654959933644
2.050307189078195 12.108791116367964 23.255101105275305 250.67054273217246 0.9551900076639388
2.0529220016803587 12.050575430290111 21.955081633170984 266.2571397901514 1.3427442807781422
