M[M_sun], R[km], Lambda[1], P_c[MeV/fm^3], rho_c[fm^-3]
0.24162668629717493 15.618656898711224 2160425.4255784233 3.5677272577965504 0.1711233750220791
0.25364595419296143 15.277240371674454 1723230.0322908738 3.784863271373779 0.17388871732090683
0.26604510139996795 14.981143136784958 1382817.8288012668 4.0114932804630214 0.17666777042237114
0.2788218434409097 14.723415560052779 1116348.8505365984 4.2478720202746985 0.1794591821475753
0.29197983411064377 14.498264292628182 905765.0611386965 4.494625288632187 0.18226952989157524
0.30551805220487444 14.301043255759355 738478.5602723169 4.75191112770703 0.18509456762645218
0.3194380158374954 14.1279459752176 604963.0161588908 5.020407912075003 0.18794082809357174
0.3337384947120238 13.97579882816519 497551.554746536 5.300345027045908 0.19080503839878055
0.3484234006766258 13.841838542535811 410889.51271514053 5.592445060325201 0.1936933728376872
0.3634890937594457 13.723803740447277 340540.05445487687 5.896882946912294 0.1966010355424291
0.378947159424212 13.61980183709488 283202.9433508534 6.2145197064210755 0.1995356424676676
0.3947832534606358 13.52826537518656 236310.1627720176 6.5456064070936915 0.2024932586026406
0.4110116161092536 13.447694259158665 197782.5776064079 6.890858264633257 0.2054778111359282
0.4276233184910829 13.376899041811981 166012.6704041062 7.250974973430522 0.2084922724058465
0.44462329728409034 13.314777243774289 139737.60145502177 7.626206561390333 0.21153204509063905
0.4620065827575383 13.260419375746938 117921.98553942704 8.017520049184991 0.2146035682436306
0.4797787481272355 13.213017008066668 99759.01838826573 8.425612629585283 0.21770835762292043
0.4979389432530939 13.171867057532056 84596.27764397304 8.850913221415585 0.220843706789049
0.5164829881286714 13.136289137090941 71900.3257780916 9.294319192695122 0.2240133616618947
0.5354054037453894 13.105745322352387 61243.84837999886 9.756704760346565 0.22722008012667044
0.5547183834235058 13.079730519464132 52274.158366931 10.23886864646023 0.23046506628772204
0.5744052175409673 13.057760888839965 44701.902908459415 10.741299251649712 0.2337452379071727
0.594467016746035 13.039447541780028 38302.38606448488 11.265241611664226 0.2370667742273912
0.6149104355431334 13.024440833954833 32879.95427626545 11.811629245766397 0.2404312294463347
0.6357197281544141 13.012400925968626 28273.574206979472 12.381441981389289 0.24384023799013557
0.6568949828437078 13.00299303973768 24354.187112593616 12.97534547622691 0.24729148359236836
0.6784333284946338 12.995952641465623 21013.325838140423 13.594713723784212 0.250790275970487
0.700327633793657 12.991044474638883 18159.642985030834 14.24072312955317 0.2543389994648187
0.7225666244438195 12.98800378663223 15718.042066745162 14.914564454504598 0.25793964074716447
0.7451609364357327 12.986642920119667 13623.65115347184 15.617235468408284 0.2615917716987327
0.7680872839848233 12.986768054566342 11827.182217508833 16.35006702636164 0.26529792828030585
0.7913394485461913 12.988145655216993 10281.480802004462 17.11464584059033 0.26906249171422186
0.8149181337368958 12.990692218187148 8948.672455741911 17.912428370621758 0.2728878973639125
0.8388082616382251 12.994157327287798 7801.1736380741095 18.744735824828656 0.27677482526431213
0.8629951958796539 12.998433946950097 6808.423699595194 19.61300227677116 0.2807245509346156
0.8874820278003187 13.003386520409233 5950.1597273682 20.51927270861539 0.2847430505860894
0.9122444358306652 13.008883453024746 5206.46083402157 21.465343121364388 0.28883334128779725
0.9372704544211806 13.014779015794991 4561.431241634531 22.452641384653823 0.2929948854830938
0.9625606704991153 13.020990050317362 4000.859740544039 23.483307642549676 0.297232395222632
0.9880865482935892 13.02738155569296 3513.2282911586867 24.559711994767262 0.30155152989230577
1.013836112956302 13.033842313413428 3089.1675305741414 25.68373000403549 0.30595341745565063
1.0398057541701657 13.040300219270387 2718.9545544499906 26.85745951777019 0.31044032070698624
1.065962757364139 13.046623771931994 2395.9317716287715 28.083935263973718 0.31502049084760203
1.092301879106197 13.052751852184214 2113.6709569032205 29.36513274150928 0.3196938176495863
1.118805769010208 13.058587704423974 1866.5292874157224 30.70397096413593 0.3244660951216002
1.1454435441561333 13.064041094572172 1650.3243382776718 32.10368489774478 0.3293442589372762
1.1722121699184167 13.069043909556115 1460.5221724188666 33.566394517917836 0.3343271607542312
1.1990727495546414 13.073496776870241 1294.0569542429116 35.09656147663634 0.33942781257812304
1.2260253286289915 13.077361582587283 1147.820513460613 36.696107217882194 0.344642345175857
1.2530264914470262 13.08052168805258 1019.1239187803391 38.370185264317854 0.349985815561783
1.2800732506841466 13.082957050155489 905.7213208888506 40.12115308303913 0.3554554604167636
1.2999813360507346 13.081260517480933 829.2673731639902 42.32065685739001 1.2890299442196358
