M[M_sun], R[km], Lambda[1], P_c[MeV/fm^3], rho_c[fm^-3]
0.24162668629717493 15.618656898711224 2160425.4255784233 3.5677272577965504 0.1711233750220791
0.2536329629290987 15.277575181879149 1723645.0723001722 3.784618977310544 0.17388567231325996
0.2660164882969364 14.98176931591991 1383390.3594752585 4.010979740126191 0.1766615645904713
0.2787795715108708 14.724171990409976 1117026.9363586083 4.247071874761075 0.17944990166541083
0.29192071328039854 14.499186095573801 906560.2393186777 4.493517556995342 0.1822571950427079
0.30544316638986635 14.302034880953062 739320.8225230891 4.750458215288736 0.1850788733994096
0.3193437550850066 14.129022131745856 605725.7175333267 5.018599132672448 0.18792206130914552
0.33362504065470044 13.976918429248874 498308.9231672286 5.298132781705338 0.19078276475897984
0.3482925092075108 13.842938276587192 411574.4849327744 5.589823842394861 0.19366801183313895
0.3633376624507018 13.72490497463598 341163.8430901552 5.89379389245523 0.19657202248925476
0.378773628004011 13.62089667895878 283775.89265857445 6.210925458082406 0.19950286725057567
0.394588087978564 13.529322887430126 236836.41628872894 6.54151071331287 0.20245734490119408
0.4107936297831999 13.44872520738846 198250.15981667317 6.886182091939326 0.20543798688698695
0.4273825131382002 13.377835781671962 166423.71888310238 7.245674470958264 0.2084484227072959
0.4443565596560371 13.31568326197005 140114.3308865864 7.620296394537713 0.2114849963622674
0.46171639128287406 13.26128300274314 118248.48164010391 8.010897175185603 0.21455233495888168
0.4794604239229641 13.213798701777606 100064.82213381941 8.418225440145608 0.2176528162854355
0.4975950436238239 13.172582163169853 84859.55605071297 8.842788966845939 0.22078488371473784
0.51610786110636 13.136942760185542 72137.34104837436 9.2853264562329 0.2239500522365689
0.535005048079846 13.106329028841158 61450.6191602974 9.746782612086838 0.22715214784758525
0.5542875665937059 13.080266898909183 52453.74994662568 10.227963954713006 0.23039251656502016
0.5739416286090979 13.05822183350709 44863.518425460206 10.729436456202263 0.23366907508576595
0.5939784763001703 13.039880738828288 38446.61905564126 11.252253897010247 0.23698562675120355
0.6143853790383236 13.024790790138937 33008.05402913363 11.79743994235745 0.24034493480727828
0.6351601482527914 13.012677879367581 28385.08803652686 12.365969638826781 0.2437486251017292
0.6563012326714754 13.003205993363391 24456.034105104547 12.958661142264924 0.24719612278117478
0.6778094244026913 12.996124188829006 21101.33492011159 13.576580598422195 0.25068931558662627
0.6996699177122896 12.99114942183883 18238.07549279203 14.221044058052948 0.2542322395414926
0.7218743580040994 12.988063278273575 15787.25626471986 14.893236042758266 0.257826869394456
0.7444317306026986 12.986669172506245 13685.483093486539 15.594355681893557 0.26147482540683165
0.7673227708723414 12.986724045295256 11882.48558077217 16.32532619586792 0.26517460144550925
0.790537428721146 12.98808281775518 10330.082609430548 17.087919891288276 0.26893253247293175
0.8140757020384393 12.990560788396547 8992.8307265435 17.883585005593993 0.27275103765925524
0.8379321136643978 12.994006602323608 7840.191089920753 18.713847412829075 0.27663267179260154
0.8620851719482631 12.998270951152657 6843.319149893224 19.579779205853416 0.2805754999681021
0.8865246478984524 13.003178213202137 5981.265927380296 20.483499675795237 0.28458628760957505
0.9112542417422089 13.008649949533961 5234.140503263422 21.426849413675633 0.2886685223787509
0.9362470776731219 13.014541890202471 4585.886661261645 22.411587291553527 0.29282437015301116
0.9614853442899707 13.020727697902919 4022.7455571531023 23.439178295261694 0.2970531728311888
0.9869836750277395 13.027098481034864 3532.800926402204 24.51229984801166 0.3013631839408486
1.0126954834063406 13.03355412745944 3106.5355622389625 25.63317385056855 0.305758155545254
1.0386210898916894 13.039993145041194 2734.6342371526425 26.803231567083714 0.3102354572740952
1.064749720089084 13.046335384395622 2409.823120810026 28.02573723567687 0.31480519103448973
1.091045961747439 13.052463049244672 2126.055201227493 29.303170795384407 0.31947079268836553
1.117514717188818 13.05831975211016 1877.7420902157467 30.63750586950594 0.32423163519346215
1.1441179868674478 13.063786687922477 1660.3446428362486 32.03260187631517 0.32909901835568894
1.1708489545786218 13.068811252212104 1469.5391517631915 33.49052746026224 0.33407148094771083
1.1976760731234641 13.073283442193029 1302.1393895836247 35.0152210312222 0.33915884177658306
1.2245948100490105 13.077172999841055 1155.0066844566122 36.6095292862646 0.34436305817043444
1.2515685181271066 13.080381978459776 1025.600154037331 38.27749351070401 0.349692509453606
1.278579521856046 13.082846314185002 911.5905095880021 40.02235128592398 0.3551498006640372
1.305598340438988 13.084467696580962 811.1267371331899 41.849048933741685 0.36074643919862864
1.3326193858579245 13.085248634892519 722.5593775751615 43.76046290614812 0.3664811326852669
1.3595974892561697 13.085070993778674 644.2530105521982 45.762417357521784 0.37236802768425026
1.386508004845828 13.0838615460777 575.0077156824053 47.85957994943005 0.3784134962176711
1.4133346767735389 13.081608565095033 513.7543244343254 50.05612844491198 0.3846203646970989
1.4400573576588138 13.078256934324346 459.4888960214373 52.35847301532735 0.39100187949898885
1.4666232480747161 13.0736932925212 411.3902404392131 54.77236093593341 0.3975663773620069
1.4930218402934081 13.067914805919955 368.68703283430915 57.30393799724669 0.4043228454008384
1.5192220463667507 13.06085188245413 330.7723773808965 59.95978415541397 0.4112809747532738
1.5451942049872496 13.052441657499903 297.040853053999 62.74695257824368 0.4184512184463341
1.5709028332423165 13.042650897558474 267.0492534506618 65.6730124235462 0.4258448539714411
1.596319136070614 13.031415592824265 240.32729694419322 68.7460957277915 0.4334740511197673
1.6214144944446514 13.018701867215528 216.51401166058642 71.97494883005692 0.4413519456963639
1.6461463974054773 13.004453532171025 195.2799644381574 75.36898880945651 0.44949271980631167
1.6705099234783767 12.988637944030936 176.28669419729485 78.93836547457084 0.4579116894891854
1.6944431091020131 12.971201596195403 159.33925895967874 82.69341720866528 0.46662288610110325
1.7179350799801985 12.952117018184591 144.15686082910287 86.64548474794638 0.4756423548385836
1.7409384844737736 12.93132368054825 130.58302188625862 90.80801896940386 0.484992282512701
1.7634182491096184 12.908769429506382 118.40907893110956 95.19263734509435 0.494684986647684
1.7853659609157753 12.884485357409748 107.4863329365173 99.81533495597884 0.5047474350984913
1.8067136422891683 12.85834208875345 97.6847049153145 104.69089876400236 0.5151988421801943
1.8274656962856102 12.83041393195426 88.87726602564483 109.8356454579344 0.5260613073289745
1.8475520233317224 12.800547505940926 80.96495386037836 115.26825684321567 0.5373624889173799
1.86697865167239 12.768828535725715 73.83983224040018 121.00813437780344 0.5491290641932809
1.885670611418059 12.73511809260663 67.42448589695579 127.07640360151802 0.5613901709003885
1.903629141824956 12.699470032707973 61.64113608751037 133.4960891601482 0.5741776194007716
1.9208118760500497 12.66183251521096 56.42432215013517 140.2918725575256 0.5875246050474529
1.9371868870561628 12.622188121633863 51.71247813812252 147.49035583846592 0.6014662193171425
1.9527359332942424 12.580536903608685 47.45668458306928 155.1222755923765 0.6160465460558865
1.9673960041959717 12.536777187527305 43.60808114343545 163.21772548324 0.6313016281612552
1.9811780386760816 12.491009419213757 40.12307917405025 171.81313436162176 0.6472827848368926
1.9940258915220814 12.44312853678065 36.970120083679504 180.9461696952288 0.6640384360272901
2.0059071476424344 12.393123734908857 34.11144540308032 190.65823815256877 0.6816218713401566
2.0168210392586507 12.34106172236064 31.520212590361265 200.99489480701143 0.7000916976488333
2.0267309347175786 12.286899769309176 29.167480108056974 212.0063030354955 0.719512347017242
2.035611778681502 12.23064381108359 27.029855541194728 223.74725940384718 0.7399530429706458
2.043443955628659 12.172296231871183 25.08948711775849 236.2772899483389 0.7614868919486217
2.0501914312133445 12.11183479375316 23.32399777885283 249.66316042807193 0.7841976487482505
2.055833168736334 12.049264265278016 21.718928437929033 263.97780600172905 0.8081746071453042
2.060373995927698 11.984664311876655 20.257485777283275 279.30156003762926 0.8335147711212562
2.0637847987983524 11.91802858948454 18.92749764633937 295.72358718036736 0.8603254246658104
2.0660358947664457 11.849349824056926 17.71616341280259 313.34207280975505 0.8887223357030906
2.067129889856483 11.778694098155581 16.613413498366555 332.2664214920725 0.9188341833610641
