M[M_sun], R[km], Lambda[1], P_c[MeV/fm^3], rho_c[fm^-3]
0.24162668629717493 15.618656898711224 2160425.4255784233 3.5677272577965504 0.1711233750220791
0.25364387142412353 15.27728000664578 1723196.1714046616 3.784818511399857 0.17388815940942481
0.2660398120753797 14.98126515955045 1383085.5909823498 4.011399185209596 0.1766666333367647
0.2788145037714044 14.72355870122284 1116467.6514194626 4.247725405472758 0.17945748163681657
0.2919693294893138 14.498421764540666 905877.7777675395 4.4944223060876345 0.18226726963383189
0.305504008207596 14.301222888213788 738639.7426329391 4.75164488417118 0.18509169168813158
0.31942119954242815 14.128118299359853 605134.359976764 5.02007644537928 0.1879373889986692
0.3337179951333667 13.975954306182551 497670.8513022504 5.299939609353489 0.1908009565153275
0.3483993230076178 13.84204079372775 411014.01490041305 5.591964678431938 0.19368872501072137
0.3634612277995728 13.724014521531874 340689.1994445538 5.896316806924535 0.1965957182358561
0.3789152345943282 13.620009198198074 279399.3734755476 6.21386095584999 0.19952963545564661
0.3947465258847522 13.528470703110901 236407.29032055504 6.544855728919156 0.20248667616916646
0.410971956438599 13.44787585385785 197871.6251719146 6.890001165173935 0.20547051171726477
0.4275796844395854 13.377063650235131 166088.0232194517 7.250003408111927 0.20848423489495663
0.4445739163158061 13.31494223156181 139804.58685936217 7.62512321462247 0.21152342095377719
0.4619550386331938 13.260586154486166 117985.67577857865 8.016306022341064 0.2145941767644943
0.479719547117692 13.213165814506361 99817.71856966577 8.424258453886624 0.2176981761147694
0.4978765664918156 13.172017024777176 84648.41027599471 8.849423889181145 0.22083292338732893
0.5164144546583188 13.136410112006041 71940.8017906473 9.292670598643543 0.22400175545699372
0.5353331042380266 13.105844993548773 61279.71644663762 9.754885724208995 0.22720762604240072
0.5546382848158226 13.079816662339507 52301.10690523067 10.236878807155309 0.23045188600459068
0.5743211941950085 13.057844744389485 44732.591596776474 10.739124307310963 0.2337312740908045
0.5943773066723709 13.039527372692834 38329.8204471967 11.262860348275359 0.2370518960506455
0.6148137226274719 13.024517785158865 32903.021597982726 11.80902759291367 0.24041540705622816
0.6356178224350421 13.012435789139897 28293.521064053213 12.378604990711771 0.24382343995782085
0.6567876420430651 13.003016337456907 24372.199026913113 12.97228617583541 0.24727399788585572
0.6783189666542166 12.995976581876109 21028.937443527022 13.591388664332888 0.25077176293029874
0.700206379377144 12.991059912077786 18173.522581604364 14.237114478668605 0.25431942235764965
0.7224401858860015 12.988006766443307 15730.886350727442 14.910653233885121 0.2579189606494035
0.7450278597683916 12.986641996610315 13634.798827425477 15.61303964731333 0.26157032544449343
0.7679467697014507 12.986756242200489 11836.993117920167 16.345529775388616 0.26527531122218717
0.79119133072199 12.988136729475894 10289.501382937511 17.109744383057496 0.2690386575860125
0.8147641729110474 12.990665097110538 8956.867754927405 17.9071384195666 0.27286279692440546
0.8386475285948959 12.994126906537993 7808.018759292082 18.73908084526286 0.27674884355917234
0.862826087688361 12.998405511270281 6814.847033876368 19.60690872748702 0.28069721302197814
0.887302888962263 13.003341318203251 5955.734573558731 20.51271125472046 0.28471429727775227
0.9120624033420749 13.008852339862086 5211.612962433703 21.45828241889661 0.2888031094045178
0.9370822760513964 13.01473547573109 4565.644337522768 22.44511084914831 0.29296360792584064
0.9623599845904427 13.0209348308234 4004.652790059437 23.47521275370152 0.2971995194737938
0.9878838605131448 13.02733432474864 3516.7280995395367 24.551014641687626 0.30151697943734773
1.013626471755997 13.033789093526838 3092.0818990292623 25.67446385728238 0.3059176576107712
1.0395900811805205 13.040239183758887 2721.6765596179216 26.84751127489963 0.31040273803679685
1.0657405879933262 13.046566665521672 2398.5309661664965 28.07325834643475 0.3149809922869458
1.092072092544084 13.052693565158368 2115.997107891747 29.3537649956032 0.319652900744156
1.1185691559922923 13.058533947381182 1868.7292712168387 30.691776643028316 0.32442307886372074
1.14520039519624 13.063993370372689 1652.280375567174 32.090703807271865 0.32929965718899723
1.1719628172647516 13.069002039093062 1462.181521043171 33.55247435968956 0.3342802483857735
1.198816914037763 13.073459213118753 1295.5052958566891 35.08163653439919 0.3393784598403058
1.2257634066791674 13.077326097534407 1149.1748334605688 36.68022080993443 0.3445910980829806
1.2527580551762039 13.080495640222251 1020.2879465345986 38.35327290578434 0.34993256016609037
1.2797990214953991 13.082932287115451 906.7581724847737 40.103022504556606 0.35539937046397363
1.3068427892214727 13.084520062578923 806.8338778203815 41.93496007118034 0.3610062019181232
1.3338759264118296 13.08523971355698 718.6405451974531 43.85254467835302 0.36675484733344565
1.3608869594936144 13.085033193008202 640.6937709861668 45.86049263717493 0.37265321727496187
1.387817735863567 13.083779348209914 571.8474085631054 47.96412241936188 0.3787111895224821
1.414674276123415 13.08148689193804 510.8697877702133 50.16817210173429 0.38493432337098127
1.441397678674775 13.078035277948942 456.93349655025617 52.47789538789229 0.3913297685903558
1.4679907934496765 13.073438676358792 409.0497562516861 54.8996902227554 0.39790912490245883
1.4944001308987425 13.067577680194178 366.5653094128104 57.439745152592245 0.40468145111411424
1.5206112210840592 13.060431288251355 328.8620595935331 60.10468671444467 0.411656515937517
1.5465949486869994 13.051948115502292 295.3204446780189 62.90161886354917 0.4188448564389515
1.572310627224516 13.042069983426327 265.4891541435088 65.8381661755041 0.4262578412590014
1.597734533795715 13.030744197928987 238.93952092053323 68.9225212063587 0.4339077391627433
1.6228218570013648 13.017924194277628 215.2593000524568 72.16349644143696 0.44180779354682087
1.647573741297466 13.003590415297666 194.11313438092327 75.57058131771699 0.44997230360606055
1.6719228279009382 12.987654670070045 175.2524735781736 79.15372663334867 0.45841555104864884
1.6958610787959993 12.970109889893912 158.3753378958665 82.92309208625544 0.46715067830088364
1.7193404387566065 12.95090184829943 143.29053856848856 86.89142701929846 0.4761992930772963
1.7423264030329288 12.929964545769776 129.7916219877651 91.0703310652314 0.4855758303723056
1.7648063151027822 12.90732166987014 117.69134425858488 95.47384273766312 0.4953020140690929
1.786733929170916 12.882887235054904 106.83943262762776 100.1156783923135 0.5053955632040703
1.8080728329149927 12.856637031459833 97.09658894428446 105.01233499538004 0.515882074355222
1.8287832283448442 12.828504929531979 88.34031209842335 110.18034994826367 0.5267840795923243
1.8488633352339103 12.798544188417177 80.46966932653085 115.63732635839794 0.5381248591796479
1.8682504983985648 12.766639707032876 73.38529075878309 121.40351733536959 0.549933919003196
1.8869208433172648 12.732794373309492 67.01518570811064 127.50031675434212 0.562240961215644
1.9048447134344155 12.69698418889086 61.26382862170749 133.95018471380268 0.5750753632599939
1.921987977499361 12.65917241831457 56.08101624854685 140.7787409137017 0.5884732097519625
1.9383030684659757 12.61929147710213 51.39765465443156 148.01369053025738 0.6024728796343279
1.9538008782001932 12.57745097641065 47.16615171637511 155.68357031128204 0.6171102813940956
1.9684184808871392 12.533531939542236 43.344257412333384 163.82197515906475 0.6324328512255772
1.9821355164329468 12.4875337029023 39.88310395531068 172.46263103755217 0.6484820094345007
1.994924797314465 12.439465627647266 36.74802810998336 181.64489706022908 0.6653111776110416
2.0067649104845873 12.38931004786983 33.90767495348418 191.4107266771694 0.6829746289855738
2.0176138698037165 12.337042876311749 31.331059359065815 201.80614168521174 0.701531580834733
2.0274523775798405 12.282663564955921 28.994296069658358 212.88111906655251 0.7210448260543887
2.036265601812629 12.226204914738789 26.872665967974772 224.69104710606067 0.7415844024823204
2.044012222421279 12.167617789218376 24.945145192236527 237.29715670526534 0.7632276971246678
2.0506743539120285 12.106919367170711 23.190578150486665 250.7662532070536 0.7860571447546572
2.0562504573415947 12.044179693338872 21.595673107535223 265.17139291349304 0.8101608051124174
2.0606998321498664 11.979338114504007 20.144096997984622 280.5943801641407 0.8356386256043828
2.064007804394802 11.912446740632502 18.823239815211405 297.1248235533215 0.8625972322731764
2.0661714738802273 11.843556017309547 17.620273202347523 314.86311977114264 0.8911572327213598
2.06716714586438 11.772673764092337 16.524885052421453 333.9186758954807 0.9214445584795162
