M[M_sun], R[km], Lambda[1], P_c[MeV/fm^3], rho_c[fm^-3]
0.24162668629717493 15.618656898711224 2160425.4255784233 3.5677272577965504 0.1711233750220791
0.25364086140180137 15.2773669483435 1723253.7683054195 3.7847779957460737 0.1738876544013458
0.26603551958352606 14.981340540671805 1383119.692529067 4.011314013806664 0.17666560409062498
0.2788073285179633 14.72369631144365 1116608.2075456171 4.247592697444189 0.1794559424236719
0.29195946975350656 14.498560685853933 906048.5910819477 4.494238579699534 0.1822652237978597
0.30549130774108946 14.301425223633554 738786.288116867 4.7514039017903125 0.18508908861849643
0.3194040908696747 14.128370238702512 605246.5027483164 5.019776432532377 0.18793427624958828
0.33369981846186264 13.97613818761897 497796.81902383995 5.29957266839527 0.1907972620287434
0.3483765346657079 13.842242754814977 411142.2611309656 5.59152989388532 0.19368451835062772
0.3634372756149221 13.724164028957286 340762.0454623266 5.895804411799534 0.1965909057124077
0.3788869010579877 13.62017411678608 283402.82821487635 6.213264750460984 0.19952419878037692
0.3947147530857899 13.528650775887204 236499.0825798331 6.544176332960161 0.20248071878442506
0.41093560932429146 13.448070921729267 197951.1251622432 6.889225464357021 0.20546390552359772
0.4275393066890505 13.377230000585907 166149.69957606148 7.249124124607817 0.20847696080786818
0.4445304656450923 13.315082173091794 139862.16310532062 7.624142779305165 0.21151561605823357
0.461906924951578 13.260717869212302 118040.13468369334 8.015207335964016 0.21458567753711805
0.4796673798393078 13.21329058583773 99862.89335142747 8.423032950578376 0.21768896204311358
0.4978186622172754 13.17211733746491 84685.72729480841 8.848076088074833 0.22082316473144814
0.5163523231017443 13.136522089135177 71977.94485045582 9.291178690621198 0.2239912523315068
0.5352656918330253 13.105951147127584 61313.6041822409 9.753239595581226 0.22719635577446837
0.554568139018126 13.07989656420113 52333.94586358013 10.235067729764216 0.23043982493566958
0.5742398165424789 13.057965435116296 44757.224947650204 10.737156150538413 0.23371863791466604
0.5942954760093276 13.039590532845542 38355.587025606306 11.260705517519826 0.23703843262909047
0.6147274306199749 13.024558687600017 32924.48603306379 11.806673360836225 0.2404010893972478
0.6355228755938082 13.012478641700882 28314.868622774302 12.376037836048132 0.24380823964456697
0.6566892779819148 13.003061819471494 24194.978623905223 12.969517887209546 0.24725817548326046
0.6782160809790428 12.996004256216528 21043.974105455964 13.588379936616219 0.25075501114045873
0.7000974570737862 12.991087051440788 18186.88297210262 14.233849182628582 0.2543017079672697
0.7223245068804836 12.988019893597173 15742.396055479408 14.907114204083845 0.2579002484647968
0.7449067949358864 12.986659809387195 13645.048807292376 15.609243141407923 0.2615509202246269
0.767820663541423 12.986757802324219 11845.779964562096 16.34142438811155 0.2652548468962777
0.7910593357294651 12.988123399257356 10297.785954102692 17.105309514341158 0.26901709232121745
0.8146270502029016 12.990648642232124 8964.280569035776 17.902352103751625 0.27284008619810135
0.838503674741646 12.99410013163834 7813.893407580749 18.73396430995456 0.27672533572679714
0.8626768569184099 12.99837266482607 6820.718346729961 19.601395455639924 0.28067247844823884
0.8871451934804693 13.003310603261687 5961.00073125348 20.506774716435167 0.28468828244651134
0.9118978296526081 13.008812951971896 5215.978480930873 21.451894267794234 0.28877575719142284
0.9369115886735292 13.014694802935132 4569.630486802197 22.438297693259212 0.29293530995510003
0.962182798826508 13.020890980897848 4008.5199343093677 23.467889107225528 0.29716977596938743
0.9877018452233464 13.027285677955614 3520.003173302151 24.543146040133404 0.3014857212187734
1.0134363608764723 13.03374607347049 3095.0087134448586 25.666080755360152 0.30588530560595906
1.0393935529266491 13.040191366941395 2724.2749955477548 26.83851120594829 0.310368737396937
1.0655414493790485 13.046531614800022 2400.8520695751035 28.063599190593482 0.3149452588693661
1.0918635246254276 13.052651730456414 2118.020209634542 29.34348098203313 0.31961588460972024
1.1183552141157256 13.058489311402823 1870.6179075848574 30.680745014597473 0.32438416407959925
1.144981008579338 13.063953354467401 1653.7483287355317 32.07896056368061 0.3292593085606807
1.1717366232450936 13.068964836883147 1463.7560742094427 33.53988178170466 0.3342378100996153
1.1985856577744232 13.07342469848483 1296.883382272805 35.06813520164347 0.3393338145931022
1.225525725166497 13.077300379575307 1150.3101852163945 36.66584989591217 0.3445447397389145
1.2525161501105875 13.080469421487189 1021.3569567455226 38.3378677673116 0.34988376186318587
1.2795515203167647 13.082913364586211 907.7647824595102 40.08662196151579 0.35534863266287275
1.3065901249523133 13.084512859905498 807.7434331767535 41.917497011561075 0.36095340844325224
1.3336213154433214 13.08523381559491 719.3736777953586 43.8338233565274 0.36669919788302524
1.3606252466132933 13.085041888989483 641.3857306667113 45.84055227314125 0.37259523340504563
1.3875518302257372 13.083792072065576 572.5005544355776 47.942877861176235 0.3786507206519932
1.4144031086338078 13.081518353091392 511.4418649112624 50.14539045168369 0.38487048667694973
1.4411306284577081 13.078095805632277 457.4319603018214 52.45361280380354 0.39126309771234613
1.4677137395178987 13.07349393964566 409.5170588175819 54.87379920944074 0.397839430951013
1.4941206014304893 13.067644045516007 366.9900234733994 57.41212950886144 0.404608530599783
1.520329652962274 13.06051653204764 329.25227042152864 60.07522075375777 0.41158014957211086
1.5463103632388948 13.05204825010996 295.6635105091532 62.8701665569164 0.41876480781800185
1.5720248665056984 13.042185211978213 265.8029978568441 65.80458020797653 0.42617385541269237
1.5974471131697923 13.030880940662104 239.22570144629233 68.88664193739997 0.4338195409610749
1.6225340437628504 13.01808429887651 215.5152460139487 72.12515075827204 0.44171508594306447
1.6472860767453426 13.003766835717379 194.35504252465168 75.52958136939955 0.44987476570064305
1.671635828902034 12.987858688149851 175.4644710882398 79.11008245425921 0.458313729678155
1.6955737105191706 12.970334762663553 158.58152747224347 82.87637797783218 0.4670433294157806
1.7190482384675385 12.951138900183173 143.4807052961802 86.84140257756835 0.4760860123292712
1.7420443408049278 12.93024234563355 129.96106761211607 91.0169754653439 0.4854571338020463
1.7645300927023793 12.90762814292643 117.83852825163946 95.4166421376 0.49517650318028106
1.7864567445285384 12.883215203548565 106.96434561447508 100.05458299056708 0.5052637219776506
1.8077990233574555 12.856987779502278 97.20501546637547 104.94702806841791 0.5157433949589292
1.8285243592984168 12.828912097550146 88.4528518765288 110.11028838699097 0.5266372770633114
1.84859931680963 12.798957409702268 80.57274677852918 115.56224299716966 0.5379697628646264
1.8679917635173495 12.767086127825296 73.47885392717563 121.32307794878574 0.5497701738898579
1.8866698366290857 12.733276337128562 67.09955686286001 127.41406985940773 0.5620678643856868
1.904600262270928 12.697495128408287 61.33835830822107 133.85795320138476 0.5748932696168504
1.9217358093722166 12.659667328248918 56.14851402546766 140.67967842308147 0.5882801983486731
1.9380815277146601 12.619901862789735 51.46090490044285 147.90720401740555 0.602268047528823
1.9535760287956927 12.578048969737463 47.225784491530696 155.569359021332 0.616893839566929
1.9682100309887625 12.534185674816317 43.39625073485978 163.69911703617075 0.6322030020865982
1.9819412825251064 12.488235796584744 39.93108692750989 172.33045769137524 0.6482379658023197
1.9947404081919697 12.440200313599972 36.79291807110318 181.5026993276421 0.6650521624694512
2.0065872585958036 12.39007506772806 33.950233773462934 191.25758145403105 0.6826993179812373
2.017456343773902 12.337862382209968 31.369759401838415 201.64103069965572 0.7012385251222267
2.027307462008941 12.283526700827485 29.028889848728976 212.7033340213961 0.7207338017544289
2.0361350827440186 12.227110745680204 26.90495951686312 224.4989430616941 0.741252346068284
2.0438971835552175 12.168570572046224 24.973543792690176 237.0897980636753 0.7628741315924674
2.0505751045918017 12.107915015251086 23.216605788628943 250.5417363700449 0.785678729194076
2.056161435178189 12.045197056527304 21.62033972011831 264.9284074026168 0.8097564631051587
2.0606347232926567 11.980422254586964 20.166683753385982 280.3314010257181 0.835206960810261
2.0639687627776904 11.913593308643218 18.84466618875535 296.83972709333415 0.8621353249240953
2.066144050722499 11.844733030670792 17.639662055823592 314.5534219818434 0.8906614674735589
2.067161033583821 11.773898397503045 16.543407264866723 333.582334889287 0.9209133347269632
