M[M_sun], R[km], Lambda[1], P_c[MeV/fm^3], rho_c[fm^-3]
0.24162668629717493 15.618656898711224 2160425.4255784233 3.5677272577965504 0.1711233750220791
0.2536446682201034 15.27728046914438 1723174.5992842098 3.7848484346684184 0.17388853238853197
0.2660426619498572 14.981208303390007 1382889.5790881305 4.011462090288889 0.17666739350752392
0.2788195231728618 14.72342595105745 1116332.0739371353 4.247823420947835 0.17945861846862132
0.2919765406000526 14.498317495530717 905816.8148992636 4.4945580043813225 0.18226878066582602
0.30551375785670487 14.301116810415957 725379.1358451309 4.751822873355862 0.1850936143110236
0.3194316373498138 14.128028441968151 605006.8414829983 5.020298037008334 0.18793968809734718
0.33373204111330457 13.975817456314374 497588.8800555122 5.3002106378929135 0.19080368532300182
0.3484154075739161 13.841903633582781 410928.86338145245 5.59228582102428 0.19369183215364558
0.3634810106276446 13.72383792502207 340604.3877471154 5.896695279148529 0.1965992729270771
0.37893543968392646 13.619898761225356 283242.4906405571 6.214301338393615 0.1995336512141894
0.3947706796793315 13.528348993543748 236357.55168065484 6.5453575650017894 0.20249107659366383
0.4109983462796933 13.447783299195741 197817.17221310528 6.890574143570223 0.2054753914417286
0.42760792148964416 13.376964938767102 166010.70440854796 7.250652906335608 0.208489608027309
0.4446072962137292 13.314817551392116 139760.28692083395 7.625847437942038 0.211529186237075
0.4619882898180169 13.260475863522327 117937.22607270176 8.01711760406319 0.21460045500525057
0.47975860695747835 13.213072647797905 99775.54989997939 8.425163723501408 0.21770498247672887
0.4979190471396911 13.17191367337627 83740.12364955968 8.850419509160126 0.22084013210137246
0.516460768684952 13.136322361607899 71914.84716682517 9.293772682690328 0.22400951419739001
0.5353823881112941 13.105766955088114 61253.260011825965 9.75610174581409 0.22721595156998695
0.5546911159575785 13.07977006016951 52285.213518630146 10.238211648005603 0.23046073092799482
0.5743775598607733 13.057795659514168 44712.87267626833 10.740578246406484 0.2337406088301717
0.5944371920943531 13.039481454345879 38313.97642081049 11.264452206887292 0.2370618420120596
0.6148783727780422 13.024464513438149 32889.17175395561 11.810766776359888 0.24042598419334466
0.6356854714009378 13.012405012245162 28279.03430905024 12.380501491142612 0.24383466927759784
0.6568597568938744 13.00299599810941 24360.18648422528 12.974331284130079 0.24728568688623193
0.6783953112706594 12.995969366227248 21018.663412294805 13.593611424461475 0.25078413866318167
0.7002873286350183 12.991052417213686 18163.700552983813 14.239526810492363 0.2543325093755274
0.7225256911272118 12.987994742019927 15721.983884128245 14.91326782321329 0.25793278496875843
0.7451167196155191 12.986652120137583 13627.575908156607 15.615844482191491 0.2615846618998701
0.7680411453633144 12.986757150846413 11830.12038185261 16.348562843285652 0.2652904303049342
0.7912895097309307 12.988153612070484 10284.427418068932 17.11302090864439 0.2690545902204169
0.8148668868474911 12.990686549718276 8951.311248007973 17.910674636988304 0.27287957602321977
0.8387552632037277 12.994136454985522 7803.4084674360965 18.742861069105032 0.2767662117317868
0.8629387560119607 12.998428945769561 6810.321741337244 19.610982115544846 0.2807154877452422
0.8874246920718297 13.003373012250082 5952.0017544947195 20.51709741517232 0.2847335181129373
0.9121838130885234 13.008875711162403 5208.297201422962 21.463002302771105 0.2888233185804514
0.9372086994112062 13.014770789202258 4563.040787570347 22.45014479369462 0.29298451606559267
0.9624959469675319 13.020977706088136 4002.064356022337 23.480623939113404 0.2972214959055713
0.9880199380945588 13.027365530141605 3514.7233572706 24.556828541950605 0.3015400753031045
1.0137670350372674 13.033815031912402 3090.229221859042 25.680657965671724 0.3059415618679637
1.0397341937171471 13.040282764200697 2719.7090691455137 26.85416132537583 0.3104278607300244
1.0658896662875157 13.046600742407836 2396.673596034568 28.080395472644373 0.31500739562025554
1.092226568311997 13.052736093671689 2114.452768921572 29.361363899908337 0.31968025213390344
1.118726843424223 13.058566273230204 1867.1535488606164 30.699928060780604 0.32445183351804063
1.145362683695165 13.064022276827094 1650.9608635400637 32.099381131240065 0.32932947161946996
1.17212997519683 13.069029111437532 1461.0918897658073 33.56177938782564 0.33431160728998066
1.1989888019069974 13.073491159201128 1294.5558547690207 35.091613191538364 0.33941144994078715
1.2259384635979256 13.07735214676686 1148.3134913151405 36.69084014138736 0.3446253544024106
1.2529375146633055 13.08051086880481 1019.4622670484919 38.36457801354681 0.3499681588666527
1.279982548544477 13.082951086908988 906.0610908684193 40.11514190173754 0.35543686383002243
1.3070361892496472 13.084552950317299 806.2003370252659 41.947864765120784 0.36104521476295776
1.3340702357710947 13.085241443041578 718.0319858398998 43.86637937371887 0.36679597120285057
1.3610803358022274 13.085028654651477 640.1625277817674 45.8752283420169 0.37269606670294814
1.3880215006691168 13.08377840149794 571.3634903460996 47.97982208352534 0.37875587583465314
1.414866734713585 13.081452155655377 510.4557829437672 50.1850079040493 0.3849814991444117
1.4415989695714866 13.078005680039231 456.5352781183943 52.49584059836507 0.3913790394148247
1.4681953000533452 13.073401666442644 408.69707956342523 54.918824313057556 0.39796063043236113
1.494606873603555 13.067524183044512 366.25487029343356 57.460154032308964 0.4047353418008704
1.5208196889143073 13.060369008402898 328.59547700294326 60.12646330753976 0.411712953916352
1.5468044377302905 13.051873057066802 295.06390026877216 62.92486374235646 0.41890401650356585
1.5725222020946537 13.041980386309818 265.2522334995107 65.86298825865155 0.42631991193356455
1.59793593250236 13.03063576007812 238.72741203218445 68.94903852781361 0.4339729238817541
1.6230462053692898 13.017817710382134 215.06259656389346 72.19183699874056 0.44187631195462795
1.6477861163055911 13.003457216958013 193.93126104684725 75.60088400847938 0.4500443929892616
1.6721351119386734 12.987508473093971 175.09977785757485 79.18598403007834 0.45849080718617063
1.6960714505209489 12.969948706884727 158.23271219929097 82.95761896565607 0.4672300209691877
1.7195514856159055 12.950720415549 143.16296074573415 86.92840114784576 0.4762830212868386
1.7425332706644996 12.929769729338652 129.67428593543085 91.109767831958 0.4856635626621203
1.7650138609300183 12.907101562779554 117.5803687733892 95.51612212106781 0.49539478447681035
1.7869244421268016 12.882619864529127 106.73997262980015 100.16083720842491 0.505493013970079
1.808274528207629 12.856375678554752 97.00539718123957 105.06060745549031 0.5159845810254492
1.8289773009059005 12.828218002046837 88.26057162668576 110.23199152253773 0.5268920483870717
1.8490577504939993 12.798238130340504 80.40193800371259 115.69282696921468 0.5382395042898069
1.8684302967991122 12.766280431974545 73.32712140391804 121.46297797589268 0.5500549590774072
1.8871061467710544 12.732440116245485 66.95565803925425 127.56388782338178 0.5623682606289073
1.9050250893075813 12.696605760211582 61.206815174865376 134.0183641641961 0.5752099706646019
1.9221626212826635 12.658767397874483 56.029828144253784 140.85197122540933 0.588615890247249
1.9384705921651437 12.61886014084701 51.35051993550252 148.09241032635714 0.6026243010786798
1.953960839919927 12.576993395387666 47.12521329817998 155.76800200620966 0.6172702879077152
1.968570804879735 12.533039006317802 43.30685908422021 163.91263050184324 0.6326021961592859
1.9822812484919514 12.487019119301747 39.847462690608516 172.56034491798977 0.6486624274309141
1.9950623130297753 12.438915997097046 36.71700789491898 181.75002375756432 0.665502667347902
2.0068923247407557 12.388733852253848 33.877152148596835 191.52394900607305 0.6831781701241415
2.0177318901398182 12.336435924006427 31.303525350040868 201.92821287856637 0.7017482451616072
2.027560835422249 12.282031759423916 28.968538348710258 213.01256302213483 0.7212747793906379
2.036361638726145 12.22553686009043 26.84938633720914 224.83308072605914 0.7418299109758286
2.0440964826705135 12.166918262788691 24.922788865033937 237.45047206847232 0.7634891139027249
2.0507468882777626 12.106184601522884 23.170411522365633 250.931958211997 0.7863359631625169
2.056310430957117 12.043410603240206 21.577878895087398 265.3509064524507 0.8104592846294189
2.0607464605598267 11.97853564212939 20.126965209885118 280.78868817954867 0.8359573359744463
2.0640417632598638 11.91161161276329 18.807854433124646 297.33563528828944 0.8629387850573061
2.066188508551389 11.842680977356078 17.607066629159707 315.0921284402413 0.8915238305580483
2.067172916397046 11.771768762114826 16.511867025373213 334.16739224717577 0.9218373860896966
