M[M_sun], R[km], Lambda[1], P_c[MeV/fm^3], rho_c[fm^-3]
0.24162668629717493 15.618656898711224 2160425.4255784233 3.5677272577965504 0.1711233750220791
0.25364368977371793 15.277286313523877 1723181.1883740972 3.7848133447524304 0.1738880950096571
0.2660384013978096 14.981303930255471 1382913.3645279724 4.011388323888495 0.1766665020841091
0.2788143870104235 14.723519693151463 1116427.4204426066 4.2477084820256135 0.17945728535033278
0.2919713036252678 14.49834249868548 905912.7763205429 4.494398876433484 0.18226700873919519
0.3055036736129965 14.301227219323193 738703.3230810057 4.751614152768846 0.1850913597303346
0.3194186662189719 14.12816410972717 605124.5943564816 5.02003818585757 0.18793699204136466
0.3337156285420586 13.975976185037776 497712.06761153776 5.299892814450317 0.19080048536829933
0.3483965444578532 13.842064275261393 411028.32303972996 5.591909231316353 0.1936881885446251
0.3634583375534054 13.724083415513725 340673.29835389217 5.8962514619091495 0.1965951045016431
0.3789115743628632 13.620029133440868 283324.13079315075 6.213784922177159 0.19952894212010092
0.39474264611718735 13.528493541785302 236412.5223352553 6.5447690855356 0.20248591642374217
0.41096714686254204 13.44789719909229 197877.2486137508 6.889902239449487 0.2054696692242828
0.4275747531916374 13.377085087513068 166099.54957180365 7.249891271753897 0.20848330721960473
0.4445686124845964 13.314954503634 139809.71781042253 7.624998177567979 0.21152242557842485
0.461949470730107 13.260593801494137 117994.60777547568 8.01616590366792 0.21459309283327643
0.47971345826405426 13.21317338928568 99831.14651482998 8.424102160989241 0.21769700101067455
0.4978689279210639 13.172007812617169 84649.07700300268 8.849251998338692 0.22083167882418628
0.5164062118237078 13.136434616430966 71945.14614244498 9.29248032815835 0.22400041594091596
0.5353238542274302 13.105886161616912 61282.253781321764 9.754675784021185 0.22720618868074716
0.5546300278992811 13.079839900615935 52305.07875842742 10.236647828816668 0.23045034777896028
0.5743110003808441 13.057856466708543 44735.74843655066 10.73887329442324 0.23372966251031124
0.5943655799346204 13.039549209134924 38332.48796993591 11.262585526016268 0.23705017895619743
0.6148028528186119 13.024513658676426 32905.61345491349 11.808727337795991 0.24041358100414806
0.6356037261700693 13.012438600207435 28297.968169485408 12.37827757796433 0.24382150132264827
0.6567746227541658 13.00303071657532 24374.248053854593 12.971933108987276 0.24727197990053368
0.6783059152025228 12.995979688749268 21030.84977291733 13.591004929827859 0.2507696263993834
0.700192463145542 12.991068836575495 18174.986132390786 14.236698019025743 0.2543171630437618
0.7224252256878094 12.987998811764054 15732.208785973193 14.910201859428096 0.25791657406250235
0.7450122347635394 12.986653368279427 13636.565576027935 15.612555431661402 0.26156785045527375
0.7679311064807505 12.986761416119364 11757.029258308135 16.34500616135848 0.2652727011375739
0.7911744244430106 12.988146584652483 10290.347921562094 17.109178742792356 0.269035907068945
0.8147485978299221 12.990655126272248 8957.898823162152 17.906527950988192 0.27285990029465146
0.8386288348560251 12.994120576051388 7808.765981161466 18.738428256016533 0.2767458452492442
0.8628089698001583 12.998399401221445 6815.888947609291 19.606205532490513 0.2806940582295107
0.8872835207095027 13.003351393512364 5956.487509702732 20.511954069587883 0.2847109791750979
0.9120406507244075 13.008838370959353 5212.008850016849 21.45746762749047 0.2887996207036697
0.9370624250596045 13.014718721612285 4565.939249460206 22.444241845546713 0.29295999857961524
0.9623374820249684 13.020932666441922 4005.146226235137 23.474278632773338 0.2971957257311501
0.9878616650330085 13.02732596756899 3517.1496950880546 24.550011006722187 0.3015129924720779
1.0136027900848725 13.033783805080036 3092.4590098797785 25.673394593152146 0.30591353111456404
1.0395651250650482 13.040233710462724 2721.941582355956 26.846363309964268 0.3103984012319846
1.0657150189883877 13.046565570022185 2398.7943283173754 28.072026307259307 0.31497643443830414
1.0920452594613144 13.05269149977419 2116.095974813477 29.35245324866836 0.31964817926060723
1.1185422481651366 13.058527453577643 1869.0040733651533 30.69036952785183 0.3244181151737569
1.1451704208840048 13.063992206803583 1652.4418518832795 32.08920591628581 0.3292945105831055
1.171933367328869 13.069001776593058 1462.3947873564953 33.550868123355706 0.33427483520371853
1.1987874041927615 13.073454649135668 1295.6707754960255 35.07991437189456 0.3393727651157823
1.2257324006860457 13.077321913834812 1149.3251163606367 36.678387718717204 0.34458518481447026
1.2527270661073644 13.080492986769736 1020.4060063036574 38.351308462453105 0.34992633903890086
1.2797686879202212 13.082934165061273 906.9075917223906 40.10093049851769 0.3553928984961833
1.3068104977197812 13.084522492752095 806.9107894185929 41.93273252179484 0.3609994676988586
1.3338471881432137 13.085233734511561 718.7773785388616 43.85015661203464 0.3667477487653305
1.360854404398291 13.08503832303435 640.7688620383313 45.85794905756404 0.3726458208909726
1.3877840578020737 13.08377724647761 571.9500785126496 47.96141246249653 0.3787034761104502
1.4146397068129046 13.08148874550015 510.9434306401604 50.165266053270635 0.38492618030293296
1.4413618203523046 13.078040037996281 456.9918918153612 52.47479786094497 0.39132126394190153
1.467955415633125 13.073446581010128 409.12224416783766 54.89638750237067 0.3979002345731644
1.4943644648855285 13.0675860656412 366.63106570721317 57.43622241291395 0.40467214914050464
1.5205758098021314 13.060444502696559 328.91587414876597 60.10092791925548 0.41164677434008684
1.5465584189590331 13.051962051070774 295.3584053525695 62.89760665688661 0.4188346450540107
1.5722750191678572 13.04208423777615 265.534133504025 65.83388176124814 0.42624712755373356
1.5976981381545985 13.030760226907706 238.9854229108631 68.9179442155506 0.43389648803165726
1.6227861062447757 13.017943805897353 215.29306612051417 72.15860478593834 0.44179596708756264
1.6475375390307636 13.003609840306533 194.14851643563944 75.5653510286422 0.44995986087230067
1.6718858193472463 12.987681409856469 175.2780162842624 79.14815899173315 0.4584025618044578
1.6958236259703707 12.970140897669411 158.4062877886648 82.9171327737976 0.4671369838182119
1.7192889040173156 12.95090045751119 143.3224747132675 86.88504536064602 0.4761848417602843
1.7422902224405776 12.930000250056324 129.81129618091327 91.0635244040064 0.4855606880565219
1.764770511886992 12.907358855829468 117.71020527046639 95.46654550643471 0.4952860023143852
1.7866989114158118 12.882929687145177 106.84834055218579 100.10788423728572 0.5053787437556603
1.80803499787252 12.856684014477311 97.10392173805481 105.00400350198666 0.5158643824115376
1.8287500393966727 12.828554476379754 88.35259748118139 110.17143703411185 0.5267654450597372
1.8488297232258364 12.798596967536584 80.48474627497491 115.62774748855301 0.5381050725399622
1.868217196815012 12.766696642034757 73.4007983084281 121.39325508240272 0.5499130288168517
1.8868885059735239 12.732856500735586 67.02536079748172 127.48931350522548 0.5622188777824634
1.9048137418261355 12.697049181893357 61.27458651216139 133.93841787009174 0.5750521318569359
1.921957843257871 12.659242156012315 56.090098738659655 140.76610246856623 0.5884485852546808
1.9382734530535228 12.619363550151748 51.40440304328498 148.0001048033393 0.6024467468126689
1.9537723552151953 12.577531537420171 47.173250383319086 155.6689989246399 0.6170826671577924
1.9683921976401275 12.533613233450074 43.349867930349305 163.8063298160107 0.6324036255947305
1.9821104234444156 12.487624467625535 39.89022683287593 172.44576769315628 0.6484508731128736
1.9949035116182956 12.439558292006707 36.75592413488498 181.62675458676753 0.6652781308440717
2.006742544547481 12.38940904844512 33.910509519264274 191.39118726771738 0.6829395027548619
2.0175933801408648 12.337148476171155 31.335695101631874 201.78507538549152 0.7014941902307488
2.0274339187658317 12.28277382133751 28.99842505128123 212.8584354855963 0.7210051424866213
2.0362485826956944 12.226322003537808 26.877177519013706 224.66653630301454 0.7415420349757357
2.0439977122258024 12.16773845417915 24.949195692985498 237.27069927678872 0.7631825847786944
2.050661612477962 12.107046130053188 23.193545206388077 250.7376445614267 0.7860089861218733
2.0562380924134422 12.044313605027833 21.598549688650095 265.1403890588392 0.8101092128969875
2.0606915902788887 11.979476276154722 20.14703725285688 280.5608498028021 0.8355836280076643
2.0640021499316688 11.912593561588544 18.826167808472825 297.0884456978936 0.8625382936291585
2.0661683946925042 11.843706308210635 17.6228081401296 314.8236023294494 0.8910939730696915
2.0671665553690253 11.772827592531009 16.527662513384293 333.87575824843805 0.9213767734842497
