M[M_sun], R[km], Lambda[1], P_c[MeV/fm^3], rho_c[fm^-3]
0.24162668629717493 15.618656898711224 2160425.4255784233 3.5677272577965504 0.1711233750220791
0.2536437458371742 15.277284803357361 1723291.7516188042 3.7848157412643544 0.17388812488102212
0.26603950450514097 14.9812720031707 1383055.4748271054 4.011393361830855 0.17666656296466934
0.27881424757823386 14.72352726940064 1116462.0689286035 4.247716331835749 0.17945737639630097
0.2919677892318239 14.498465611141942 905922.6751111827 4.494409744092141 0.18226712975309656
0.30550478480241244 14.30121144694805 738688.1350009625 4.751628407278247 0.1850915137062413
0.3194196548172716 14.128156145868479 605101.9835806472 5.020055932215198 0.18793717616667452
0.33371672601543184 13.976001832556511 497697.04093341733 5.299914519862408 0.1908007039057833
0.34839783316549827 13.842053395158683 411021.6665616348 5.5919349499709385 0.1936884373796832
0.3634589573046521 13.7240405773915 340660.7579943877 5.896281771602791 0.1965953891767
0.3789132217586422 13.620018584397972 283308.2184941319 6.213820189691225 0.19952926371736432
0.3947449589307009 13.528477111023262 236414.04397522952 6.544809274248391 0.20248626882446105
0.41096903024956744 13.447920489162797 197879.4811317363 6.8899481251886865 0.20547006000649304
0.4275764879493171 13.37708089006332 166093.2014045333 7.249943285093784 0.20848373751263574
0.4445713873201128 13.314941784514222 139808.64396281444 7.625056174744539 0.21152288727324234
0.46195225180795063 13.26058529912718 117984.33244549765 8.01623089627197 0.21459359560361305
0.47971637259242766 13.21316696133379 98747.24991838881 8.424174655808299 0.21769754607036798
0.4978721470696663 13.172004885863094 84652.13469597072 8.849331728069403 0.2208322561015025
0.5164111932496683 13.136403827155142 71943.80642411088 9.29256858305105 0.22400103726086265
0.5353274422021296 13.105862962262874 61280.98083174955 9.754773162448414 0.22720685538500537
0.5546334160277905 13.079839949538096 52304.59636298442 10.236754965509803 0.23045106126754242
0.5743155754384688 13.057851890796046 44332.46556995266 10.738989723871786 0.23373041002343625
0.5943719419221586 13.039532020120935 38332.278396335685 11.262712999113193 0.2370509754104138
0.6148082810840452 13.024534644134755 32905.341802737836 11.808866607567058 0.24041442799672263
0.63561110810698 13.012441315926115 28294.690779628567 12.378429444413602 0.24382240053516335
0.6567797785277792 13.003040400696097 24373.13017200564 12.972096874721588 0.24727291591831568
0.6783126082024551 12.995993423525254 21030.54300786043 13.59118292030243 0.25077061740265927
0.7001990308909735 12.991055841059055 18173.74564279062 14.236891188564735 0.2543182109979385
0.7224328186385746 12.988005526425605 15731.536011055228 14.910411223671522 0.25791768105017776
0.7450187438594561 12.986643730458022 13635.388044957044 15.61278002879076 0.26156899844681786
0.767938083663936 12.986754193113047 11837.32549198276 16.345249032807732 0.26527391179083415
0.7911822406889389 12.988135378549972 10290.101151281868 17.109441107441487 0.26903718285938955
0.8147545861721263 12.990672328660082 8957.420486787047 17.90681110852567 0.27286124385692007
0.8386376056964439 12.994131122134366 7808.4660122017485 18.738730950544486 0.2767472359739818
0.8628177955784643 12.998394389691896 6815.676112014995 19.606531699655363 0.2806955215358765
0.8872916670621745 13.003346368156182 5956.142654020881 20.512305279167613 0.2847125182299322
0.9120512449000544 13.008837938045412 5211.852001031503 21.457845556755352 0.2888012388873385
0.9370704120869904 13.01473267378271 4565.861620124157 22.444644920213243 0.2929616727223041
0.9623480012987954 13.020930917165646 4004.9495432071208 23.474711910969674 0.2971974854026449
0.9878728473863838 13.027327866213401 3517.0444166593397 24.550476527768144 0.3015148417662003
1.0136135407477815 13.033778653036865 3092.2505423351117 25.673890555122178 0.30591544512732327
1.0395763159585205 13.04023766571678 2721.847382107265 26.84689577586705 0.3104004127922844
1.0657267526680694 13.04656685364181 2398.6785120412505 28.072597769443096 0.3149785485254128
1.092056919448916 13.052699043907108 2116.0708213070757 29.353061681827356 0.3196503692463998
1.1185546092333398 13.058531820272677 1868.8444194384729 30.691022195761143 0.3244204175020988
1.145184267459565 13.063984767688872 1652.32830355651 32.089900688839826 0.3292968977531688
1.1719465835885345 13.068997735931287 1462.2915829308665 33.55161314979277 0.3342773460196269
1.1988022509787277 13.073454271103836 1295.6148396726683 35.08071316840067 0.3393754065192738
1.2257465683449469 13.0773248886712 1149.2516039787201 36.67923796732915 0.3445879275848767
1.2527416225825063 13.08049403854345 1020.3536028423537 38.35221994525625 0.3499292264166043
1.2797819893544722 13.082936002733355 906.8707130981951 40.101900839547376 0.3553959004071591
1.3068247978022611 13.08452631357343 806.8547362230363 41.93376573184652 0.3610025912493755
1.3338613496731422 13.08524088968282 718.7182459597735 43.85126427450092 0.3667510413110211
1.3608694784060527 13.085036656858263 640.724164726436 45.859128851623375 0.3726492515718342
1.3877996740085123 13.08378092325198 571.8874720378961 47.962669427129946 0.37870705383755393
1.4146558250882317 13.08148885084462 510.91352243071293 50.16661397072629 0.38492995731618723
1.4413787185159874 13.078038819073837 456.96020471814376 52.476234591542564 0.3913252086658261
1.467972194568696 13.073442161822797 409.0874381378702 54.89791940744025 0.39790435818610465
1.4943806354085296 13.067579692428414 366.5937265739148 57.437856369044205 0.40467646368491916
1.5205922758648633 13.060437214057835 328.8954290691242 60.10267136442441 0.4116512927935067
1.5465751420112972 13.051954347667323 295.3416389995179 62.89946764119565 0.41883938140703203
1.572291070704839 13.04207698892438 265.5073723383674 65.83586900277065 0.4262520968957944
1.597715070230845 13.030752111038094 238.9598096044728 68.92006716187159 0.43390170664544686
1.6228017966767334 13.017936334132687 215.27461821127542 72.16087368202942 0.4418014525530027
1.6475540708551053 13.003600430526502 194.134608419222 75.56777699179837 0.4499656321811579
1.6719031502515282 12.987670222242613 175.26610852838314 79.15074142780743 0.4584085865982741
1.695840371152451 12.970127770541396 158.39523025892078 82.91989687676683 0.4671433357187848
1.7193209698316791 12.950918626662972 143.30316124545385 86.88800535837713 0.4761915446987987
1.7423071987826928 12.929984233713041 129.80135781652592 91.06668152861373 0.48556771149667743
1.7647870177704543 12.907340614072348 117.69905676808065 95.46993016939932 0.49529342902068807
1.7867152018663224 12.88290904802039 106.8509076591962 100.11149938566085 0.505386545089015
1.8080540645672947 12.85666057092443 97.10277910842721 105.00786788085672 0.5158725884281683
1.8287661972937397 12.828530962910198 88.34733251706913 110.17557108975339 0.5267740882703927
1.8488460079433324 12.798571743262931 80.47916637513865 115.6321904298093 0.5381142501234565
1.8682328611303007 12.766671286253109 73.39307351763605 121.3980149924804 0.5499227182494574
1.8869037380712954 12.73282689389277 67.02111688403726 127.4944171060947 0.5622291206686856
1.9048272824520565 12.697019559891563 61.266941868228294 133.94387564340107 0.5750629071960721
1.9219717515393768 12.659209542324831 56.08452431364023 140.77196450969944 0.5884600067400299
1.9382870598734372 12.619329158421218 51.40210799588307 148.00640621411563 0.602458867889812
1.9537860079868368 12.577493419068487 47.17217081749092 155.67575750547962 0.6170954753450272
1.9684043992768467 12.533574250918644 43.34656331386189 163.81358652036658 0.6324171811787747
1.9821218051746252 12.487583068734281 39.88701396733241 172.45358933120406 0.6484653149123286
1.9949141954995289 12.439514447590353 36.751482070675316 181.6351695105753 0.6652934587444672
2.006752797292169 12.389362933919474 33.90902072651329 191.40025011787688 0.6829557951492862
2.017602670110279 12.337099813220226 31.332783488278533 201.79484643664338 0.7015115328827085
2.0274426741588654 12.282722174984483 28.996743428541155 212.8689566624861 0.721023548656128
2.0362548889488714 12.226267500263186 26.874859051775644 224.67790497883917 0.7415616860025483
2.0440045078512785 12.167682537795653 24.947260313991183 237.28297083251024 0.7632035089084839
2.0506675444282645 12.106986957562633 23.192030909300602 250.75092110481935 0.7860313466664488
2.056243850391896 12.04425126276257 21.597111364942528 265.1547693246932 0.8101331424948442
2.060694287211175 11.979412167193582 20.145111664042382 280.57640190448575 0.8356091370741454
2.064004593479422 11.912525946912755 18.824479253294367 297.10531851252114 0.8625656306121449
2.0661699613591487 11.843636748923013 17.62160425048323 314.8419313322071 0.8911233141980692
2.067167447853509 11.772755943720751 16.526285807302752 333.8956643171228 0.9214082135296517
