M[M_sun], R[km], Lambda[1], P_c[MeV/fm^3], rho_c[fm^-3]
0.24162668629717493 15.618656898711224 2160425.4255784233 3.5677272577965504 0.1711233750220791
0.2536447884065309 15.27724732916543 1723111.0790633527 3.784835635098987 0.1738883728480737
0.26604100041813417 14.981250689927244 1382923.105341029 4.011435182783339 0.17666706834619908
0.2788171682659162 14.723487479072805 1116399.2956076462 4.247781494919834 0.17945813218987766
0.2919727536867123 14.498357087763566 905820.1130257696 4.494499959387444 0.18226813432134764
0.3055093282742908 14.3011770638357 738614.3073998617 4.751746738184904 0.1850927919058711
0.3194280666269809 14.128053754161401 605052.2976603255 5.020203250544412 0.18793870465119977
0.33372744436151164 13.975854264523907 497633.71815560065 5.3000947043005 0.19080251806409484
0.3484084297202923 13.84191286396921 410953.183446624 5.5921484505533545 0.19369050305655006
0.3634723123598041 13.723913082995944 340633.76987463504 5.896533385146863 0.19659775238435304
0.37892637198744766 13.619960802842252 283270.82501031045 6.214112961296781 0.19953193344188705
0.39476062225675557 13.528421215362753 236379.38071017183 6.545142900102318 0.20248919427249354
0.4109869882121367 13.44782250126401 197840.80735500352 6.8903290462099225 0.20547330408975717
0.4275961555615523 13.377001583432206 166052.06856268385 7.250375076053386 0.208487309608586
0.44459249588053046 13.314877023253349 139781.26511487737 7.625537642363642 0.21152672006507306
0.4619758153764572 13.260518599373349 117959.988422581 8.0167704388721 0.2145977694018265
0.4797422878677724 13.213105929427977 99795.24570247756 8.424776480961468 0.21770207095418367
0.49790000925337535 13.171950106072147 84628.72813086706 8.84999361687392 0.22083704845925053
0.5164405524099215 13.13636985083358 71928.55139918676 9.293301247419603 0.22400619526369356
0.5353606188888802 13.105809555848 61263.67180767867 9.755581570392929 0.22721239017370878
0.5546686284129637 13.07977919069002 52296.97373180682 10.237644386935361 0.2304569844672722
0.5743534263089367 13.057812020130722 44721.09384102285 10.739956294305173 0.23373661570502463
0.5944131359839805 13.039509148956942 38320.96205664554 11.263771255070269 0.23705758741278415
0.6148502918098946 13.024502699333487 32893.80906934941 11.81002280117429 0.24042145958292105
0.63565703923061 13.012437775658576 28285.65319703397 12.379690217871188 0.24382986566835885
0.6568289856466788 13.00301913008594 24364.848152524624 12.973456438328308 0.2472806866263764
0.6783624567351659 12.995975067037731 21022.5339412802 13.592660581142626 0.25077884462232847
0.7002526311670073 12.991046031499119 18167.53162630885 14.238494870204727 0.25432691104910315
0.7224888217292461 12.988011461920863 15725.600985332661 14.912149358806337 0.2579268712258305
0.7450785031388297 12.98665341374542 13630.620375671973 15.614644632222683 0.2615785290627215
0.768000805070637 12.986760793202397 11833.076370453708 16.347265356510494 0.26528396265878096
0.7912475781473891 12.988149673084264 10287.344111250975 17.111619271696732 0.2690477745345745
0.8148247970997134 12.990673938890213 8953.745221874695 17.90916190460938 0.2728723982162473
0.8387089841502049 12.994137425683325 7805.680864526141 18.74124395145801 0.27675878191291786
0.8628903369837055 12.99841619809975 6812.083753988452 19.60923958234493 0.28070767009773234
0.8873735685979924 13.003365461844298 5953.553748107143 20.515221077611272 0.284725295710814
0.9121283624742826 13.008872333351547 5209.332973374355 21.460983197509282 0.2888146733564269
0.9371551861279709 13.014749626868298 4563.88752639567 22.447991332557386 0.2929755718140234
0.9624400327670249 13.020967731139836 4003.298063186925 23.478309092451905 0.297212094625471
0.9879613817590466 13.027351421258636 3515.421418917168 24.55434141129326 0.3015301951136992
1.0137071737332268 13.033805567644754 3090.8841321891114 25.6780081796521 0.30593133583339394
1.0396723946796333 13.040262189972196 2720.5725693151753 26.851316483229937 0.3104171134286666
1.0658260923096623 13.046585724899119 2397.399733375569 28.077342254407416 0.31499610043835596
1.0921596544569099 13.052720910132678 2114.9648966153973 29.358113128355146 0.3196685513522958
1.118659765859538 13.058549226206694 1867.7718525871953 30.696440916728687 0.3244395323914362
1.1452924706344727 13.064008696139638 1651.540700188526 32.09566899784027 0.3293167170947387
1.1720571510150433 13.069016217658525 1461.5025825637736 33.557798712640896 0.3342981920041833
1.1989149410662214 13.073476965570116 1294.9625652988937 35.087345181793104 0.33939733678961964
1.225862974634344 13.077339534552724 1148.6369683687242 36.68629718470389 0.34461069952738427
1.2528612633895355 13.080496075708274 1019.8581111039983 38.359741669299254 0.3499529296822608
1.2799041577796035 13.08294136310649 906.3846257170723 40.109957186953025 0.3554208240545805
1.306949569285844 13.084521673492878 806.5141064843959 41.94234408384647 0.361028524907086
1.333988843881429 13.085242392677722 718.3224488457811 43.86046081505118 0.366778378185637
1.3609983680264746 13.085028327344958 640.3917612037885 45.868924309820024 0.3726777354336577
1.387930284691157 13.083766641702447 571.575565681322 47.97310564499217 0.3787367586824742
1.4147809394611444 13.081462732437286 510.6382857702172 50.17780539265042 0.38496131691373886
1.4415124371691344 13.078018098651334 456.7099818043018 52.488163450384285 0.39135796084284824
1.4681083148567131 13.073417046576736 408.86306344605197 54.91063852645703 0.3979385957670141
1.4945183114414393 13.067548941824603 366.3914119722748 57.45142285042369 0.404712286670235
1.5207309114507628 13.060397055967961 328.71958551901236 60.11714697240691 0.41168880894919613
1.5467151344677963 13.051904590614821 295.1709653055213 62.91491922342613 0.41887870691226387
1.5724314780590027 13.04202067541333 265.35603737004203 65.85236895413975 0.4262933570553731
1.5978454178559962 13.030678831059019 238.81954511001823 68.93769393561875 0.43394503667392387
1.622942920921298 13.017858326965566 215.15124458815592 72.17971235347329 0.44184699843831143
1.6476958266516866 13.003512505561964 194.01968221215702 75.58791988072029 0.45001355163655066
1.6720418425867163 12.987577577365284 175.1540179770275 79.17218359862548 0.45845861093747825
1.6959815420373783 12.970014846996012 158.30163568492586 82.94284754715832 0.46719607629250126
1.7194612970746632 12.950797449872953 143.2213266938225 86.912582681116 0.4762472002425294
1.7424430307787402 12.929853220195122 129.72491760906553 91.0928957334957 0.4856260284534379
1.764925092207983 12.907193051712122 117.6313170365752 95.49803380702284 0.4953550946768714
1.7868510266839661 12.882753993525453 106.78325484708832 100.14151692727367 0.5054513216415413
1.8081883013963824 12.85648753433606 97.04658721122607 105.0399549938432 0.5159407254798523
1.8289018880289722 12.82835540155651 88.29797507834327 110.20989757021435 0.5268458558099264
1.8489749310339956 12.798367048273258 80.42963643882447 115.66908189521159 0.5381904551607116
1.8683501220266259 12.766421007217573 73.35665505200716 121.43753856820419 0.5500031737658563
1.8870251244415719 12.732595219323219 66.97604306579959 127.53670796440916 0.562313862293105
1.9049477104602806 12.696767987832992 61.23132059710707 133.98919431731295 0.5751523803296975
1.9220867986110508 12.658941520797386 56.05095844671258 140.8206402905747 0.5885548456716388
1.9383989513108963 12.619042938380487 51.37139968617738 148.05873061919175 0.6025595164862773
1.9538926354328585 12.577190868504996 47.145342921870615 155.73187835969705 0.6172018299815458
1.9685062571637548 12.533249291133522 43.32291049698448 163.8738439403576 0.632529742540092
1.9822181108601862 12.487239960013026 39.86320949299206 172.51853818763874 0.6485852358743742
1.9950039464914098 12.439148439694518 36.730032007547116 181.70504526436736 0.6654207383988816
2.006837490405444 12.388981302207227 33.88882376424256 191.47550656963898 0.6830910845751843
2.017680627212458 12.336696240252675 31.31500184592967 201.8759841837251 0.7016555443801998
2.0275146891605575 12.2823032672034 28.97953873109425 212.9563238926061 0.7211763923982076
2.0363198611027835 12.225822377810164 26.859269326000238 224.77231042667233 0.7417248680666029
2.044059717518996 12.167218781998832 24.932024917304044 237.3848744523198 0.7633772639412851
2.0507152631197623 12.106498438515622 23.17856806837548 250.86105918740648 0.786216667108895
2.056284594125437 12.043738748609954 21.58539597400452 265.2741800644067 0.8103318402626617
2.0607258185948694 11.978878996680645 20.13480187014118 280.7055500708907 0.835820970126022
2.064027009839165 11.911973120407623 18.813933946308897 297.245435244743 0.8627926448246166
2.0661833549960162 11.843057541324905 17.611636583178562 314.99414187652127 0.8913669733420063
2.0671701309599526 11.772155283278744 16.517114290119594 334.0609726660215 0.9216693048619995
