M[M_sun], R[km], Lambda[1], P_c[MeV/fm^3], rho_c[fm^-3]
0.24162668629717493 15.618656898711224 2160425.4255784233 3.5677272577965504 0.1711233750220791
0.2536444614292578 15.277259792533089 1723218.9894383654 3.7848274551986174 0.17388827088956174
0.2660408490191824 14.981245715855682 1382939.1560758194 4.011417986904227 0.17666686054414832
0.2788166305944401 14.723462046540192 1116383.5530909763 4.247754701199782 0.17945782142310235
0.29197104578780886 14.498395048415178 905844.8672489115 4.494462864636686 0.18226772126268873
0.3055066204460296 14.301223609465218 738645.8502392296 4.751698082747108 0.1850922663342826
0.3194248948887242 14.128077542145638 605074.1978567714 5.0201426759049435 0.1879380761659356
0.3337228907941803 13.97596478394811 497691.8515056792 5.300020615558567 0.19080177211339902
0.3484041356877561 13.84200119854053 410990.4578431427 5.592060662618633 0.193689653684132
0.36346776876521203 13.72394630904097 340645.86858829256 5.896429925581411 0.19659678067021993
0.3789218156363932 13.620000612418584 283287.06179877283 6.213992577939741 0.19953083569062183
0.39475407940124135 13.528435457225967 236396.33854498604 6.545005717833875 0.20248799136932344
0.4109796369615343 13.447868852086213 197857.5200323539 6.890172416528191 0.20547197016566046
0.42758746180263 13.377048055595646 166068.675454032 7.250197528983481 0.20848584080717808
0.44458386306484 13.314905271922258 139790.50738985327 7.625339668527153 0.21152514406603784
0.46196604231721367 13.260552428698409 117976.65713026057 8.016548584863347 0.21459605318170752
0.4797310989311965 13.213134340892344 99806.38890419347 8.424529016581058 0.21770021036799184
0.49788967225111297 13.171991211160803 84639.63420750643 8.849721454478955 0.22083507788722495
0.5164279560499129 13.136408878921872 71932.40894611787 9.292999982222318 0.22400407433792296
0.5353474057782501 13.105827922886899 61271.36268412569 9.755249159479733 0.22721011431264168
0.5546546610484626 13.079792778423215 52300.86019966669 10.237278663245158 0.23045454889016473
0.5743377925595726 13.057843815848187 44727.079233592456 10.739558846865194 0.23373406396934615
0.5943953240797255 13.039514402700126 38323.70554437206 11.263336106342805 0.23705486859566036
0.614833258041667 13.024492449694629 32899.329025997555 11.809547380178833 0.24041856823004623
0.635638700496467 13.012421916944609 28289.58317637545 12.379171793216221 0.24382679603750815
0.6568093174473348 13.003021371541635 24368.815955381197 12.972897390723594 0.24727749133951613
0.678341823990455 12.995972473669138 21025.80899831857 13.592052971275866 0.25077546161337877
0.7002297459363749 12.991067165843129 18170.975960919415 14.237835439743964 0.25432333360667
0.7224659337014583 12.98799750085462 15727.901360921624 14.911434640047826 0.25792309223833904
0.7450541749889031 12.986644799832112 13536.131698425872 15.613877908714494 0.26157461008073546
0.7679757178309665 12.986760241036208 11834.976606985327 16.346436244224883 0.2652798297419857
0.7912215819761246 12.98813953120303 10287.79684464296 17.11072360893295 0.2690434192298511
0.8147966028136293 12.99067123428333 8955.37516509684 17.908195253727786 0.272867811526933
0.8386799728560196 12.99412531339293 7806.697838640696 18.74021060015036 0.2767540341983295
0.8628610788813849 12.998401457056893 6813.328289899531 19.608126093174896 0.2807026745740673
0.8873432418323918 13.003362731412427 5954.829282881363 20.514022090650926 0.2847200415640479
0.9120993438324665 13.008851744734546 5210.543467615245 21.45969298576461 0.28880914904336474
0.9371195368698613 13.014745386211887 4564.766634067532 22.446615270921466 0.2929698564373985
0.9624043192339046 13.020957199485297 4003.9615298299145 23.476829910482344 0.2972060872279848
0.9879258566149544 13.027335525642094 3516.1341839157003 24.55275214565436 0.3015238817157757
1.0136677767952353 13.033798234187168 3091.666190414102 25.67631498262838 0.30592480145998807
1.0396335973111925 13.040247088356745 2721.0488221267296 26.849498652834775 0.31041024599276956
1.0657845635350804 13.046585527610116 2397.7458013558576 28.07539128025142 0.3149888829366044
1.0921176066035183 13.052708077701185 2115.516503750835 29.356035925605294 0.31966107469780536
1.118616602619021 13.058543640052724 1868.3249333288438 30.694212682814427 0.3244316721519177
1.1452479032448297 13.063996825371389 1651.8751232731897 32.09329700589312 0.3293085671640401
1.1720120168782158 13.069009826624015 1461.8898004542364 33.55525513617246 0.33428961988923095
1.1988694674780649 13.073467927766917 1295.2331771560869 35.08461801398773 0.3393883187850241
1.2258149673504741 13.07733294514827 1148.87778883814 36.68339434034913 0.3446013354008465
1.2528122195982803 13.080497013170362 1020.0471062713461 38.35665136648655 0.34994319861496026
1.279855492013546 13.082939749180019 906.5749573579676 40.10664429673531 0.35541057507901197
1.3068985377952274 13.084526790180272 806.6208294988435 41.938816531364346 0.36101786058151064
1.3339367236521935 13.085239298842806 718.4884801436192 43.85667904548799 0.366767136810708
1.3609450205952036 13.085031447379645 640.519124319415 45.864896248104934 0.372666022377361
1.3878770053104177 13.083774900867617 571.7050881041795 47.96881408389468 0.3787245435142447
1.4147339807899677 13.081478411761559 510.75143351445973 50.17320326747261 0.38494842125182593
1.4414577584256856 13.078026182400084 456.81417136312405 52.483258067726844 0.391344492499959
1.4680518290797802 13.073428995524367 408.9474928200592 54.905408162940546 0.3979245165690881
1.4944616895851979 13.067561638851467 366.4666049750854 57.44584402290445 0.40469755549192055
1.520674470107715 13.060411499542239 328.7876231852772 60.111194280405684 0.4116733814714585
1.5466577550888814 13.05192634287089 295.2447638646626 62.908565175833694 0.4188625353559719
1.572373724941017 13.04204224488733 265.41935588358933 65.84558377844621 0.42627638988828137
1.5977990096297054 13.030712696696442 238.8878055190318 68.93044536770428 0.43392721828817404
1.6228849394343676 13.017889941002197 215.19521724696918 72.17196540575243 0.44182826879522386
1.6476371338930595 13.003549448774145 194.06848426272302 75.57963658616306 0.44999384587509916
1.671985175639048 12.987617300315943 175.1935936936679 79.16336598738239 0.45843803955132817
1.6959233672704865 12.970060784393729 158.33988574824406 82.93340957665465 0.46717438786377163
1.719403164341303 12.95084947203836 143.25452715545623 86.90247575985845 0.4762243130385809
1.7423858424836396 12.929908191939447 129.7636626245982 91.08211565482857 0.48560204674640783
1.7648679190932801 12.90725594526499 117.6599063931721 95.48647670617991 0.4953297358170468
1.78679550010424 12.882818655660945 106.81013580809775 100.12917274065096 0.5054246834223468
1.8081330785416105 12.85655760462324 97.0694808647888 105.02675970122128 0.5159127052483112
1.8288424334611944 12.82842115064669 88.31714049018142 110.19578134048213 0.526816342528583
1.8489216352430045 12.798452653645553 80.45009052039154 115.65391081181018 0.5381591169375427
1.8682981287245668 12.766511629189162 73.3752446358932 121.42128502519407 0.5499700875085467
1.8869760441552634 12.73268905061475 66.99691953755722 127.5193424987577 0.5622791066884927
1.9048990135538952 12.696870480813809 61.244569094294704 133.97055752236787 0.5751155855098025
1.9220396145562602 12.659051476919204 56.065681573427646 140.8006228658557 0.5885158441160443
1.9383527108925092 12.619162805732664 51.38278682474727 148.0372126709384 0.6025181256422273
1.9538495986975408 12.577314728115823 47.15735200326098 155.70879909246412 0.6171580924598723
1.968465027219347 12.533383247787619 43.33146258578249 163.84906347220408 0.6324834524196411
1.982178521567908 12.487379462884368 39.873795942051466 172.49182831010123 0.6485359190058988
1.994967118139962 12.439302817864045 36.737974453952965 181.67630913831223 0.6653683951468232
2.0068031743428927 12.389138507343276 33.89833513916888 191.44455755480473 0.6830354471600392
2.0176490414132897 12.336861477596912 31.322965143434573 201.84261639211346 0.7015963198415504
2.0274864774901022 12.282473955219757 28.987312312957197 212.92039412184852 0.7211135354138771
2.0362939582086272 12.226005812921388 26.865611399823486 224.73348605150744 0.7416577592098531
2.0440375269089834 12.167408494219572 24.93872943004845 237.3429663005735 0.7633058066928093
2.05069565904708 12.106699121920364 23.1841734745383 250.8157644288022 0.7861404532825067
2.056268033075384 12.04394991451298 21.59086325252489 265.2250748828167 0.8102501350282286
2.060713161045086 11.979097968970828 20.138580862608116 280.652436933098 0.8357338522180674
2.0640184428088477 11.912203287345857 18.81945057415852 297.18781097262024 0.8626992831785963
2.06617562088666 11.843297465764607 17.615124911496967 314.9315436545851 0.8912667659008091
2.067168896840887 11.772403971846627 16.521450890935384 333.9929875525944 0.921561927805954
