M[M_sun], R[km], Lambda[1], P_c[MeV/fm^3], rho_c[fm^-3]
0.24162668629717493 15.618656898711224 2160425.4255784233 3.5677272577965504 0.1711233750220791
0.25364145735830634 15.277362015343076 1723273.7402244997 3.784794419001041 0.17388785910929613
0.26603745890134983 14.98129472037472 1383009.4356341877 4.011348538372323 0.17666602129962597
0.27881093734929957 14.723594100646366 1116527.2293785643 4.247646490934772 0.1794565663470976
0.29196293358486464 14.498518079872726 905967.9951627186 4.494313053277515 0.18226605307843494
0.3054967293480181 14.301354427032807 738722.7971006376 4.751501583690858 0.18509014376945102
0.3194113797225272 14.128253950101241 605192.9917933504 5.019898041861329 0.18793553799331306
0.33370720222464756 13.976051008646335 489810.5617528479 5.299721406213107 0.1907987595717683
0.3483862642904222 13.842098634434986 411076.95106774283 5.5917061310969425 0.19368622349413137
0.3634468796040538 13.724109243804572 340724.37376545824 5.896012107123495 0.19659285643084337
0.3788986486712957 13.620106073562534 283356.0199993132 6.213506416629651 0.19952640248485015
0.39472743037966435 13.528577447225043 236464.44760648283 6.544451718607868 0.20248313354452765
0.41095025828807813 13.448003315775074 197920.17448895707 6.889539884858764 0.205466583260532
0.427555898626133 13.377176233142306 166133.52496053444 7.24948052962428 0.2084799092552306
0.44454824157532663 13.315016615274175 139846.31745476223 7.624540183351812 0.21151877964997484
0.4619260331711669 13.26066866278751 118017.08643386253 8.015652669479476 0.2145891225518968
0.47968874297469466 13.213247001056116 99845.46315907786 8.423529685211257 0.21769269679313058
0.49784216808363585 13.172070807445298 84671.67972513671 8.848622391944808 0.22082712020488443
0.5163764956161644 13.136487580168684 71960.34325716154 9.291783402989397 0.22399550954427833
0.5352931511429356 13.105904023067286 61297.07108334182 9.753906815355045 0.22720092391421992
0.5545945812322628 13.079879110765928 52317.85641547735 10.235801804864444 0.2304447135894735
0.5742739060721058 13.057901788020882 44747.756876419255 10.737953891239812 0.23372375965707817
0.5943293757456494 13.03956510081359 38344.08016344226 11.261578918319854 0.23704388965309436
0.6147630829130508 13.02455188315197 32916.03699056356 11.807627579820927 0.24040689264075402
0.6355605047172889 13.012471492041003 28307.081397353366 12.377078353037488 0.24381440062287038
0.6567294003863452 13.003039863444256 24381.921840975083 12.970639924087113 0.24726458858593975
0.6782569755174195 12.995997391459898 21037.88549676692 13.589599423175722 0.250761800914902
0.7001419085671188 12.99107959978816 18181.12408642874 14.23517265555091 0.2543088878724654
0.7223711038545625 12.988013139363314 15736.721613025527 14.908548619960149 0.25790783276224194
0.7449556405566585 12.98665340679226 13641.47781531418 15.610781910982652 0.2615587853939867
0.767871443939427 12.986755935098444 11841.624948456847 16.343088344761615 0.2652631413028435
0.7911133342306316 12.988128354750174 10294.478431768102 17.107107006495827 0.2690258329168837
0.8146821802724619 12.99066065778143 8961.258138796233 17.90429203322155 0.27284929102472455
0.8385609074635691 12.99411431168249 7811.249329861894 18.736038073422087 0.27673486359693644
0.862738429342329 12.998383442249395 6818.478497447144 19.603630010372044 0.28068250348606194
0.8872091532296661 13.003331421286854 5958.832092520091 20.50918081380855 0.28469882633827276
0.9119648492485131 13.008816828829008 5214.299661406575 21.454483395267705 0.28878684308548663
0.936980561851793 13.014713479283165 4568.028262256641 22.441059067197877 0.2929467791303534
0.9622550338783152 13.020906324793803 4006.9155679016803 23.470857371585055 0.29718183097290873
0.987776295417215 13.027300146938652 3518.739096237466 24.546335161566905 0.30149839008428164
1.0135149318134673 13.033757558005327 3094.0241576775575 25.669478391515693 0.3058984177382311
1.0394731119463363 13.040215031607532 2723.2359287333393 26.842158881750713 0.31038251765928326
1.065623565607937 13.046547301779032 2399.7564490150226 28.067513974773664 0.3149597413583272
1.091948295610996 13.052668354285641 2117.2287216943496 29.347649002853828 0.3196308869254969
1.1184409428814497 13.058509919854329 1869.7766368975924 30.685216018907628 0.32439993583701715
1.1450695812984446 13.063963012317508 1653.1902384800676 32.08371996240913 0.32927566138592995
1.171827740224396 13.068977704486336 1463.130524413336 33.54498538438952 0.33425500976686673
1.1986796769474377 13.073444382799117 1296.3381907028815 35.07360708730837 0.33935190863556447
1.2256223377462165 13.07730638433203 1149.8118105132937 36.671674189606236 0.34456352800879025
1.252613559750972 13.08047491688372 1020.909380326409 38.3441114581809 0.3499035405071067
1.2796531097357338 13.08292507295065 907.46074390634 40.093268777895034 0.3553691956921923
1.3066920672168767 13.084513550498496 807.3535804449381 41.92457441939735 0.3609748045193639
1.3337255353392836 13.08523191549864 719.1316914530513 43.84141067718173 0.3667217513238832
1.3607316107107712 13.085035437147239 641.0952215617365 45.84863361336457 0.37261873284464797
1.3876597110317306 13.083788140437465 572.238827182758 47.95148772655085 0.3786752271081743
1.4145136435221315 13.081504203365672 511.21182342908133 50.15462321679975 0.3848963579022767
1.4412340533676946 13.07806243009139 457.2060561659339 52.46345381661392 0.39129011744641456
1.4678278026347569 13.07347047971281 409.3446021138145 54.88429202874207 0.39786767573347975
1.4942336051884595 13.067612718236184 366.81927209110484 57.42332122097734 0.40463808288586023
1.5204428765656524 13.060482387392396 329.0932109129413 60.0871622882893 0.41161109821821934
1.5464263303123578 13.052005972010745 295.53062871595694 62.882913033990135 0.41879724861554435
1.5721411229023496 13.042140129678181 265.678343685397 65.81819132049742 0.4262078916751087
1.5975637671876144 13.030825430152149 239.11159221116688 68.90118237224335 0.43385528416994956
1.622651333616162 13.018022771182485 215.4083398149609 72.14069066082915 0.44175265645973727
1.6474019866920366 13.003694197767983 194.25454861607335 75.54619685644441 0.4499142935505637
1.671751943544202 12.987777734959137 175.3703116394763 79.12776946139284 0.45835499326344525
1.695690446956782 12.97024402013631 158.4924370854399 82.89530899455295 0.4670868328370688
1.7191541280524048 12.951015568264246 143.40334755006063 86.86167501295743 0.47613191942119953
1.742158337149895 12.930131221374285 129.89308154009294 91.03859775926009 0.4855052354471295
1.764639164262745 12.907499035418391 117.7724260821309 95.43982248977552 0.4952273660488753
1.7865693412418697 12.883082871821715 106.91145889605204 100.07934158184396 0.505317149943505
1.807909257890364 12.856846045641324 97.16792573385543 104.97349322978594 0.5157995937845674
1.8286234102662249 12.828732968907124 88.40471861626914 110.13871201340724 0.5266968859111055
1.848705438541214 12.798788531851473 80.52872383815593 115.5926696555909 0.538032613841492
1.86809708154825 12.766905671143753 73.44522841960618 121.35567490017122 0.5498365293374288
1.8867735564644466 12.733079829304131 67.06563315394662 127.44902003075269 0.5621380091007038
1.9046992795861362 12.697288123745135 61.30829669321838 133.89532835655334 0.5749670597780359
1.9218464446556056 12.659500186529149 56.12078935371923 140.71982147251 0.58835841227459
1.938167413147323 12.61963447370545 51.43525985301198 147.95035523786714 0.602351051048288
1.9536718883702693 12.57782739071861 47.20446894316016 155.61564027140082 0.6169815471686279
1.9682954338697394 12.533920211325158 43.37443886535544 163.74895402603815 0.6322963185623663
1.9820198864769634 12.487953299383273 39.91229098261711 172.38401694160115 0.6483368571018145
1.9948168901581573 12.439902559100817 36.77425914131244 181.56032029531747 0.6651571198610319
2.0066570584631958 12.389756760194459 33.932757687587 191.31963812853172 0.682810878009245
2.0175198195461137 12.33753076806419 31.354132065607065 201.70793562256628 0.7013572747607666
2.0273667728279765 12.283179413157312 29.015247320258673 212.775374159292 0.7208598316656533
2.036186638398329 12.226744025112993 26.89130342658507 224.576784822554 0.7413868974050799
2.0439433403812353 12.168182317713134 24.962280272582404 237.17382049448122 0.7630173975554235
2.0506147806327797 12.107511081971964 23.205231647368752 250.63272846937883 0.7858321213057988
2.056194328731323 12.044776686519464 21.61022914586944 265.02686444419845 0.8099203013425841
2.060661173286658 11.979982296759124 20.157607965096428 280.43807130663146 0.8353822367524429
2.0639865486186317 11.91313348104248 18.836118145046566 296.95524556705857 0.8623224855502578
2.066156146410283 11.844254533248124 17.63191409908425 314.67890761539775 0.8908623452917548
2.06716388109416 11.77339775242329 16.53562590988941 333.7186148690703 0.9211285780690629
