M[M_sun], R[km], Lambda[1], P_c[MeV/fm^3], rho_c[fm^-3]
0.24162668629717493 15.618656898711224 2160425.4255784233 3.5677272577965504 0.1711233750220791
0.25363801427971105 15.277429525870915 1723295.3875577494 3.7847196462105934 0.17388692710253478
0.26602799204482636 14.9815292872941 1353731.476157366 4.011191354556728 0.17666412182597804
0.2788007811309189 14.723729045874755 1116753.4516445345 4.247401581936942 0.17945372577179278
0.2919449997813667 14.498817331121847 906209.7585988021 4.493973996239752 0.1822622775996284
0.30547357325058144 14.301659920237212 739019.003605076 4.751056870398029 0.18508534001714042
0.31938376883503716 14.128533023293706 605359.5534090262 5.019344400388369 0.1879297937493451
0.3336731142905156 13.976437366641408 498016.9744607677 5.299044265838997 0.19079194189178011
0.3483464629368812 13.8424841786372 411289.116362438 5.590903805227321 0.19367846077063053
0.3634006640277066 13.724512358461501 340914.17536344624 5.895066576535487 0.1965839758074652
0.3788457941287872 13.620437877343145 283541.17091145023 6.21240624501872 0.1995163702444513
0.3946677137986248 13.528898879029938 236616.45813471774 6.543198052270693 0.2024721405843709
0.41088315611381543 13.448292932508165 198053.08967314233 6.888108530001266 0.2054543932419208
0.42748150842201504 13.377485114355022 166265.63603253142 7.247858061807944 0.20846648699478892
0.4444666914546301 13.315299700502264 139957.61868040508 7.622731090624819 0.21150437810862519
0.461838049075737 13.260919823593898 118113.5841237368 8.013625407780843 0.2145734400436872
0.4795913782809976 13.213483093817135 99930.77828633954 8.421268454968635 0.21767569550284796
0.4977374790080252 13.172280758350729 84752.4362076515 8.846135533712436 0.2208091142887293
0.5162635440989239 13.136689402886427 72040.4584204393 9.289030685973493 0.22397613024487448
0.5351697855031959 13.106088599682307 61361.22645879885 9.750869585904905 0.22718012943370502
0.5544651662959227 13.080056424422496 52379.46675002199 10.232460276321445 0.23042246031291164
0.5741326265526836 13.058047165641414 44795.878442114554 10.734322584056063 0.23370044554012032
0.5941813283930886 13.039696745922074 38386.227166291326 11.257603243564184 0.23701904956527595
0.6146022170447961 13.024667971048347 32954.309356696824 11.803284064627432 0.24038047682138247
0.635389378966093 13.012566377722662 28340.98371171116 12.37234206070337 0.2437863566845131
0.6565450165407306 13.003101459591276 24218.573769445884 12.965532603522387 0.24723539723594715
0.6780661941026919 12.996071637537453 21065.72139726548 13.584048578754588 0.2507308953003254
0.6999403488622912 12.991110225106107 18205.77945677278 14.229148542072396 0.2542762067628376
0.7221594049733595 12.988030966698838 15758.201909393552 14.902019581768645 0.2578733112761839
0.7447316815349024 12.986654898326268 13659.552554387301 15.60377793833929 0.26152298573175253
0.767637953030661 12.98674602227313 11858.48919410812 16.335514630796425 0.2652253882382801
0.7908679918692911 12.98810859614534 10309.281740534829 17.098925563213307 0.26898604932866993
0.8144264924360178 12.990620686410262 8974.9172316049 17.89546235502196 0.27280739483301975
0.8382928379461028 12.99406697236892 7823.31220009547 18.726599314413146 0.2766914973830354
0.8624577114994911 12.998324756702468 6828.992690143398 19.593459501820842 0.2806368748283968
0.8869175565527627 13.003263300203173 5968.439472084007 20.498229635634985 0.28465083657750917
0.9116621860042614 13.008753526496195 5222.669707538302 21.4426992787379 0.2887363869110328
0.9366655428948585 13.01463968673307 4575.802470826454 22.42849108572564 0.29289457889044124
0.9619277944498086 13.020826044320891 4013.581881607444 23.457347886522502 0.29712696494001056
0.9874383523004187 13.027214834800471 3524.8079445408357 24.53182062576484 0.3014407307239137
1.0131651635198018 13.033677395493633 3099.2096667454543 25.654014968873515 0.3058387414121679
1.039112262568801 13.040121527793438 2728.008431648636 26.825557631098835 0.3103198011237001
1.0652514274749496 13.046457495896645 2404.020171313403 28.049697237429154 0.31489382949957867
1.091564335129501 13.052582975001535 2120.911727484654 29.328679899069527 0.3195626097989625
1.1180476948281899 13.058421570076504 1873.2752353348098 30.664868206581176 0.32432815761053024
1.1446629485372033 13.06388223876293 1648.3877561447996 32.061945613451066 0.3292005004136996
1.1714111102447666 13.068905575407996 1465.883724411186 33.521758999789576 0.33417673445602447
1.198257419053399 13.073381689614804 1298.8819789737975 35.048704909577665 0.33926956388480467
1.2251847351454392 13.0772573136945 1152.0548360074106 36.64516844828139 0.3444780245902769
1.2521664013902911 13.080432428972248 1022.918006805027 38.315697382619724 0.34981353094471357
1.2791951295350004 13.082885831929092 909.1754109101776 40.06302040022415 0.35527561731700863
1.3062263707493658 13.084497564548617 808.9633116034693 41.89236678448274 0.3608774359595817
1.3332502389096188 13.085229460518711 720.5295766814002 43.806882924235616 0.36661911698568844
1.360247909326307 13.085050691512068 642.4510335335505 45.81185804919522 0.3725117944996263
1.387168479561389 13.083817234225638 573.4328886857905 47.91230737599319 0.37856370718279486
1.4140072322458612 13.081540360609164 512.3344946922947 50.112608756326324 0.3847786287539409
1.4407366596823823 13.078151033279655 458.1846239911688 52.41867190274705 0.39116716308926935
1.4673116391940164 13.073559384302575 410.23090070870336 54.83654450958467 0.3977391479991121
1.4937179889283003 13.067741777371179 367.610686277591 57.37239390082715 0.4045036067021774
1.5199230615854753 13.0606406790896 329.79484766118316 60.03282349186681 0.41147026940128634
1.5459016434390487 13.052195019567353 296.1752154058777 62.8249120274714 0.4186496314426697
1.5716128535450795 13.042356212283263 266.25857396910664 65.75625657341251 0.4260530162157195
1.597028698221714 13.031068209987568 239.6349796071152 68.83501964236041 0.43369264334803476
1.6221230776052755 13.018299423393797 215.8777664969702 72.06998088195377 0.44158170281852854
1.6468712317497094 13.004017293236936 194.68690171400374 75.47059380656796 0.44973443568657256
1.6712257034441524 12.988144824103184 175.7710254985329 79.04704811508016 0.45816622221882847
1.695149738998213 12.970638655036447 158.85971904181042 82.8091717927223 0.46688888979813425
1.7186449859045125 12.951504395407525 143.72257438658852 86.76943541087792 0.47592304210523706
1.7416435625954 12.930650267123335 130.18831638269282 90.94021734918876 0.485286375247248
1.7641259942684715 12.908059212803128 118.04806864672393 95.33435434867913 0.49499594539741826
1.7860567933022833 12.883685730322393 107.16342553348275 99.96669390057467 0.5050740611344071
1.8073997949206615 12.857485924480553 97.38812504995968 104.85308233792291 0.5155439010033052
1.8281360216950682 12.829462117377872 88.61356832633865 110.00939232157926 0.5264256820290228
1.8482198065668454 12.799551629434278 80.7164816794424 115.45423844925692 0.5377466627381429
1.8676205701517108 12.767725711826866 73.61667565694607 121.20737149583626 0.5495346379533373
1.8863072920641655 12.73396377230747 67.21769365324326 127.29001251502514 0.5618188822853818
1.9042487146107696 12.698231505777645 61.45098729521619 133.72529031068336 0.5746313518791439
1.9210791523312298 12.660689849747017 56.31978269920157 140.58321999869685 0.6587220680673043
1.9357545402995935 12.620929531298078 51.91614512950791 148.00847320975635 0.7692567669297998
1.9481575206770478 12.578044127296115 48.10435073705914 156.0577870759298 0.8853049975847004
1.9582753504854205 12.531584224223254 44.797005239605134 164.78903584575284 1.007477161737863
1.9661404414500396 12.481289807043177 41.89647282731188 174.26647934685448 1.1364267493772335
1.9718076371192208 12.427071357972235 39.35039336648022 184.56150855917596 1.2728736130231797
1.9753169159937667 12.368794738835968 37.10619127186127 195.75358196585222 1.4175836515883098
1.976767750216012 12.306594129952073 35.11512713077865 207.9311969947393 1.5714051886204963
