M[M_sun], R[km], Lambda[1], P_c[MeV/fm^3], rho_c[fm^-3]
0.24162668629717493 15.618656898711224 2160425.4255784233 3.5677272577965504 0.1711233750220791
0.2536349728400406 15.277495966382473 1723494.7790052465 3.7846469237336593 0.17388602065194228
0.2660202598128636 14.98171242764213 1383459.523012266 4.011038485039444 0.17666227448807909
0.27878421511144147 14.724101254855782 1117009.28620342 4.247163401432378 0.17945096323687018
0.2919269297765358 14.499097171354814 906450.8127444991 4.493644262847375 0.18225860594177717
0.3054518452120349 14.301906716730727 739234.5906168256 4.750624397578473 0.1850806684853024
0.3193552083328221 14.128905421776023 605610.012943068 5.018806011006809 0.1879242077517122
0.3336401984797723 13.976780721878605 498226.23306625476 5.29838579672746 0.19078531220042477
0.34830720397141246 13.842772005483353 411476.8522590745 5.59012362116052 0.19367091227516298
0.3633549715482611 13.724767108663448 341093.547610244 5.8941471628852025 0.19657534047989306
0.3787937401394453 13.620763853410306 283711.38170780527 6.2113364884477615 0.19950661535259492
0.39461052924175727 13.529199629681981 236783.8068734982 6.541979072223466 0.2024614517761181
0.41081893458164176 13.448585406489546 198201.102301835 6.88671681173985 0.20544254078519467
0.4274101054109917 13.37772950088477 166382.65687209912 7.246280561177394 0.20845343673635117
0.44438769156440877 13.315586334035453 140073.96986539065 7.620972175738857 0.21149037601515439
0.4617510270990578 13.261167739592137 118220.5099344024 8.011654422290711 0.2145581928774477
0.4794959966160023 13.213727785043607 100014.17660175542 8.419070048162954 0.21765916655698558
0.4976343955413018 13.172500582770606 84828.96952384079 8.843717818075099 0.22079160899450456
0.5161513663633224 13.136864644051633 72112.1276651856 9.28635456612698 0.2239572901943184
0.5350505555292592 13.10626777786088 61426.679128086376 9.747916939602007 0.22715991405418864
0.5543364876195264 13.080190233534436 51945.29978381187 10.229211881132608 0.23040082726815705
0.5739951824373416 13.058178120565263 44844.96707099538 10.730792557546607 0.23367778167646427
0.5940349360863064 13.039820036510347 38430.283996674596 11.25373854364982 0.23699490285027422
0.6144457566474241 13.024751312723566 32990.64818790422 11.799061889550789 0.2403547989523729
0.6349869686691989 13.012572415470105 28420.3009518753 12.353378915407804 0.2625871838438346
0.6545681963770177 13.001616853382378 24717.284392126538 12.980561757349248 0.2987067548913426
0.6733852659021402 12.990330260733774 21650.67715729958 13.630734723449477 0.3318486890059235
0.6916087617406043 12.978027721939423 19062.61093804273 14.321183046547606 0.363745886875959
0.7093923962883578 12.964299595875751 16848.799137530586 15.05409072384879 0.3948323580206959
0.726862214277365 12.949060622941953 14932.29578768427 15.831003795231759 0.42516665134031606
0.744122694670429 12.93231265709869 13258.45886282321 16.65159298805901 0.4544787616488993
0.7612872764069499 12.914155961781661 11788.332043319615 17.517671259091273 0.4829532431666336
0.7784077320709517 12.8945299601645 10489.888663957294 18.432335944317728 0.5108885175348747
0.7955842602689159 12.87369509248959 9339.176567568758 19.393076284143884 0.5378573304027946
0.8128442564372793 12.851712341721617 8314.577652839393 20.406491915063626 0.56449994184001
0.8302478565032599 12.828697169243576 7402.214226142851 21.468941919691098 0.5903627965851279
0.8478392808470621 12.80486314477006 6588.754012584627 22.586938069987564 0.6159425571763076
0.8656606944247305 12.780349402020283 5862.489488237925 23.759950260102624 0.6410945128727131
0.8837148739170272 12.755165937171068 5214.407532993795 24.990010339817314 0.6659014441160813
0.9020330749842776 12.729577398781188 4636.440847758949 26.280998295873765 0.6905273273671322
0.9206199028302614 12.703477448588595 4120.962241216522 27.634909933795164 0.7150017090541225
0.9395127919361143 12.677263131454518 3661.1120046617007 29.053454882723337 0.7393431526133045
0.9586804923754996 12.650727797348521 3252.171849553016 30.539362347737594 0.7636167683156794
0.9781209467711773 12.623963624880604 2887.732284151405 32.09660192297692 0.7879233138932675
0.9978549312754295 12.597142886086289 2563.608204037953 33.7283857554522 0.8123116220679404
1.017861431951726 12.57029813853785 2276.053803734551 35.4382765071503 0.8368189807489801
1.038126405497482 12.543400616299863 2020.2784170484656 37.22887813881156 0.861354366003549
1.0586338090941085 12.516463968301773 1793.5628513690297 39.10481986211276 0.8862101592870305
1.079368447794718 12.489482942419011 1592.5676013969692 41.07127298773337 0.9115047520686268
1.1003054829629149 12.46244720990029 1414.331781482128 43.13344340034895 0.9373120625376925
1.1214027391068562 12.435263204664544 1256.4638764055383 45.292795823272286 0.9636116005830347
1.1426622888656484 12.40807583625739 1116.816551068601 47.55915584517021 0.9905763042206478
1.1640404026714377 12.380702540370278 993.0762534351177 49.93425636250403 1.018185751979394
1.1855066931513614 12.353148005761481 883.5897886469547 52.42743966200749 1.0465806809075724
1.2070219403930693 12.325287781787429 786.7033990431655 55.044005730246546 1.0758080129314382
1.2285540113525095 12.297154255122697 700.9347319118323 57.7899708327027 1.1059274501530194
1.2500719639530748 12.268651697909444 625.00741553162 60.67431847697251 1.1370479878898458
1.271535362175058 12.2397194406813 557.8242004008141 63.70503197018179 1.1692528837714293
1.2929086017848928 12.210216350974598 498.27573509782405 66.89093187635464 1.2026345567380028
1.314150647884737 12.180209837785974 445.55998100693694 70.24144890056361 1.2372900498921595
1.3352173941114607 12.149567461478663 398.822089718859 73.76548962698126 1.2733038683263345
1.3560706487568726 12.118081996516146 357.3885962887454 77.47606372705367 1.3108177280769282
1.376685387629319 12.085907156858262 320.59181144499445 81.38394897195558 1.3499335991682042
1.396995481001699 12.052793271310657 287.9359668266542 85.50268751748192 1.3907882704440588
1.416968891031074 12.018737510301591 258.9333405798694 89.84472869144224 1.433498388239442
1.4365472963978565 11.983620741193446 233.17264875773475 94.42640195309477 1.4782279767144841
1.4557328939030438 11.94744564777169 210.20636642086134 99.26363229213315 1.525129418134953
1.4744463108652777 11.91017953453708 189.80605430630388 104.37402257661171 1.5743714206675241
1.492657357101973 11.871486374691877 171.56382481060248 109.77697546107518 1.626139540682811
1.510312516060778 11.83154680829734 155.3292234085128 115.49186673529367 1.6806137772062706
1.5274117456408496 11.790306012697279 140.8224696610958 121.54306504796295 1.7380280896775344
1.543867849418207 11.74764778293953 127.87896077850216 127.95345617964013 1.7985927360235643
1.559662402208284 11.703407372722259 116.27709282157019 134.75088615777213 1.8625693097599176
1.5747599243788124 11.65770996490791 105.90281505341297 141.96407128725917 1.930222442477836
1.5891275091923225 11.610412389952735 96.60624909782274 149.6247899346598 2.0018443870914107
1.602723493661306 11.561455435799848 88.25986924905841 157.76801922684467 2.077755606136266
1.6155121855724899 11.510827936946614 80.76565437346667 166.43022293523703 2.1582859613189185
1.627463662203446 11.45849417779951 74.0316365455498 175.65438593860685 2.2438294301757122
1.63854130107951 11.404431439364016 67.98289537346223 185.4852319744965 2.334795511051489
1.6487354412685011 11.348600357942056 62.52191239684897 195.972244153453 2.431655376883622
1.6580046490980378 11.29096293227924 57.60912270646654 207.1702471813584 2.5350124313913223
1.6663113666596685 11.231550089586136 53.17852581840388 219.1389603220474 2.646057253606307
1.673668808135984 11.170296807788782 49.16509838862214 231.94533141273044 2.7747125076572576
1.680014179555801 11.107254330422982 45.547732315590416 245.6621740585768 2.885932058799032
1.6853827016119782 11.042313120922378 42.26523703447426 260.35534411848175 2.98338919633637
1.6897695836472546 10.975525836416642 39.28601691003754 276.1113876381698 3.086690464088673
1.69316110997435 10.906969711820064 36.583971449251145 293.0250140381486 3.1962656727237406
1.6955444921418048 10.836665913760186 34.12802365507112 311.2027031527292 3.3126037219653575
1.6969087237010307 10.76465871615052 31.898719544291794 330.76135730718545 3.4362250179104734
1.6972438212693375 10.69100368630272 29.872714114829087 351.83141434645114 3.5677071691295894
