M[M_sun], R[km], Lambda[1], P_c[MeV/fm^3], rho_c[fm^-3]
0.24162668629717493 15.618656898711224 2160425.4255784233 3.5677272577965504 0.1711233750220791
0.25364198483089595 15.277379751008667 1723125.5483937105 3.784803068737441 0.1738879669240876
0.26603799844468884 14.981300826335252 1383023.8041640976 4.011366721722477 0.1766662410346815
0.2788113230302555 14.723606549708006 1116507.5886274576 4.247674822944072 0.17945689495571007
0.2919650629293413 14.498487416883847 905925.552961279 4.494352277269409 0.18226648984668808
0.305499422147714 14.30130508483058 738707.1232953538 4.751553031350117 0.18509069950236037
0.3194147556763317 14.12822341753239 605181.5406017206 5.019962092026434 0.1879362025384971
0.3337110370159396 13.976030555468745 497727.7250626771 5.299799744968309 0.1907995483130457
0.348391314141763 13.84209917382395 404808.9278757423 5.591798953892619 0.1936871215802142
0.36345187639614646 13.724074584649689 340696.9731460492 5.896121499134568 0.1965938838637612
0.3789044249806747 13.620079700065922 283340.82443645044 6.213633701441988 0.19952756316907777
0.3947345341483856 13.528528247341379 236437.68256637233 6.544596763925846 0.20248440539601972
0.41095797235025705 13.447947678679823 197903.3112650942 6.889705490480096 0.20546799362749696
0.4275643559953878 13.377135264899906 166110.35464998655 7.2496682493112665 0.2084814622120926
0.4445572395640726 13.315017787428145 139835.05059767753 7.624749498136665 0.21152044593025124
0.46193676867315847 13.26063707349541 118004.24858849529 8.015887229919167 0.2145909370665318
0.4796993865331028 13.213221188585694 99834.88144893547 8.423791320056518 0.21769466392140813
0.4978545382723999 13.172046407644638 84663.83487258345 8.8489101364009 0.2208292035976903
0.5163901748941196 13.13646365472078 71955.14885027365 9.29210191313704 0.22399775187557452
0.5353073627002134 13.105890064515398 61292.03576376432 9.754258250393853 0.227203330024521
0.5546120865013425 13.079862536199734 52314.86052651481 10.236188455179065 0.2304472885297361
0.5742920221063977 13.057887285367636 44741.721498612234 10.738374076782573 0.2337264573784199
0.5943463901147703 13.039553604451442 38337.385833972316 11.262038957317865 0.23704676398507893
0.6147805556429048 13.024545173845171 32911.01045979533 11.808130189471006 0.24040994934601218
0.6355797755018014 13.012452329821135 28301.93660769611 12.377626420034481 0.2438176457682278
0.6567502083350363 13.003044786256636 24378.69333011049 12.971230931653212 0.24726796654283353
0.6782796811610231 12.995986380674319 21034.7970573744 13.590241762670038 0.25076537728911336
0.7001652801933067 12.991064680275496 18042.37244998246 14.235869770452826 0.254312669754831
0.7223969394413894 12.987999061480988 15735.222494809312 14.9093041749725 0.25791182766640086
0.7449820647017645 12.986644808410869 13639.438400402736 15.611592435219448 0.2615629282562432
0.7678986067917005 12.986761610976496 11840.020289491818 16.3439648128828 0.26526751027660184
0.7911414390901598 12.988125432139059 10292.927707204712 17.108053816476147 0.2690304369332012
0.8147130137711135 12.990651930292946 8901.270738810434 17.90531387458132 0.2728541395889115
0.8385920950418428 12.99412024695417 7809.983102343688 18.737130414223635 0.2767398823377272
0.862770410209044 12.998390284980381 6817.254733501299 19.604807051544704 0.28068778412748263
0.8872429312105821 13.003342725455129 5958.122131219589 20.51044821931006 0.2847043803056947
0.9120002893633645 13.008831540476537 5213.311236128917 21.455847216863276 0.2887926825746139
0.9370169153129398 13.014720707229097 4567.207843051627 22.442513624262016 0.2929528205322986
0.9622924984322434 13.020918812854104 4006.474071138264 23.472420914761123 0.29718818098632066
0.9878146381570455 13.027317756995211 3518.022366905175 24.548015048801034 0.3015050634787829
1.0135545315710837 13.033767735174761 3093.4812376966033 25.67126812093798 0.30590532464875414
1.0395151673870375 13.040220370245589 2722.6352923818936 26.844080329318803 0.3103897765422013
1.0656649258163082 13.046547761957322 2399.3929749617487 28.06957613281064 0.314967370177601
1.091992406818186 13.05267614908142 2116.6039066417757 29.34984456366478 0.3196387895963351
1.118488022643972 13.058516921524284 1869.4473332918085 30.687571190350287 0.3244082438568925
1.1451161005350066 13.063973434622168 1652.8443826326097 32.08622705878614 0.3292842755221423
1.1718758758139298 13.068986121493689 1462.8523826687983 33.54767380788474 0.3342640700312337
1.1987293465606566 13.073446852136508 1296.0573040514269 35.076489523808135 0.3393614400716389
1.225672410312512 13.077316754809603 1149.594656055906 36.67474227582026 0.3445734251799871
1.2526653387007267 13.080487536901327 1020.6561734767939 38.3474004867168 0.3499139594284817
1.2797056101717663 13.082927248485865 903.289046997117 40.09677017634369 0.35538002784925077
1.306744814448068 13.084523876384505 807.1504869715633 41.9283026580685 0.3609860755496925
1.3337809429532905 13.085230728396018 718.9043167237986 43.845407546588234 0.366733632086788
1.3607869143164952 13.085038681473607 640.9610890108726 45.85289074027813 0.3726311119914256
1.387716893828705 13.083781976555514 572.1127909878144 47.95602329040434 0.37868813678701324
1.4145711777720669 13.081498669674847 511.0972275519279 50.15948693989035 0.3849099865903699
1.4412921062568762 13.078051549694278 457.09625939785315 52.46863797946173 0.3913043512152567
1.467885371998306 13.073460643661107 409.228786904901 54.88981958094619 0.39788255490990465
1.494292936753891 13.067599535460957 366.7257690101792 57.42921697082399 0.4046536509137279
1.5205039138136718 13.060463534325777 329.0148786794188 60.09345306913913 0.4116274019143442
1.5464862207589405 13.051985937669171 295.4472395494693 62.889627887265334 0.41881433845098426
1.572201534190484 13.042114368673394 265.6075892650599 65.82536169711726 0.4262258220845357
1.5976247915547914 13.030795469435262 239.0492194226351 68.90884235458013 0.43387411389214076
1.6227052173063374 13.017958630151629 215.35075896052837 72.14887720751413 0.4417724489125915
1.6474638746635482 13.003655669327735 194.2000156070595 75.55495007263914 0.4499351172444545
1.6718124873931461 12.987733798856373 175.33083513606326 79.13708720477894 0.4583767314521631
1.6957509691935482 12.970196548883173 158.45409283796326 82.90528214952697 0.4671097511181526
1.719215725756757 12.950959980144038 143.37189738840055 86.8723549045118 0.47615610412096354
1.7422190205319037 12.930073319603416 129.85888508639712 91.04998883335158 0.4855305763940794
1.7647017171879356 12.90743317863928 117.74937527465717 95.45203444906504 0.4952541618143545
1.786627270402472 12.883014320094889 106.87501314440996 100.09238505865409 0.505345297200586
1.8079681299975647 12.856771492838938 97.14172980214518 104.9874358429776 0.5158292009529047
1.8286817121956074 12.828652070881517 88.38012831561305 110.15368649240763 0.5267282897659993
1.8487630648153346 12.798700428619117 80.51198742420742 115.60869948233913 0.5380657259320859
1.8681516397036229 12.766810846999261 73.42572173489734 121.37284820844404 0.5498714878997568
1.8868256199675955 12.732978098715428 67.04896003680808 127.46743321000214 0.5621749642045362
1.904751243203487 12.697178833599576 61.293542694628364 133.9150192186285 0.5750059356537306
1.921897802112185 12.659383152920503 56.10540831738516 140.74097071154927 0.5883996190348876
1.9382160183590955 12.619512196163287 51.42189251863412 147.97308946605895 0.6023947814673133
1.9537186512799554 12.577694632277755 47.19337786005679 155.6400236984225 0.6170277562036494
1.9683387644666077 12.53378099849739 43.3628290166483 163.77521098319107 0.6323454829824573
1.982063341821612 12.487805832976544 39.90079446623027 172.41223517441 0.6483889589833783
1.9948570462278363 12.43974609504307 36.76611675491425 181.59067868341435 0.6652124180858933
2.0066927429490002 12.389593096252106 33.92263732082329 191.35233375072707 0.6828696553213905
2.017553766697711 12.337355945292412 31.346154133622402 201.74318587566663 0.701419840482869
2.027396428523064 12.282992959688654 29.0073658467153 212.81333026163244 0.7209262335958564
2.036215592119781 12.226549689636283 26.885244119656665 224.61779796234595 0.7414577895935947
2.043967871139298 12.167979702986568 24.955948095009706 237.2180904180105 0.7630928818417454
2.0506365551660366 12.10729848377978 23.200243182199426 250.68067097796308 0.7859129415383999
2.056211591231351 12.044554748201653 21.60483315245532 265.0787405395732 0.8100066261792253
2.060675953646416 11.979750225360476 20.152964995785897 280.494177856642 0.8354742704982022
2.063996295614795 11.912893177859775 18.83197084498133 297.016112161128 0.8624211003387945
2.0661612331331685 11.844003965862711 17.627657960110607 314.74502648659313 0.8909681885999575
2.06716549045345 11.77313831649658 16.531738608280726 333.7904219531983 0.9212419916225337
