M[M_sun], R[km], Lambda[1], P_c[MeV/fm^3], rho_c[fm^-3]
0.24162668629717493 15.618656898711224 2160425.4255784233 3.5677272577965504 0.1711233750220791
0.253644417231495 15.277267310439541 1723196.4306086286 3.7848272634518314 0.17388826849953054
0.2660407090584988 14.981233700001942 1383051.859891456 4.011417583812607 0.17666685567302398
0.2788153843234175 14.72352201163262 1116409.053057578 4.247754073124427 0.17945781413837472
0.29197145009833625 14.498396991619828 905899.7496922675 4.494461995094713 0.18226771158013702
0.3055088300022436 14.30114477305905 738596.6605328886 4.751696942211548 0.18509225401432183
0.3194244864603392 14.128080810347061 605081.868402207 5.0201412559725584 0.18793806143358907
0.3337243882219723 13.975917919066337 497671.2052368744 5.30001887884413 0.19080175462756638
0.34840403260088476 13.842002068369487 410990.99966950074 5.592058604784185 0.1936896337740176
0.36346687793640037 13.723965145182856 340632.57037343906 5.896427500392169 0.19659675789232933
0.3789216002877606 13.619970382912157 283290.1253847569 6.213989756044941 0.19953080995833905
0.39475271917929444 13.528448228578545 233273.6140676069 6.545002502161558 0.2024879631722214
0.4109794661054052 13.44786954639297 197857.72892904098 6.890168744996599 0.2054719388973567
0.4275880120572106 13.37702963333893 166074.23929360617 7.25019336713645 0.20848580637728417
0.4445838160991389 13.31492211022344 139797.20411145306 7.6253350278659155 0.21152510712339045
0.46196567906049507 13.260549081866769 117975.02228246504 8.016543384439297 0.21459601295222314
0.4797312528024145 13.213131058057455 99804.6925098551 8.42452321583856 0.21770016675451756
0.49788982746533605 13.171966739782974 84635.3832504488 8.84971507480486 0.22083503169565868
0.5164276382776016 13.13638922620105 71936.40090760724 9.292992920367881 0.22400402462202748
0.5353463200143794 13.10583488501351 61273.834146762114 9.7552413675596 0.22721006096503196
0.5546543966481573 13.079791334728139 52300.75185004192 10.237270090464015 0.23045449179878658
0.5743374426414136 13.057843347955519 44727.04286400776 10.739549530471066 0.23373400415521
0.5943947044429578 13.039515028436506 38323.3928859584 11.263325906222445 0.23705480486512376
0.6148334787165508 13.024508290291624 32898.88909139118 11.809536236069453 0.2404185004552677
0.6356386056934785 13.012420282888364 28058.33852954218 12.379159641095164 0.24382672408389763
0.6568088376664478 13.003008881447872 24368.125904831726 12.972884286395674 0.24727741644055143
0.6783413470806354 12.99597254360797 21025.9613639635 13.59203872864522 0.2507753823142272
0.7002292551212158 12.991053122805326 18170.37340365987 14.237819982437024 0.25432324975002546
0.7224643053378212 12.98799797050395 15727.959983751525 14.911417886783584 0.25792300365751575
0.7450531573560676 12.986655826950791 13632.67743572011 15.61385993645967 0.26157451821849026
0.7679750938512895 12.986746813166148 11753.392752422627 16.34641680958176 0.26527973286516415
0.7912210504436481 12.988141821458584 10287.75503203646 17.110702614354004 0.26904331714032304
0.8147961684040002 12.99066753735629 8955.420950950698 17.908172595197872 0.2728677040138287
0.8386797281036336 12.994133478521947 7806.790980845013 18.740186378172428 0.2767539229108737
0.8628589181744014 12.998412865390518 6813.47063946016 19.60809999278271 0.2807025574780682
0.8873411386237862 13.003356690947196 5954.5636471410335 20.513993986212128 0.28471991840603944
0.9120988131504479 13.008858718267513 5210.618803194186 21.45966274304339 0.28880901955279037
0.9371186450708874 13.014739513313623 4564.651247751821 22.44658301590329 0.2929697224684162
0.9624035432801358 13.02095582736911 4003.974017795231 23.47679523836038 0.29720594641419545
0.987925050424746 13.027343934776553 3516.173416161205 24.55271489321481 0.30152373372951796
1.0136673133705043 13.033795556818568 3091.7115298498297 25.6762752940775 0.30592464829422666
1.0396323002128744 13.040250466531907 2721.0447513242175 26.849456042935675 0.31041008502024353
1.0657844824836833 13.046576148496104 2397.8388170169223 28.07534554952966 0.31498871375877935
1.0921162483349114 13.052711700774474 2115.5157514618163 29.355987236147588 0.3196608994456531
1.118614810226547 13.058542450705225 1868.3296232739765 30.694160453273202 0.32443148790882664
1.1452469327647972 13.063999072342519 1651.8980559189354 32.093241406744625 0.3293083761308422
1.1720107981061094 13.069014550901278 1461.8680240846452 33.55519551519406 0.33428941896038655
1.1988681074492578 13.073467052854006 1295.2644923831315 35.08455408975503 0.3393881074049165
1.2258139561233103 13.077335681657145 1148.8864268225361 36.68332629837712 0.34460111590797743
1.2528107771942676 13.080500359893394 1020.0118199351973 38.35657893062143 0.3499429705213652
1.2798540642174336 13.082937466311352 906.5875300594545 40.10656664359969 0.3554103348461526
1.3068970485990246 13.084524311367987 806.6402851265285 41.938733846714406 0.3610176106132872
1.3339355722768478 13.085234145055338 718.502039029036 43.85659040221356 0.3667668733170535
1.3609440474025407 13.085034692624093 640.5233419039993 45.86480183195645 0.3726657478280267
1.3878760763772127 13.083774452256888 571.7201704828459 47.96871349155933 0.3787242571959864
1.4147331253457376 13.081479170642787 510.74938350149364 50.17309539582622 0.3849481189835851
1.4414565353762463 13.078026796438186 456.80996792217456 52.483143088025784 0.39134417680877903
1.4680508319344103 13.073429232937986 408.9492397530177 54.90528556602345 0.39792418656023587
1.4944603107154304 13.06756157413464 366.46824456767183 57.44571325836483 0.404697210201491
1.5206729161457548 13.060414398444287 328.78794217098397 60.11105475289939 0.4116730198606954
1.5466562868401077 13.051925357160512 295.2427892442908 62.90841624101703 0.41886215630502266
1.5723722848027726 13.042043841933516 265.42634457726894 65.84542473850493 0.42627599218933004
1.5977976488691863 13.030713350996605 238.88912924402706 68.93027546642732 0.43392680063788397
1.6228836296365763 13.017890335053586 215.19358353318415 72.1717838230974 0.44182782978641133
1.647635582373736 13.00355010302266 194.06580010560631 75.57944243225732 0.4499933839875585
1.6719849995225957 12.987618037273016 175.19796975041103 79.16315930980281 0.45843755737489955
1.6959220122699632 12.970061261609942 158.3406091552756 82.93318835874243 0.46717387950565364
1.7194019480768252 12.950849460634403 143.2529006988496 86.90223886273293 0.4762237765831472
1.7423842156371663 12.92990652119408 129.75691724158776 91.0818629798873 0.48560148463766983
1.764866460895112 12.9072585878517 117.66062799458473 95.48620581906864 0.49532914143023854
1.7867936881942645 12.882820896901576 106.81072897504072 100.12888340549303 0.5054240590496285
1.8081317666152266 12.856560273616473 97.07021322763727 105.0264504175273 0.5159120484837387
1.8288410971269062 12.82842227113786 88.31590084663257 110.19545047157341 0.5268156507697085
1.8489204668934835 12.798454828976812 80.4485433126827 115.65355521902201 0.538158382405548
1.8682961390845134 12.766513305528699 73.37495443610409 121.4209040615011 0.5499693120060755
1.8869752414980623 12.732691102596 66.99788875588436 127.51893547360098 0.5622782920598671
1.9048981823613642 12.696873323621732 61.248035750859074 133.97012069968184 0.5751147230861879
1.922038192858473 12.65905539339855 56.06366034166893 140.80015368392964 0.5885149299712316
1.938351789322342 12.61916431325623 51.38250024383843 148.0367083197932 0.6025171554977065
1.9538481537755914 12.577317769443207 47.157966791430354 155.70825814720078 0.6171570673144489
1.9684630867865955 12.533387126422157 43.33154757752437 163.84848265438254 0.6324823674471236
1.9821775625862716 12.487382081889953 39.87312471949629 172.49120227121122 0.6485347630935381
1.9949668257211024 12.439305072159536 36.73925407191408 181.67563560871025 0.6653671683033142
2.006802457385445 12.38914260686787 33.89892091933903 191.44383216021342 0.6830341431094825
2.0176479352535646 12.336865287544843 31.322558720605844 201.84183430716672 0.7015949317179162
2.027484233742244 12.282478933049852 28.98770474359854 212.91955199030107 0.721112062155118
2.0362925428333267 12.226010838873453 26.86513013063032 224.7325760777555 0.7416561862985594
2.0440367759717466 12.167412296264152 24.938050481387716 237.3419840510167 0.763304131867084
2.0506958923139544 12.106703495034376 23.184525063282376 250.81470280613854 0.7861386669759257
2.0562675989914805 12.043954901399527 21.591057065043994 265.22392382733057 0.8102482196050248
2.0607134059061885 11.979103425410337 20.1390446263763 280.8011701691373 0.835902005969234
