M[M_sun], R[km], Lambda[1], P_c[MeV/fm^3], rho_c[fm^-3]
0.24162668629717493 15.618656898711224 2160425.4255784233 3.5677272577965504 0.1711233750220791
0.253644959643418 15.277270639810668 1723273.3101737516 3.7848379382142947 0.17388840155529497
0.26604138791082643 14.981234911316955 1382907.7774130625 4.011440024427936 0.17666712685461666
0.27881751989219283 14.723481173822655 1116364.2010528843 4.247789038931701 0.17945821968904674
0.2919735120727349 14.498352882369497 905850.6685428304 4.494510403766075 0.18226825062192772
0.3055103286984694 14.301164865156434 738608.0559260423 4.751760437610242 0.18509293988581052
0.31942871577042564 14.128034270945001 605042.5954211068 5.020220305970482 0.18793888160782804
0.3337253927295176 13.975974958075037 497655.0403714204 5.300115564802218 0.1908027280947333
0.3484097864097092 13.841953392245472 410950.2993478345 5.592173168255911 0.19369074220712187
0.363473975303742 13.72390649066124 340618.12818316073 5.896562515429325 0.19659802598213055
0.37892749543283305 13.619953210570438 283262.96863434825 6.214146856736005 0.19953224252748
0.3947620349829063 13.528393330593342 236371.71031861432 6.5451815255476555 0.20248953296546873
0.4109890127953202 13.447802881488204 197837.84502190992 6.890373147403129 0.20547367967402488
0.4275992841836992 13.376985921138017 166056.05319174592 7.250425066904921 0.20848772317008918
0.44459540211135057 13.314879815477143 139777.75009015598 7.625593384742202 0.21152716381024864
0.4619785089770756 13.260509554251021 117959.17686623227 8.016832905162513 0.21459825262908466
0.47974473628292574 13.213107729176263 99792.88589340539 8.4248461583502 0.21770259483073973
0.49790417095211525 13.171931865202042 84626.19941043829 8.85007024848111 0.22083760330482877
0.5164440593106856 13.1363612096556 71925.65599189111 9.293386073520583 0.22400679244473273
0.5353647647001919 13.105808381794665 61263.104589963725 9.755675166231027 0.22721303098035955
0.5546715631518454 13.079793844598202 52293.90628146266 10.237746881174562 0.23045766405411158
0.5743577775453881 13.057836112054266 44719.70014400819 10.740068202607604 0.2337373341909911
0.5944167011961032 13.039496685867523 38318.7443450068 11.263893779033442 0.23705835294472327
0.6148555618948102 13.024495609215068 32893.48244397344 11.810156664739965 0.24042227369674676
0.6356617278304616 13.012436286440012 28283.76506824813 12.379836190151442 0.2438307299810618
0.6568344971810771 13.003005461053826 24364.30538302496 12.973613848986854 0.24728158632115138
0.6783678281371728 12.995967554320702 21021.427488919973 13.592831665724322 0.2507797971754431
0.7002587320655123 12.991067112676397 18167.232274101214 14.238680546203874 0.2543279183504604
0.7224951680404614 12.988002982060403 15724.44382710078 14.912350602674925 0.2579279352780232
0.745084747149436 12.98664081840457 13629.800075188823 15.614860519398169 0.26157963253475897
0.7680087309031803 12.98674713037826 11832.495603495545 16.347498810944668 0.26528512637058294
0.7912557527067686 12.988144464655736 10287.001339300288 17.111871465266884 0.26904900086650624
0.8148327392181229 12.990664447124837 8953.458792469233 17.909434086895843 0.2728736897017346
0.8387171542534677 12.994142427764777 7805.3552812995395 18.74153491514118 0.27676011874049333
0.8629003316872319 12.998415861658403 6811.900583880774 19.609553111194927 0.28070907670395
0.8873825484004296 13.003371112459488 5953.319501374714 20.51555868092119 0.2847267751408643
0.9121409180403051 13.00886385328258 5209.375452698231 21.46134648793705 0.2888162288608344
0.9371639018064936 13.014757095982766 4563.664702087302 22.448378796632305 0.292977181119202
0.9624490030733295 13.020967503468661 4003.084786480735 23.478725593304272 0.2972137861591869
0.987972482319002 13.027354894299194 3515.2275074393433 24.554788909732615 0.30153197281256133
1.0137173815052014 13.0338055174125 3090.619915738556 25.678484943293075 0.30593317575610396
1.0396839558725153 13.04026826207267 2720.424406239364 26.85182834152287 0.31041904713712726
1.0658368792270787 13.046596601813476 2397.33038246519 28.07789160381238 0.31499813272068033
1.092170748336022 13.052729688603188 2114.808677622251 29.358698021654078 0.3196706566090457
1.1186719469052064 13.058552999194557 1867.6860149669524 30.697068338102746 0.3244417456609891
1.145305122273168 13.064019107734792 1651.4044905281314 32.09633689926122 0.32931901193823543
1.1720702219906356 13.069017389039024 1461.4013310721657 33.5585149298376 0.33430060572998127
1.1989290120424718 13.073482576654689 1288.9854035466103 35.08811309582905 0.3393998760731546
1.2258763942909283 13.0773408798503 1148.6051261818393 36.687114566848614 0.3446133362756551
1.2528748653536825 13.080504733792557 1019.7261867379555 38.36061183727178 0.3499556697577863
1.2799187322016303 13.082945686743551 906.3051978215672 40.11089003290198 0.3554237099683028
1.306965680911482 13.08452553233349 806.4365274275601 41.94333737610608 0.36103152778006986
1.3340034611630107 13.08524259073127 718.283945534817 43.86152569213443 0.3667815435510423
1.3610116025957095 13.085031549718137 640.3337674129062 45.87005854010735 0.37268103362125965
1.387945394568793 13.0837683711971 571.5431602445219 47.97431407400204 0.37874019826152566
1.4147965445611956 13.081456378994025 510.59024531169405 50.17910127376413 0.38496494811542853
1.4415285361476151 13.078015387817242 456.6792860974339 52.48954472608187 0.39136175330839457
1.4681240680044245 13.073415783878682 408.83758591153514 54.91211131404312 0.39794256024632085
1.4945349389654494 13.0675439815446 366.37818595672456 57.4529937627704 0.40471643474432695
1.51616310906947 13.058568024122069 334.19205014224303 60.349294221063154 0.7566554876386716
1.5239341565471245 13.036257113353718 318.9414998787412 64.06671903795448 1.165394608992568
