M[M_sun], R[km], Lambda[1], P_c[MeV/fm^3], rho_c[fm^-3]
0.24162668629717493 15.618656898711224 2160425.4255784233 3.5677272577965504 0.1711233750220791
0.2536448647170566 15.277246850549336 1723250.9235086702 3.7848370982945396 0.1738883910861004
0.26604092197387175 14.98125874025997 1382867.9534285213 4.011438258735172 0.17666710551726167
0.2788174966140359 14.723479582823389 1116365.101946772 4.247786287715576 0.1794581877790857
0.29197327662780026 14.498338346869566 905852.8714094263 4.494506594817898 0.18226820820840575
0.30551000134806017 14.301152779885046 738613.1228787065 4.751755441581583 0.18509288591916592
0.31942809800966837 14.128053819123291 605047.6794284314 5.020214086043987 0.18793881707368998
0.3337246720735677 13.97592459233347 497658.3679311524 5.300107957204513 0.1908026514988477
0.34840933430573623 13.841957145552993 410964.88726410427 5.592164153976946 0.19369065499149316
0.36347331580044756 13.723921142693419 340629.62725477153 5.896551891927495 0.1965979262039532
0.37892812953198024 13.61996141593208 283263.35903751536 6.214134495429517 0.1995321298072488
0.3947612457869591 13.528387610763215 236377.43875613395 6.545167439255012 0.20248940944771188
0.41098826086346496 13.44782436836024 197838.02432035876 6.8903570641590814 0.2054735427023695
0.4275981403213211 13.37700166713624 166060.37465808517 7.250406835759665 0.2084875723484967
0.44459392653655155 13.314874019451533 139777.21814766203 7.625573056070274 0.2115270019809488
0.4619776054467918 13.260515236882952 117964.05062026097 8.016810124343696 0.21459807640103362
0.479743329102761 13.213117975033596 99792.91804394191 8.42482074771141 0.21770240377825945
0.4979031058560885 13.171945726763418 84624.88327819054 8.850042301703398 0.22083740095821738
0.5164434092487978 13.136357335379982 71927.50964372397 9.293355138286053 0.22400657465875307
0.5353629003406689 13.105806498380757 61264.42331879418 9.755641032752752 0.2272127972844994
0.554671087747077 13.079794237593976 52294.40525164579 10.237709692137614 0.23045741865345357
0.5743562146082314 13.057822613267758 44720.007129869984 10.74002739073676 0.23373707216613834
0.5944152286104889 13.039517590805643 38320.51629559639 11.263849095723996 0.23705807376259727
0.6148533349997909 13.024483814836316 32893.97941789368 11.810107845975473 0.24042197679720637
0.6356600300586523 13.01241507958784 28284.460216934138 12.379782955442165 0.243830414774398
0.6568324792808272 13.003006339174217 24364.43759091955 12.973556442798166 0.24728125821091737
0.6783658953573243 12.995967990980104 21022.264219073775 13.592769272770067 0.25077944978818983
0.7002562867807814 12.991056923022558 18167.392798365094 14.238612831880054 0.2543275509969489
0.7224924246339387 12.988006264294503 15724.691218508127 14.91227721087595 0.2579275472279168
0.7450820974980906 12.986642415270717 13629.765062426346 15.614781787304175 0.2615792301085195
0.7680069306211044 12.986756872021923 11833.202090141702 16.34741367221133 0.26528470197535076
0.7912533030098846 12.988140744336736 10286.87149466397 17.111779492518014 0.26904855363417307
0.8148313058732266 12.990669277417963 8895.213428758963 17.909334824417382 0.27287321870837195
0.8387141843448803 12.994141877754185 7805.327252648347 18.74142880323307 0.27675963121117936
0.8628977209981324 12.998409173818713 6812.09764612217 19.60943876994154 0.2807085637268573
0.8873796180222212 13.003364692357362 5953.227784117072 20.515435559892364 0.28472623560542576
0.9121375946891109 13.008857654554138 5209.385620393366 21.461213999005825 0.288815661581598
0.9371584269384327 13.014754798037648 4563.558056322862 22.448237491750643 0.29297659421917044
0.9624463821473045 13.020964941370295 4003.1846455938794 23.478573698918748 0.2972131692709551
0.987968740073575 13.02735828000552 3515.3221933512577 24.554625710746866 0.3015313245004651
1.0137134042834168 13.033810464398607 3090.7938171816313 25.678311071496438 0.3059325047513549
1.0396803535329606 13.040264776760624 2720.446654209753 26.851641670948865 0.31041834192931234
1.0658326624580223 13.046588254911407 2397.337849032381 28.077691260484567 0.31499739156359485
1.0921683176650683 13.052723719652892 2114.873429886869 29.358484715710677 0.31966988883861996
1.1186666879092544 13.058555001378643 1867.6537189382689 30.69683952245113 0.3244409384989511
1.1452998278484467 13.064010925556431 1651.4296561028336 32.09609332080501 0.3293181750266514
1.172064500261679 13.069018211291741 1461.4741553685535 33.558253730927284 0.3342997254627228
1.1989234533999071 13.073479430668012 1294.8752531917353 35.08783304340668 0.3393989500157162
1.2258709412521134 13.077348175269483 1148.6124096203644 36.686816473719965 0.3446123746733659
1.2528694458466314 13.080497871627502 1019.758442353366 38.36029449348073 0.3499546704726109
1.2799141099728562 13.082941038338673 906.3677562778466 40.110549830828354 0.3554226574967412
1.3069591071058018 13.084524071036029 806.4566955591299 41.942975129626994 0.3610304326540835
1.3339978617181896 13.085236394352123 718.2862409629919 43.86113733908342 0.36678038916493333
1.3610070243805785 13.085032151736888 640.3553101403094 45.869644894345306 0.37267983079557315
1.3879404285746573 13.083766950026726 571.559723244958 47.97387336838911 0.3787389438710884
1.4147908157766775 13.081460964904315 510.5995259967632 50.17862867484491 0.3849636238411754
1.441522188028345 13.078017443070497 456.68849212186933 52.489040984225056 0.3913603702219915
1.4681182779601554 13.073414909593955 408.84649828519446 54.91157419829116 0.3979411144273147
1.4945284867592263 13.067545084346206 366.3750681258175 57.45242086143352 0.4047149219691567
1.5207410217204425 13.060393320720669 328.70943963080435 60.11821186680072 0.41169156881558094
1.5467272778448915 13.05190022569103 295.16986173393934 62.91605591944428 0.41888159989400137
1.5724418002714577 13.042016518185491 265.3510724960271 65.85358277818534 0.4262963923718235
1.5978556106541308 13.030674891142807 238.80777911439577 68.93899065986797 0.4339482242736203
1.6229527761049491 13.017853879151241 215.14406108779508 72.1810982373579 0.4418503490625127
1.6477060755309199 13.003505111239978 194.01102326686475 75.58940171672722 0.45001707688929415
1.6720550609736358 12.987564874582345 175.15058902777724 79.17376102349674 0.458462291051656
1.6959918734980108 12.970005249892353 158.29235203559963 82.9445359544219 0.4671999562474755
1.7194715187477003 12.950788624342218 143.21510029236748 86.91439076410003 0.4762512946608945
1.7424527304285424 12.929836801031499 129.7221130229706 91.094824244732 0.48563031868107914
1.7649349281374644 12.907182254954346 117.62578331034636 95.50010132870473 0.49535963128109667
1.7868612300890578 12.88274478684919 106.77625112558627 100.14372525977987 0.5054560871272838
1.808197903632306 12.856473501264446 97.04118432715039 105.04231559086902 0.5159457382125846
1.8289116123996614 12.828340224094886 88.2885669885971 110.2124229251077 0.5268511356552443
1.8489847539005067 12.798351624789415 80.42640087329991 115.67179596696604 0.5381960614964022
1.8683585936490954 12.766405278908678 73.35210741877101 121.44044629569308 0.5500090928334604
1.887034483391769 12.732577192711737 66.97705443183916 127.53981461868123 0.5623200800156651
1.9049564078618388 12.69674989635663 61.22924677666585 133.9925284179907 0.5751589628796645
1.9220952376694458 12.6589223033691 56.04817304138279 140.8242213927329 0.5885618230204673
1.9384070098200934 12.619022912555934 51.367441886047196 148.06258017324058 0.6025669212950175
1.9539008275352716 12.577166327208928 47.142697093611176 155.73600724247427 0.6172096546277157
1.9685140715071647 12.533227550242668 43.32183827812694 163.878277178464 0.6325380238657174
1.9822258321786326 12.487214466010496 39.857384673841274 172.5233166108556 0.6485940587103822
1.995010707217483 12.43912358017835 36.72859866842491 181.71018619835073 0.6654301026814153
2.0068440476129545 12.388953060464713 33.88777064145003 191.48104340703844 0.6831010382141817
2.017687225804003 12.336666200567219 31.313969049801283 201.88195376104466 0.7016661397910918
2.0256673413624684 12.286639309701375 29.26520540830177 213.74306352844678 1.4984657918655722
