M[M_sun], R[km], Lambda[1], P_c[MeV/fm^3], rho_c[fm^-3]
0.24162668629717493 15.618656898711224 2160425.4255784233 3.5677272577965504 0.1711233750220791
0.253640782713747 15.277366210805665 1723226.4135579502 3.784777353558088 0.17388764639678236
0.26603575786327305 14.981329416014258 1383213.848319745 4.0113126638190675 0.1766655877768216
0.27880762440806134 14.723638156511011 1116610.1670151136 4.24759059400513 0.17945591802694866
0.2919593136851104 14.498563164056005 906050.7952552086 4.494235667634163 0.18226519137133596
0.3054911552438697 14.301426495305344 738825.1852895685 4.751400082244914 0.18508904736011642
0.31940403852606986 14.128366581936389 605267.983125969 5.0197716773934 0.18793422691318606
0.3336993799336453 13.976201146383785 497838.4904895607 5.299566852501911 0.19079720347234758
0.3483762425658946 13.842241942718655 411137.5405764636 5.59152300273956 0.19368445167689682
0.36343667093028487 13.724171252734056 340750.3376786341 5.8957962906168495 0.19659082943654133
0.3788859261648214 13.620195530678242 283410.3938180757 6.2132553009972185 0.19952411261264527
0.39471339661750116 13.528671653231644 236493.7669316727 6.544165565048997 0.2024806243643909
0.41093504017564697 13.448073402164507 197952.11515713175 6.8892131701707715 0.20546380082114857
0.4275377206702801 13.377252154128056 166161.8645525909 7.249110188820218 0.2084768455206688
0.44452978149192685 13.315078603283421 139865.7082639012 7.624127240454205 0.21151549235898848
0.46190615626284826 13.260720086671782 118041.10146914943 8.015189923076449 0.214585542834355
0.4796660483455906 13.213300551377811 99860.89683876772 8.423013527920554 0.21768881601187914
0.4978177751036509 13.172120883267567 84687.00474616613 8.848054727278246 0.22082301007015406
0.5163520468111302 13.136513267662924 71976.96856155622 9.291155046082846 0.22399108587248273
0.535266300912654 13.10593925853623 61313.43184688678 9.753213507044611 0.2271961771585372
0.5545667395612268 13.079920283144423 52335.04715602324 10.235039027237484 0.23043963378803844
0.5742383046593754 13.05798478785389 44355.99029308583 10.737124958742523 0.23371843765367445
0.5942946193778088 13.039590718712622 38352.83468113041 11.26067136749276 0.23703821925910337
0.6147260961641664 13.024573760408458 32924.877638164304 11.806636050912775 0.240400862490663
0.6355213161360022 13.012478936647778 28314.969051243075 12.375997151984967 0.24380799875121006
0.6566875196860451 13.003073164238996 24389.60957114778 12.969474015829194 0.24725792473244068
0.6782142747882772 12.996007005887538 21044.12839835761 13.588332255102838 0.2507547456625669
0.7000955658831624 12.991089011831983 18050.267412918467 14.233797435421303 0.2543014272361447
0.7223232832338408 12.988024845226082 15742.570317036227 14.907058119205555 0.25789995192290394
0.7449048801844597 12.986658575110152 13645.326679692373 15.60918297648965 0.2615506127014737
0.7678182726627159 12.986758947837629 11845.626782534253 16.341359328631246 0.26525452259108584
0.7910565256096587 12.98812603089788 10297.775581857735 17.105239233908893 0.26901675057127433
0.8146241806837428 12.990648347060649 8964.142216499618 17.902276254343665 0.27283972629808406
0.8384999486586625 12.994103737618943 7814.17563847392 18.733883227941735 0.2767249631969012
0.8626744609037843 12.99837209406766 6820.808298157588 19.601308087090224 0.2806720864806568
0.8871430139125646 13.003313221379349 5961.2436171656855 20.506680641018402 0.28468787019344843
0.9118952948551231 13.008810296595813 5215.968281749369 21.451793036404236 0.2887753237479262
0.9369086320944221 13.014701358617245 4569.6723216453565 22.43818972750385 0.2929348615268187
0.9621799174158782 13.020889760420404 4008.4598040078754 23.4677730526718 0.2971693046373615
0.9876993636985942 13.027278631587336 3520.1694043319417 24.543021350755378 0.3014852258870673
1.0134342640070435 13.03374363262124 3095.07072400472 25.665947913699792 0.3058847929444079
1.0393903967009954 13.040191032838097 2724.304970556943 26.838368588574667 0.3103681986141805
1.0655382303760454 13.046523976883012 2400.860526934904 28.063446130211908 0.3149446926324589
1.0918595991111881 13.05265329214111 2117.951483498586 29.34331802097117 0.31961529804995575
1.1183518236478793 13.058488571782618 1870.6455047795107 30.680570208008824 0.3243835474380306
1.144977720761475 13.063956369278255 1653.8322668773105 32.078774481932335 0.32925866920212193
1.171732958102875 13.068957896075625 1463.764497055631 33.53968224294838 0.3342371376334333
1.1985826016119292 13.073424476323604 1296.919602597637 35.067921264536615 0.33933310716108833
1.2255218856954255 13.077294050923443 1150.3509259226473 36.66562218108488 0.34454400516613115
1.2525116878570235 13.080468929645374 1021.3604839576349 38.337623655887306 0.34988298857170824
1.2795482215858207 13.082916156643499 907.7625973759411 40.086362089628025 0.3553478287060696
1.306585985341248 13.084511190045827 807.7735834931957 41.91722030546157 0.36095257191879265
1.3336172370437114 13.085230845365462 719.403744822871 43.83352671526335 0.36669831611177695
1.360621810182122 13.085043221251386 641.3991417151772 45.84023631804311 0.3725943146505395
1.3875476822301842 13.083793152632404 572.5139897132713 47.94254124330599 0.37864976252887184
1.4143989043657357 13.081515067858534 511.4583868693102 50.14502948165419 0.3848694751991474
1.4411262466674972 13.078095104246811 457.4342791497039 52.45322805441304 0.39126204133467296
1.4677089014074205 13.073495283328505 409.52726609460717 54.873388977852954 0.3978383266813572
1.494116089431787 13.067643655568423 367.0246293753532 57.411691954347006 0.40460737521479356
1.5203255323248885 13.060517423440778 329.26452566878027 60.07475388535215 0.41157893959821457
1.5463057523956405 13.05205022933951 295.6709698294329 62.869668219846744 0.41876353951054
1.572020513238288 13.04218722346429 265.8114422690564 65.80404806872038 0.42617252473297484
1.5974425094387814 13.030883028244265 239.23161738807073 68.88607346722182 0.43381814355112563
1.6225304191198338 13.018085901555953 215.52776629523783 72.12454321506567 0.44171361709780754
1.6472813732411171 13.003769379764218 194.35661780825237 75.52893177764176 0.4498732203372455
1.671630989530982 12.987862022669859 175.46436583290358 79.10939097279201 0.4583121164598031
1.6948582305730304 12.970284429730762 158.98488048933405 82.92680844945247 0.5587074232170425
1.7144154785264478 12.948935008208146 145.6700543897365 87.12533742748303 0.6898360973321396
1.7306976336020208 12.922385700525565 134.5920587656351 91.7269181829122 0.8172831427656617
1.7440852996781608 12.890187740956097 125.16436770276987 96.74695411882311 0.9415495379674355
1.7549922505123046 12.852351477280306 116.94757755898429 102.20233759162383 1.0631088811959577
1.7637525293424794 12.809041771616387 109.67464213231185 108.11159674833608 1.1827019858398469
1.7706429893648976 12.760443085853966 103.12938224063842 114.49573943122765 1.3009407774304749
1.7759099337346507 12.706807742726092 97.17356958832612 121.37785520033596 1.4184970697159904
1.7797958541767525 12.648492676504242 91.67285649164009 128.78383733021997 1.5361592647261884
1.7823768139206257 12.585531688978874 86.57447350173636 136.7430393291978 1.654843531950487
1.7839006314713786 12.518448587446327 81.79192134550776 145.28771508811982 1.7755499411187776
1.7844494413178598 12.447405480181667 77.30428039478642 154.45424520108512 1.899085880981638
