M[M_sun], R[km], Lambda[1], P_c[MeV/fm^3], rho_c[fm^-3]
0.24162668629717493 15.618656898711224 2160425.4255784233 3.5677272577965504 0.1711233750220791
0.2536419252011654 15.27736863648755 1723247.2230320056 3.784801310243935 0.17388794500531435
0.2660383021071457 14.981260995099728 1383006.9794123655 4.011363025038209 0.17666619636243375
0.2788110782030306 14.723611838334495 1116508.077822515 4.24766906302507 0.17945682814932964
0.29196506487952656 14.498513652715523 905977.8428892273 4.49434430299238 0.18226640105126266
0.3054987201640537 14.301315425217858 738727.8341300801 4.751542571976314 0.18509058652116128
0.3194138657769393 14.128228742031189 605171.3676486933 5.019949070532172 0.1879360674354683
0.3337103737919217 13.976038083783882 497761.26067211095 5.2997838185631885 0.19079938796057283
0.3483901085098026 13.842116421851669 411069.0240080761 5.591780082835749 0.19368693899754774
0.3634517018626981 13.724058847463029 340702.55436639895 5.896099259497507 0.1965936749843835
0.3789031681898858 13.620080672885141 283337.99110042065 6.213607824128802 0.19952732719913982
0.3947340257248648 13.528522141837607 236447.8873908099 6.544567275827095 0.20248414682523014
0.4109563101705476 13.4479510173243 197902.4306212549 6.8896718223785465 0.2054677068958159
0.42756329630311013 13.377119623530488 166115.11288952825 7.249630085312868 0.20848114649111446
0.44455486644906056 13.315026988693395 139810.03966605102 7.6247069437441715 0.21152010716992461
0.4619352396642202 13.260629688713012 118010.16458980383 8.015839542947733 0.21459056816925448
0.47969776508811646 13.21321677917547 99835.28946617656 8.423738128703016 0.21769426399678996
0.4978520202498114 13.172050804421167 84662.96523694567 8.848851636807591 0.22082878003563977
0.5163880099523555 13.136456120788804 71954.916875366 9.292037158685094 0.22399729600019586
0.5353036368544665 13.105920519832067 61294.43219773071 9.754186802094946 0.2272028408516469
0.5546082216920731 13.0798525389459 52314.55607615065 10.236109847372965 0.23044676503241246
0.5742886528478394 13.057881817537785 44743.08668712627 10.738288651028713 0.23372590891861852
0.5943425060402431 13.039556371469832 38339.01215130981 11.26194542906255 0.23704617961884722
0.6147771533192656 13.024529427492652 32912.28939084384 11.808028006276444 0.24040932790170033
0.6355762797919045 13.012451030346057 28303.21921314558 12.377514995001127 0.2438169860123372
0.6567459774938936 13.003054548919533 24379.355894654444 12.971110776456987 0.24726727978500385
0.6782751578149476 12.99600273592223 21035.037748401544 13.590111171260881 0.2507646501911347
0.7001602840508265 12.991073264431305 18178.9535795416 14.235728042727738 0.25431190087500544
0.7223914764057852 12.987999041279767 15734.807678688465 14.909150565849965 0.25791101547706663
0.7449767872147612 12.986647131001762 13639.765860232475 15.61142765035843 0.2615620859853398
0.7678933897530886 12.986752309851147 11839.890990928845 16.343786621008267 0.26526662203479934
0.791135522798019 12.988127503931945 10293.19627753364 17.1078613234198 0.26902950090465183
0.8147057258847628 12.99066589741065 8960.03372159162 17.90510612689829 0.27285315384101017
0.8385845643764566 12.994129780841739 7810.06167141269 18.73690833330134 0.276738861990797
0.8627630704065379 12.998392660898102 6817.459229559397 19.60456775015296 0.2806867105330574
0.8872343972870216 13.003331691439588 5957.681969431406 20.510190545883084 0.2847032511407848
0.9119937796915754 13.00882108131542 5213.421501517142 21.45556994098662 0.2887914953596055
0.9370094701303452 13.01471300101221 4567.2896818169065 22.442217900871988 0.2929515922656958
0.9622849791151984 13.020916361773669 4006.503686549516 23.472103033246203 0.2971868899750368
0.9878070325322024 13.027313472063124 3518.1831146067602 24.547673513174697 0.30150370671987403
1.0135464891057655 13.033772116057856 3093.5574011871927 25.670904253112894 0.3059039204127401
1.039507204188018 13.040223398850861 2722.785673514597 26.843689681584976 0.3103883007454067
1.065657731848805 13.046556158841712 2399.362192306542 28.069156876879596 0.31496581916760563
1.0919832032739036 13.052678195017032 2116.7424948130056 29.34939818529221 0.3196371829082716
1.1184787313946858 13.058515045937094 1869.5247922196702 30.687092361060042 0.32440655475554375
1.145106257279655 13.063969161612567 1652.9480929009537 32.08571734119297 0.3292825241826973
1.171865612019127 13.06898840866824 1462.9136235998253 33.54712722403524 0.3342622279873057
1.1987192525287356 13.073441160316085 1296.1244077087522 35.07590349443272 0.33935950223136735
1.2256628421272646 13.077318344078398 1149.6429598403163 36.67411850130821 0.34457141297996946
1.2526548562711939 13.080481211613414 1020.7052585746671 38.346731791456264 0.3499118411484889
1.279693725658236 13.082924960420154 907.1914985083168 40.09605830324795 0.355377825551714
1.3067351737988884 13.084520914059455 807.204120841807 41.92754466506019 0.36098378402199294
1.333770234047794 13.085233899087378 718.9250417348129 43.84459493687206 0.3667312165904607
1.3607751542644213 13.08504007211859 640.9669073545645 45.85202521628073 0.37262859516521374
1.3877050533548203 13.083786065625596 572.1156429696053 47.95510115589781 0.37868551209453616
1.414558386406563 13.08149938789289 511.1133117139883 50.15849808534421 0.3849072157109576
1.4412813075109445 13.07805204488846 457.1188004224831 52.46758397439322 0.39130145731224014
1.4678735283834976 13.073461859147633 409.25376714527187 54.88869575923676 0.3978795297839778
1.494281463680213 13.067601515872553 366.74100293378075 57.42801828843776 0.40465048573181234
1.5204916600492049 13.060467012760261 329.0391765825266 60.09217407029085 0.41162408715754945
1.5464746359862276 13.051988916425303 295.47230102987777 62.8882626672137 0.418810863857413
1.57219005679889 13.042118278032554 265.6198216689074 65.82390386120706 0.42622217658637945
1.5976121080791483 13.03080174873164 239.06204699837812 68.90728497311135 0.43387028554644574
1.6226929940446657 13.017963528371583 215.36467410722213 72.14721276596482 0.4417684248250047
1.6474513790477183 13.003665756283128 194.21764180430802 75.55317041671067 0.4499308834851755
1.6718002179681795 12.987742481085089 175.3395357540345 79.13519277009998 0.45837231175773085
1.695739264258905 12.97020444842947 158.46354929275824 82.90325445713717 0.4671050914869464
1.7192021043677437 12.950970894690528 143.37663078201032 86.87018351880069 0.47615118700066994
1.7422066490937003 12.9300846589444 129.86616409325353 91.04767285040566 0.48552542418450745
1.7646876117250139 12.907448522695598 117.75335317338075 95.44955156357726 0.4952487138091929
1.7866158793995364 12.883028330031655 106.88727159877621 100.08973310887205 0.5053395744080079
1.8079561687183519 12.856786670934715 97.14404289874106 104.98460108029398 0.5158231813284042
1.8286689819026518 12.828668425751502 88.38577545722794 110.15064192941202 0.5267219048350427
1.8487511341588474 12.798718235128907 80.51207372252246 115.60544034461174 0.5380589936781831
1.8681409169862913 12.766830854825 73.42690752572167 121.3693565760512 0.5498643802157455
1.8868145168761958 12.732999153407944 67.05050171875364 127.46368948436437 0.5621674505770528
1.9047412680292695 12.697200561168533 61.29726036075558 133.9110157117193 0.5749980314880141
1.9218870688377703 12.659407161607222 56.11010668224899 140.7366706830977 0.5883912409442458
1.938205869831982 12.619534688890381 51.42497528028754 147.96846717219086 0.6023858902550846
1.9537088545539492 12.577723186442615 47.19553213030495 155.6350660836363 0.6170183610273653
1.968330878059101 12.533808803799918 43.36641123619582 163.76987243417634 0.6323354869016126
1.9820543905233823 12.48783448478631 39.903807738018614 172.40649785007 0.6483783656412906
1.9948481310373742 12.439778322240949 36.76707565599858 181.58450621212768 0.6652011748438584
2.0066866225953666 12.389626489467313 33.9264359862026 191.34568606031337 0.6828577046886067
2.0175458562252566 12.337392120370982 31.347154741275737 201.73601876253846 0.7014071195640439
2.0273908846828887 12.283031469807982 29.00954025345347 212.80561297859927 0.7209127326709002
2.0362097073325693 12.226589239267783 26.886202723470017 224.60945910118699 0.7414433756735612
2.0439628028498897 12.168020150908976 24.956383378202855 237.2090893640361 0.7630775342178682
2.05063229843703 12.107341396239468 23.201721950693237 250.67092318443272 0.7858965089618882
2.0562086700598123 12.044599366751019 21.605321521169426 265.06819293622374 0.8099890743544489
2.0606733115881144 11.979797018944597 20.15451483343947 280.4827708244359 0.8354555603104207
2.0639946272687335 11.9129419007215 18.832490020059314 297.0037365273106 0.8624010495945305
2.0661609570800636 11.844054319136191 17.628702769171323 314.73158290637883 0.8909466680721831
2.0671654127169914 11.77319169632169 16.533488659218758 333.77582178527643 0.9212189318235543
