M[M_sun], R[km], Lambda[1], P_c[MeV/fm^3], rho_c[fm^-3]
0.24162668629717493 15.618656898711224 2160425.4255784233 3.5677272577965504 0.1711233750220791
0.25364444548200293 15.277255768991408 1723200.498780391 3.78482822756192 0.1738882805166977
0.26604095663689725 14.981258247988304 1383011.1218734263 4.011419610572847 0.17666688016522536
0.2788168025111533 14.723472653081286 1116410.8668626714 4.24775723111197 0.17945785076627122
0.2919711861265257 14.498386891876823 905864.3289961831 4.494466367186512 0.18226776026439392
0.3055075011106016 14.30119131320977 725404.6074521932 4.751702676870687 0.18509231595958528
0.3194239399585771 14.128122297401253 605106.2625905091 5.02014839545127 0.1879381355084363
0.3337230715240302 13.975928342251702 497669.12849232 5.300027611117245 0.19080184254706717
0.3484045509287581 13.841997694753275 410988.27563392365 5.592068951663535 0.19368973388292166
0.3634672835758708 13.723959821314706 340645.4706548051 5.896439694348647 0.1965968724205491
0.3789223026797388 13.619967440002675 283299.2009741666 6.214003944655952 0.19953093934138727
0.3947547534595291 13.52841369298149 236393.7898432083 6.545018670705177 0.2024881049485063
0.4109802957069533 13.447863152706566 197858.00805998524 6.890187205623319 0.20547209611580058
0.4275901718042029 13.377007771808836 166065.0989515093 7.250214293094025 0.20848597949236833
0.4445848100867389 13.31489927402615 139788.83596575735 7.625358361325922 0.21152529287273547
0.46196693970891317 13.260549790797214 117975.9703791463 8.016569532416002 0.21459621522796268
0.479732139852307 13.213134197361303 99803.87518898139 8.424552382248276 0.21770038604514472
0.4978900545054672 13.171973358815613 84636.6742271019 8.849747152113729 0.22083526394908046
0.5164289906046534 13.136388611332011 71932.44270994727 9.29302842771669 0.22400427459597672
0.5353483338118568 13.105836861313282 61270.16502706296 9.755280545719241 0.22721032919945106
0.5546562958412723 13.079808043401579 52300.8945364003 10.23731319483667 0.23045477885709337
0.5743395520765333 13.057824999703476 44724.822828470926 10.739596373771963 0.233734304903712
0.5943967260017354 13.03951370394364 38321.68889176654 11.263377192949743 0.23705512530552403
0.6148348296420859 13.024491057503617 32898.36114362282 11.809592269228625 0.24041884123036472
0.6356399008656992 13.01244114948822 28289.518966148495 12.379220742596598 0.24382708587042154
0.6568111632722308 13.003007586061706 24368.258907637362 12.972950175649768 0.24727779303650865
0.6783436895834324 12.99597290968409 21025.96735747203 13.592110341354285 0.25077578103460507
0.7002327469126857 12.991055036644713 18170.39133648102 14.237897702612942 0.25432367138577294
0.7224648338558777 12.98801068174864 15727.67184331785 14.911502123113229 0.25792344904674375
0.7450563165536231 12.986653075486467 13632.319485849477 15.613950301949542 0.26157498010693264
0.7679777496316613 12.986762300561722 11835.155312669567 16.346514528052673 0.265280219967233
0.7912241612056755 12.988143458233964 10287.767357362856 17.11080817628207 0.26904383045223296
0.8147996378101595 12.990670078253839 8955.20239542026 17.908286523579186 0.2728682445958518
0.8386831848698788 12.99412809470288 7806.670836196029 18.740308167671593 0.2767544824706068
0.8628635077124471 12.99840230575668 6813.2329917116185 19.608231227072885 0.2807031462435631
0.8873462796012745 13.003353303718455 5954.53322110121 20.51413529698266 0.2847205376517465
0.9121019640992775 13.00886199015753 5210.475847327924 21.459814805242708 0.28880967063909263
0.937123493714255 13.01474382130308 4564.669185959029 22.446745196067454 0.29297039607248676
0.9624076430776258 13.020952569924857 4004.0026355019263 23.47696957188868 0.29720665443445343
0.9879283633226711 13.027337345724044 3516.0774416279864 24.552902200759835 0.30152447781347524
1.0136725044963257 13.033797196241725 3091.6988514147242 25.676474850559654 0.3059254184211237
1.039637135545625 13.040254514641571 2721.0492051372585 26.84967028816434 0.3104108944001384
1.0657884740204682 13.046586458271156 2397.828585554488 28.075575486478627 0.3149895643955378
1.09213165780239 13.05269563179234 2113.870611982042 29.356232049832663 0.319661780624603
1.1186204423764472 13.05854593508605 1868.3687591611767 30.694423066757718 0.3244324142949102
1.1452520288514227 13.063998348127507 1651.8386163834518 32.093520962860254 0.3293093366581203
1.1720160511655884 13.069013270051862 1461.827403462062 33.55549529337081 0.33429042924375063
1.1988734039983715 13.073467696518238 1295.20176883762 35.0848755050193 0.33938917023805953
1.2258196028292097 13.077337401079383 1148.8557161977797 36.68366841794464 0.3446022195327433
1.2528150773994198 13.08049832409175 1019.9929296795323 38.35694314301651 0.3499441173912815
1.2798599936607933 13.082940482148233 906.5477426193896 40.10695708883646 0.3554115427532758
1.3069030368823151 13.084524596713099 806.6027792301375 41.939149590794585 0.36101886747062656
1.3339410281936108 13.08523429419039 718.4550106700921 43.85703610673022 0.3667681981813784
1.360950533167155 13.085031092960316 640.5102155073462 45.86527656294028 0.3726671282812403
1.3878817992651742 13.083772838586922 571.717203114935 47.96921927690293 0.37872569682434537
1.414738721983028 13.081478177646241 510.7236870178044 50.173637782140105 0.38494963880980876
1.4414630424177801 13.078027298056002 456.79678525264416 52.48372121421766 0.39134576412669675
1.4680575757960628 13.073425262535801 408.9434955392648 54.90590199220448 0.39792584586865337
1.4944669694403714 13.067558818850188 366.45644430815184 57.446370752030155 0.40469894634701464
1.5206782825867415 13.060414172949404 328.7701052243343 60.111756307496485 0.4116748380662948
1.5466632446076152 13.051924531769235 295.24368172672496 62.90916509636807 0.4188640622014277
1.5723798089282417 13.042039533850847 265.42049465279445 65.84622440328735 0.426277991849559
1.597803558455042 13.030709671823464 238.87720567010703 68.93112974294537 0.43392890061524714
1.6228901131366535 13.017886697382394 215.19049333444698 72.17269683460577 0.44183003715637215
1.6476426959482342 13.00354619832409 194.06088377800506 75.5804186531248 0.44999570639386743
1.6719926349702954 12.987609769784028 175.19319847492935 79.16419850080649 0.458439981795622
1.695928865595841 12.97005657682398 158.33538928755365 82.93430065984921 0.4671764355703575
1.7194095724399818 12.950843499302398 143.2527655091525 86.90343000035396 0.476226473923808
1.7423906646863996 12.929901330085354 129.75688126651374 91.08313344980279 0.4856043109655886
1.7648732918564545 12.907250611859393 117.65619974409663 95.48756786147126 0.49533213005539917
1.7867990430473117 12.882812726000585 106.8038380367701 100.1303382063921 0.5054271984468539
1.8081383241831381 12.856551988205926 97.06646392838071 105.02800552154275 0.5159153507503752
1.8288475661264203 12.828414331714598 88.31199415250802 110.19711410810282 0.5268191289911514
1.8489266255483803 12.798445150952961 80.4468757632838 115.65534316962443 0.5381620756945182
1.8683023247103994 12.76650326254422 73.37396063022395 121.42281957948467 0.549973211298731
1.8869808700498587 12.732679770167433 66.99639910599353 127.52098203116515 0.5622823880827982
1.90490361072185 12.696861658277527 61.244909862023 133.97231708219292 0.5751190594272355
1.922044191293572 12.659041867751396 56.063443633712474 140.80251277196217 0.5885195263718347
1.9383569352724261 12.619150388626897 51.38224946275169 148.03924424225087 0.6025220334707239
1.9538525626214327 12.577304090142961 47.15564878705299 155.71097806863156 0.6171622218378281
1.968468252896046 12.533367907648078 43.331502858286996 163.85140305916627 0.6324878227875298
1.9821819103436162 12.48736531057931 39.871867332709456 172.49435005231277 0.6485405751271708
1.9942722827312074 12.440535033549837 36.86005865278779 181.87667124936334 0.9574928764847019
1.9972179639517242 12.397329615965713 35.243486484301634 193.84067454546002 1.6803368948335249
