M[M_sun], R[km], Lambda[1], P_c[MeV/fm^3], rho_c[fm^-3]
0.24162668629717493 15.618656898711224 2160425.4255784233 3.5677272577965504 0.1711233750220791
0.25364342669351897 15.27728477933271 1723206.7673124615 3.784809422128805 0.17388804611604597
0.2660382230727249 14.981312481234061 1382992.1740560902 4.0113800777670345 0.17666640243459777
0.27881266902210383 14.723589478126659 1116527.4856737922 4.247695633443962 0.17945713632614804
0.29196661692136033 14.498471356659504 905930.5772916485 4.494381088252464 0.1822668106636711
0.305501234054376 14.301288141108605 738721.6385749069 4.751590821017782 0.1850911077028938
0.3194170992497083 14.128192302978025 605125.608854561 5.020009138687664 0.1879366906657657
0.3337142140042998 13.976026521206517 497722.79511844576 5.299857287154454 0.19080012766738044
0.34839444721299273 13.842081902530985 411038.425072935 5.591867135211118 0.19368778125322672
0.3634564708612441 13.724032095704652 340686.89608707436 5.896201851278326 0.1965946385480997
0.37890771915311666 13.62007300572149 283328.9436686255 6.213727196692639 0.19952841573318808
0.394738846892718 13.528518841813936 236424.26540555278 6.544703305150589 0.20248533961863055
0.4109636239306119 13.44794349026019 197887.02327044553 6.889827134321272 0.20546902959749427
0.4275701280994979 13.377110043765922 166096.5319704233 7.249806137144324 0.20848260292279788
0.4445647115456212 13.314974514558205 139814.84515113826 7.624903248798039 0.21152166988437715
0.46194489472946987 13.260609558656036 117995.58104872398 8.016059525012901 0.21459226990837643
0.4797081475900682 13.213189322750814 99822.55398242743 8.423983502972822 0.21769610886827195
0.4978642062714347 13.172040032766684 84656.94373892341 8.849121498485827 0.22083073394949324
0.5164003349295898 13.13643580417462 71232.50685412037 9.292335874655024 0.22399939897924692
0.5353178208650351 13.105870496043966 61286.27594868199 9.754516397494024 0.227205097436214
0.5546235445180004 13.079844476364345 52310.41025714753 10.236472470384156 0.2304491799602073
0.574303764656318 13.057869610601651 44738.85857821154 10.738682726024459 0.23372843900216037
0.5943592465241012 13.039559965963813 38335.98855675308 11.262376881895875 0.23704887534395752
0.6147944453655426 13.02453630029549 32907.515679417615 11.808499385460955 0.24041219467362096
0.635594440633382 13.012445463812199 28297.638158947826 12.378029008032765 0.24382002952163884
0.6567655174905898 13.003027453113907 24375.307060617615 12.971665062926572 0.24727044785916813
0.6782961202352621 12.995980827787967 21032.41926345708 13.590713601493835 0.25076800436127106
0.7001824503211271 12.991070272797064 18040.647199007653 14.236381846462967 0.25431544779217796
0.7224143726436842 12.988004213334525 15733.415002088615 14.909859180326782 0.2579147621889198
0.7450005075179582 12.986646969020859 13540.97575679353 15.612187820276036 0.261565971469718
0.7679190673742863 12.986749160494044 11838.388068977445 16.34460863970707 0.26527071959184345
0.791162252960895 12.988129285924686 10291.60363415628 17.108749315926428 0.26903381891151207
0.8147344428669531 12.990662728565711 8958.410634623617 17.906064491702065 0.27285770121347774
0.8386149840918028 12.994117406382694 7809.635497665268 18.737932819881877 0.276743568976551
0.8627933613532228 12.998402383359648 6816.240009103186 19.6056716779837 0.28069166316102306
0.8872668561566335 13.003339531915229 5956.649281712092 20.511379227455315 0.2847084601277423
0.9120267996765309 13.008827787178825 5212.554162849261 21.456849052549373 0.2887969721449032
0.9370440363605654 13.014726039991995 4566.455160938326 22.44358211446226 0.2929572584322844
0.9623206744442353 13.020921847355327 4005.8388566624567 23.473569466888474 0.2971928455977779
0.9878439919474881 13.027320832244548 3517.6021413781323 24.549249068301002 0.3015099656524397
1.013584194716129 13.03377800487857 3093.073052420197 25.67258283143065 0.30591039836974426
1.0395455470375294 13.040227499393813 2722.250873103933 26.845491801636836 0.3103951088304556
1.065695141751044 13.046552268225188 2399.0376090568047 28.07109097313763 0.3149729742306736
1.0920247168827524 13.052686336839871 2116.3349722138405 29.351457403580305 0.3196445948297423
1.118520764405333 13.05852304870702 1869.1337511828046 30.689301283254963 0.32441434687172094
1.1451507130347534 13.06398939294536 1652.5544602890031 32.08806875852197 0.3292906034210345
1.1719104796210866 13.068996968000931 1462.4752789086647 33.54964871469459 0.3342707256708043
1.1987660622449976 13.073449900123222 1295.8231230349897 35.07860695748586 0.3393684418507736
1.225709205140787 13.077320972038285 1149.427508091741 36.67699609234905 0.34458069564322574
1.2527039072473518 13.080486455835873 1020.5057841263689 38.34981661401606 0.34992161319009796
1.279742707763574 13.082930987544822 907.0027458444266 40.09934231671634 0.35538798519226716
1.3067866468520923 13.084521176154768 807.0426240545987 41.93104144226951 0.3609943553092561
1.3338220308200335 13.085234321066704 718.8100711917727 43.84834367660904 0.36674235978366443
1.3608276151262464 13.085034228559806 640.8366769732754 45.856018064670444 0.37264020582594354
1.3877582119346077 13.083782006916413 572.0013072970198 47.959355165008574 0.3786976203776894
1.4146132584567686 13.08149206358224 510.9860601059598 50.16305989432682 0.3849199984024486
1.4413360468568472 13.078044172188052 457.0465415510555 52.472446342488304 0.3913148075532573
1.467928545274742 13.073452291145493 409.15266885493685 54.89388021308206 0.3978934854013257
1.494337498353379 13.067593077067396 366.66564654358336 57.433548098190506 0.4046650874762169
1.520548259196402 13.060451864695839 328.9590366619762 60.09807440571298 0.4116393789437448
1.5465307769078156 13.051970174610874 295.39294699411545 62.8945607693302 0.41882689302802084
1.5722464647393328 13.042094985378549 265.55628075140055 65.83062923127122 0.42623899420213274
1.597670187852589 13.030773574857294 239.01081509503652 68.91446958082088 0.4338879467056071
1.622757362176603 13.017961244919523 215.31262759257697 72.15489127911538 0.44178698901517804
1.647508997128101 13.003627959517798 194.1678356474107 75.56138045473897 0.4499504149710808
1.671857916783574 12.987701436598476 175.2971794963698 79.14393232305909 0.45839270103479746
1.695795753239058 12.97016150473649 158.42606833852435 82.91260877709544 0.46712658768696635
1.719260687600384 12.950923292130906 143.33721580594138 86.88020075017776 0.47617387110116743
1.7422632203337094 12.930027589118604 129.82641960842003 91.05835716314195 0.4855491928475915
1.7647435731611207 12.907387897700096 117.72233857127857 95.4610058630839 0.4952738470999313
1.7866714352770903 12.882962019650607 106.86178829314167 100.10196736810214 0.5053659754086581
1.8080102960882731 12.856716546220596 97.12025993247481 104.99767872834614 0.5158509517414548
1.8287230666416405 12.828592749245933 88.36214084889372 110.16467089325198 0.5267512988590451
1.8488038499715307 12.798636426270745 80.49198537380028 115.62047581096606 0.5380900517633306
1.8681922768167825 12.766738009308211 73.40976651141612 121.38546463887032 0.5498971703286988
1.8868650149212576 12.73290208057134 67.03369660973104 127.48096056236417 0.56220211349279
1.9047897428631142 12.697099184763935 61.279788344174925 133.92948527326004 0.5750344961372434
1.921934942892104 12.659296211823051 56.09534651882193 140.75650823182505 0.5884298920330052
1.9382511861679785 12.619420186240493 51.41085668862415 147.98979147918075 0.60242690862053
1.9537525960114164 12.577592260815567 47.179813040961506 155.65793738063476 0.6170617044246265
1.9683714031832278 12.533677672918705 43.35506416478087 163.7944530280095 0.6323814396560413
1.9820918456274703 12.487692443399938 39.89547430321841 172.43296632090707 0.6484272367786885
1.9948861492694632 12.439630244035289 36.76011341065232 181.61298222936452 0.6652530443040976
2.0067188837846963 12.389469190111082 33.916716622529975 191.3763545014479 0.682912837713047
2.0175788481756625 12.337226742884464 31.33950046519138 201.7690835663434 0.7014658063292237
2.0274198869095232 12.2828572870421 29.002558484565622 212.84121600005994 0.7209750180268846
2.036236048490848 12.226409660986118 26.880536804463436 224.64792979380525 0.7415098731816092
2.0439858656682826 12.16783028060862 24.95055664440085 237.25061510878228 0.7631483394272803
2.050652058254844 12.107142977857842 23.196362560965763 250.71589405376793 0.7859723196824215
2.0562255184348213 12.044391386453883 21.6013564291297 265.1168537782481 0.8100700488227128
2.060684623021786 11.979580877899474 20.14874289193977 280.5353967012659 0.8355418789969874
2.063997129742554 11.912701717815498 18.826809823808325 297.0608311319919 0.862493553084389
2.066165598309334 11.843819842851417 17.62473543633598 314.79360458868706 0.8910459525868326
2.06716568261379 11.772944989431334 16.52860436245579 333.84317951102497 0.921325317970877
