M[M_sun], R[km], Lambda[1], P_c[MeV/fm^3], rho_c[fm^-3]
0.24162668629717493 15.618656898711224 2160425.4255784233 3.5677272577965504 0.1711233750220791
0.25364147537867116 15.277395217922143 1723178.0834766785 3.7847942131586905 0.17388785654357053
0.2660362139302054 14.981343337227155 1383018.8371037594 4.011348105654259 0.17666601607048354
0.27881087894695905 14.72358020421253 1116505.7043134095 4.247645816705183 0.17945655852705042
0.29196330421778993 14.498526844372119 906006.5028823373 4.49431211984796 0.1822660426844802
0.30549676917849067 14.301343945237322 725542.7915900674 4.7515003593715806 0.18509013054446619
0.31941136014879085 14.12825384363119 605184.9245149712 5.019896517637775 0.18793552217890538
0.3337064008281327 13.976152162324412 497782.94831168454 5.299719541962002 0.19079874080185305
0.3483862650146722 13.842106620670892 411075.2195639208 5.591703922167902 0.19368620212213525
0.36344730902967176 13.724094823850974 340717.7415502999 5.896009503896302 0.19659283198078267
0.3788984948184116 13.620106951219164 283365.5124855815 6.213503387607836 0.19952637486381836
0.39472822282253056 13.528551587719893 236455.56539686353 6.544448266940522 0.202483103278068
0.41095007483397744 13.448004156734042 197920.55221103894 6.88953594392027 0.20546654969784603
0.42755569573727115 13.377159654802668 166128.59349040827 7.249476062441015 0.2084798722993683
0.4445480127637484 13.315017692307626 139847.78325101858 7.6245352022744735 0.21151873999739643
0.4619263983970257 13.260660381862792 118011.90644881963 8.015647087637674 0.21458907937183774
0.4796884385347136 13.213258378815164 99844.16797801467 8.423523459087912 0.217692649981387
0.49784195300965184 13.17209404404193 84673.02023446011 8.848615544499765 0.22082707062645665
0.5163760775953806 13.136489348055532 71961.86700601346 9.291775823424919 0.22399545618367186
0.5352926712142076 13.105920250811094 61299.07679112059 9.75389845229092 0.2272008666562561
0.5545957748090017 13.079871936357216 51833.65994356667 10.235792603798881 0.2304446523139662
0.5742736943359099 13.057900896081055 44747.654049417695 10.737943892152952 0.2337236954598432
0.5943280949155756 13.039575520147595 38010.61934437712 11.261567970862004 0.2370438212531796
0.6147626692782938 13.024547233671516 32917.20612453425 11.807615619334221 0.2404068199010392
0.6355601484020766 13.012455002380477 28306.32949235133 12.377065310830828 0.24381432339899697
0.6567289029985014 13.003047974832427 24381.93343610844 12.970625860051378 0.24726450820167872
0.6782573587939482 12.995992515315468 21038.3148087679 13.589584137630084 0.2507617158090792
0.7001412952235533 12.991063612436216 18181.548787605792 14.235156066555499 0.2543087978763557
0.7223703960623167 12.988015854756892 15736.760880276754 14.908530640311087 0.2579077376970599
0.7449552444993236 12.986646256388465 13641.630595022398 15.610762623274386 0.2615586868080161
0.7678697462193899 12.986760469443238 11841.445511626689 16.343067487842998 0.26526303733633533
0.791112785604177 12.98812896698702 10225.706874877584 17.10708447571487 0.2690257233573255
0.8146806594105447 12.990662726412427 8961.418603403841 17.90426771698886 0.27284917564593913
0.8385601575844035 12.994107247939455 7811.1506515607425 18.736012079580107 0.2767347441686821
0.8627372546110748 12.998375088737836 6818.51430789224 19.603602001000404 0.28068237782567595
0.8872075356710644 13.003338904398797 5958.935135465527 20.50915065413142 0.28469869417389126
0.9119646299979624 13.00881975806874 5214.326589368118 21.45445094128145 0.28878670412691576
0.9369796871058667 13.014710059477935 4568.044359248911 22.441024454077706 0.2929466353671579
0.9622535979991726 13.020912220851326 4006.845936452443 23.470820165048636 0.29718167986610916
0.9877755920989927 13.027299136102112 3518.7682267840755 24.546295186530493 0.301498231282439
1.0135140683912058 13.033762576432217 3094.0689838071307 25.669435802695443 0.3058982533797716
1.0394723634783758 13.040217057149635 2723.2470171827854 26.842113158601535 0.310382344925459
1.0656233418292953 13.046543528535912 2399.7963671852526 28.067464903322573 0.3149595598216917
1.0919468155122523 13.052666821590686 2117.22733126852 29.3475967569909 0.3196306988724695
1.1184398157499829 13.058506614397533 1869.7975087338937 30.685159975012642 0.32439973813854606
1.1450680523000003 13.063960816963686 1653.1048191129632 32.08366030336599 0.3292754564033339
1.1718260806802392 13.068978227196128 1463.1286413326175 33.54492141057163 0.33425479416850445
1.198678268715705 13.073438606638303 1296.3222926272329 35.07353849685678 0.339351681825536
1.2256211942192534 13.077307391496902 1149.8419948941475 36.67160118152711 0.3445632924960284
1.2526126617053228 13.080474587734503 1020.9049266076365 38.34403319269004 0.3499032925791892
1.2796525676529567 13.082918045974024 907.4930633890722 40.09318545897354 0.3553689379312842
1.3066917661078783 13.084517588714958 807.36926194711 41.92448570272655 0.3609745363154276
1.3337241335678287 13.085234438180441 719.1326149812659 43.84131556836732 0.3667214686113001
1.360729817991714 13.085039162765252 641.1119676299446 45.84853231164627 0.37261843827301194
1.3876583453197322 13.083786043795548 572.2513612826383 47.95137979935515 0.3786749199125357
1.4145118634033558 13.08150761229082 511.21422224538117 50.15450748100547 0.38489603359782676
1.44123266376073 13.078063790680545 457.20881908570885 52.4633304559038 0.39128977874412385
1.4678262150599086 13.073469770321784 409.3356824566435 54.88416049704154 0.3978673216737974
1.4942318707000437 13.067613457771694 366.81841061254073 57.42318092798653 0.4046377124350698
1.520442262090952 13.060483187683705 329.0874901989462 60.087012595524236 0.4116107102623499
1.5464244268979583 13.052008130864346 295.52768155577115 62.88275325042884 0.4187968419536775
1.5721393250481717 13.042141387569774 265.6763488964549 65.81802069778762 0.4262074650120188
1.597562287889768 13.030826486904227 239.11278215961693 68.90100009942077 0.43385483610800096
1.6226501684843995 13.018024842564321 215.41367486365723 72.14049585849365 0.44175218548996337
1.6474005177016657 13.00369521575226 194.2588558261326 75.5459885703291 0.44991379804283144
1.6717502685504215 12.987777206471524 175.37063913060945 79.1275477424653 0.45835447599572393
1.6956890729571572 12.970245886471552 158.49556551641817 82.89507168031115 0.4670862874896323
1.7191522227419374 12.951018294127502 143.40426522231766 86.86142088217794 0.47613134394001866
1.7421572183457708 12.93013247600186 129.89394466263187 91.0383267061473 0.4855046324537246
1.7646410839891453 12.907507784925686 117.7728946587497 95.43953190408824 0.49522672843899274
1.7865679292323544 12.883084435900441 106.91358508972415 100.07903121058878 0.5053164801758013
1.8079078751732538 12.856847389162496 97.16819271296997 104.97316146405332 0.5157988892793387
1.8286229159649614 12.828734751012021 88.40500500810668 110.13835569508922 0.5266961386551405
1.8487051447773963 12.798789474422057 80.53159506263256 115.592288225956 0.5380318259394875
1.8680952997304934 12.766908642337267 73.44541108966753 121.35526626220143 0.5498356975002713
1.886771880495273 12.733082639434555 67.06440222237856 127.44858189100566 0.5621371297577274
1.9046979104385577 12.697289846951877 61.30674721154125 133.89485981533116 0.5749661347321825
1.9218452617559363 12.659502931368912 56.121386162115414 140.719318230507 0.5883574317677949
1.9381658257757228 12.619637723570595 51.43582051463981 147.9498142825657 0.6023500104938515
1.9536696441996249 12.57783201464826 47.20268432656866 155.61506007501862 0.6169804476384051
1.9682939230403667 12.533923567401121 43.37534180303478 163.74832925105312 0.6322951487124234
1.9820194569805398 12.487957012886955 39.91340818760684 172.38334550024894 0.6483356173587717
1.9948162414905024 12.439906511376732 36.77542161962054 181.55959793150916 0.6651558040653389
2.0066560783226275 12.3897621146383 33.933580724341944 191.31886015318318 0.6828094794336305
2.0175186098960802 12.337535259897708 31.35368341464627 201.7070968631882 0.7013557860456073
2.0273662958302774 12.28318395068993 29.015302113675844 212.7744710179329 0.7208582516738787
2.036186123068547 12.22674837156926 26.89214607843012 224.57580894354385 0.7413852105749784
2.0439427843506177 12.168187243458753 24.96204130987933 237.17276712528738 0.7630156014641839
2.050613233610517 12.107515778751495 23.237134233151096 250.63158771709837 0.7858301982553084
2.05619389929565 12.04478160708375 21.61047273146803 265.0256300989204 0.8099182473203275
2.060660786409606 11.979988489175899 20.15760185837903 280.43673398575334 0.835380039325241
2.0639861377672695 11.913139389398857 18.836114243234743 296.95379730922446 0.862320139113066
2.0661553418768377 11.844260773122087 17.628688427709047 314.6773343899914 0.8908598268673089
2.067162742413381 11.773404844632624 16.53579943136064 333.71690630422125 0.9211258795273631
