M[M_sun], R[km], Lambda[1], P_c[MeV/fm^3], rho_c[fm^-3]
0.24162668629717493 15.618656898711224 2160425.4255784233 3.5677272577965504 0.1711233750220791
0.25364398303818997 15.277295196609547 1723234.4976062318 3.7848198946662213 0.17388817665117273
0.2660398812785098 14.981251187702554 1382962.6056332209 4.011402093114334 0.17666666847707732
0.2788148128154007 14.723513569501556 1116390.2808895623 4.247729936397686 0.1794575341887178
0.29196941291090234 14.498434326025034 905934.9872047461 4.494428578930631 0.1822673394833945
0.30550447732318686 14.301252246144543 738687.1380619311 4.751653111927602 0.18509178056360387
0.31942162303591287 14.128135516488081 605137.8855420523 5.020086688659801 0.18793749527665818
0.33371873761226306 13.975978843810557 497704.43921612366 5.2999521378391 0.19080108265638906
0.3484000670829539 13.84203448836076 411010.22131489025 5.5919795234061205 0.1936888686399303
0.36346302155759863 13.724004506460169 340634.90488241456 5.8963343019040355 0.1965958825524059
0.3789160044739975 13.62000504772015 283321.87069750024 6.213881312552232 0.19952982108426
0.3947484046416759 13.52844400059552 236414.74599867113 6.544878926211607 0.20248687957808326
0.41097271265559293 13.447882351214885 197875.6123910585 6.890027650883046 0.20547073728067786
0.4275808797070691 13.377060033748286 166078.51649961338 7.25003343077978 0.20848448326479363
0.44457567290454153 13.314927890213761 139803.46899285415 7.625156691272272 0.211523687449435
0.46195695521103547 13.26057520530407 117980.95737142074 8.01634353689025 0.21459446696986145
0.4797220338761809 13.213151098239813 99809.52741920593 8.424300298871705 0.217698490730559
0.4978777072328539 13.171992932454824 84639.90723129855 8.849469910315424 0.22083325660000444
0.5164180493167704 13.13638823644751 71940.85644225008 9.292721540698183 0.22400211409223425
0.5353342845152623 13.105857016066803 61277.65976714645 9.754941932588471 0.22720801087471945
0.5546407144832538 13.079815470033655 52300.25020761077 10.23694064825257 0.23045229784217416
0.5743238256552063 13.057839832726511 44730.5702580836 10.739191512427752 0.2337317055684718
0.5943796558733017 13.039529283565242 37995.651117878995 11.26293392808701 0.23705235577864023
0.6148171347350303 13.024503478185496 32902.80104476927 11.809107982099631 0.2404158959566052
0.6356206721769095 13.012437945571019 28292.437698893642 12.378692651070192 0.24382395900130774
0.6567909874718485 13.003014776216174 24371.636099893316 12.972380704815754 0.24727453817474393
0.6783227499516757 12.99597420028259 21028.39631034861 13.591491404277775 0.2507723349587862
0.7002099089032571 12.991068954398026 18173.159773491476 14.237225980459364 0.25432002726030634
0.7224440890873582 12.987999190888429 15730.463883967932 14.910774083798511 0.25791959962845035
0.7450321283949338 12.986648535385767 13634.69019065212 15.613169290159194 0.261570988092726
0.7679519916871966 12.986747329658156 11836.52388064823 16.34566996681409 0.26527601004128193
0.7911958599305632 12.988143124208628 10289.249170339312 17.109895826662793 0.26903939400498195
0.8147690811323959 12.990669947365229 8956.452699943402 17.907301865600033 0.2728635724641471
0.8386533449379443 12.994121373098853 7807.781016001109 18.739255568774276 0.2767496463233029
0.862832534254648 12.998402979822533 6814.786506612349 19.60709700032007 0.2806980576834426
0.887312220620901 13.003353427426076 5955.677325277904 20.512913983037972 0.28471518566467313
0.9120682530954977 13.00884932862884 5211.339929462937 21.45850057091356 0.28880404346828037
0.9370882151515572 13.014736420843404 4565.484421361842 22.4453435161205 0.29296457429198264
0.962366748546908 13.020935981264172 3982.107329216981 23.475462855447507 0.29720053521129675
0.9878907691477057 13.027328349153274 3516.7381801262904 24.55128335542406 0.3015180469094582
1.0136335436176032 13.033788858420648 3092.0302919441037 25.67475014285187 0.3059187624419194
1.0395970192837187 13.040245298093419 2721.568095914081 26.847818632213375 0.3104038991773825
1.0657474553990556 13.04657167512021 2398.4574842154534 28.073588214232167 0.31498221261136594
1.0920787790690685 13.0527010885148 2115.750149877949 29.354116204772076 0.3196541648815204
1.1185766847089107 13.05853589438826 1868.693373535798 30.692153386657658 0.3244244078512856
1.1452073576661763 13.063987554838086 1652.1845035096624 32.09110485574709 0.32930103515205644
1.171970424972857 13.069001905974693 1462.1514131626507 33.55290441726352 0.33428169772413857
1.1988255500939946 13.073458946994068 1295.5486718157515 35.082097630854165 0.3393799845612788
1.2257710438112348 13.077333791407785 1149.0846946971033 36.68071160720357 0.34459268131899706
1.2527661104216916 13.080496901799641 1020.2416235595961 38.353795395645584 0.3499342054365741
1.279807781422602 13.082934696675204 906.7724782785735 40.10358262564658 0.35540110329150165
1.3068526612441547 13.084522285153653 806.7880087080094 41.93555648371006 0.3610080049635567
1.33388885718462 13.085235804854054 718.6394754789703 43.85318406907874 0.36675674793335106
1.3608959871960011 13.085033500851154 640.6683955157887 45.861173666362156 0.3726551976153275
1.3878268262781814 13.083775435341602 571.841557702497 47.964847995876724 0.37871325474746453
1.4146836284846958 13.081485560679216 510.8680880402751 50.16895018172664 0.38493650363686605
1.441406611138164 13.078034208401013 456.9006066750468 52.47872473618462 0.3913320456700366
1.4680001516264036 13.073439840890895 409.0071424877651 54.900574511595586 0.3979115052489807
1.4944094098529628 13.067572771878002 366.5466641501425 57.44068835168432 0.4046839416793743
1.5206212632638567 13.060429662271229 328.85536400918784 60.105693117581 0.41165912421323114
1.5466046448028288 13.051942843728417 295.3075547099414 62.902693117899744 0.4188475905016807
1.572320308083478 13.042065891796918 265.48028577028595 65.83931331385898 0.42626070981967307
1.5977446635028738 13.030739019041551 238.93447265389523 68.92374668265606 0.43391075162115594
1.6228315363489108 13.017920001250639 215.25110049592908 72.16480616994971 0.4418109600516779
1.6475837424077369 13.003581415932883 194.109751278908 75.57198171631455 0.4499756351211371
1.6719325421330193 12.987647926840202 175.24311225491056 79.1552173589885 0.4584190288945116
1.6958700702760452 12.970105052394084 158.37480658499064 82.92468768317602 0.46715434497796005
1.719350163557349 12.950893522124643 143.28617883139157 86.89313570112897 0.47620316240095495
1.7423359046254612 12.929955388734173 129.7826411311811 91.0721535432009 0.4855798847149577
1.7648158451143965 12.907311712403308 117.68431968405406 95.47579656817982 0.4953063012095157
1.7867426862296574 12.88287708351394 106.82805600601006 100.11776527662776 0.5054000666098836
1.8080815746057584 12.856625312114186 97.08945068550392 105.01456575493688 0.5158868113778168
1.8287921993540281 12.828492284288066 88.33572359513109 110.18273638663432 0.5267890690001462
1.8488730301586929 12.798530714902801 80.47017146715694 115.63989111094737 0.538130157073387
1.8682597331895188 12.766624898202789 73.38527193576752 121.40626506846081 0.5499395123808379
1.8869285712804305 12.732778863338837 67.01150380575444 127.50326289464032 0.5622468740957148
1.9048524312936315 12.696967187206118 61.25921439344485 133.95333531223864 0.5750815835195585
1.921996016418476 12.65915330895657 56.07841487644428 140.78212489076293 0.5884798030261392
1.9383110273740956 12.619281479601531 51.39577313362384 148.0173281505269 0.6024798767778993
1.953808830612835 12.577429635771766 47.16490103475991 155.68747185092622 0.6171176752022709
1.9684267272234994 12.533506218279939 43.341971648239884 163.82616426092687 0.6324406765026696
1.9821422793676757 12.487510507170645 39.881911349466485 172.46714627226294 0.6484903463217087
1.9949336882613937 12.439438777819777 36.74796378977438 181.64975479567312 0.6653200260435093
2.006769577778138 12.3892840019051 33.90380048110901 191.41595845828957 0.6829840342212392
2.017619877297965 12.337015245747118 31.330369984246033 201.811782309724 0.7015415923868406
2.027458920011066 12.282632766765534 28.993327139046038 212.88719273816923 0.7210554515795059
2.036269134188084 12.22617472475696 26.87148198850668 224.697610040901 0.7415957466714331
2.044016740373516 12.167584833353807 24.942202472237046 237.30424087583756 0.7632397762862564
2.050679099885154 12.106884291408377 23.190578973450673 250.77390979371737 0.7860700278736912
2.056253354697233 12.044144553010971 21.595158460051813 265.1796944578331 0.8101746193645087
2.060701656583292 11.979301106784149 20.143128770117748 280.6033582200695 0.8356533517057303
2.064009436734955 11.912411676903039 18.821427239415694 297.1345640732067 0.8626130136607076
2.066172257507892 11.84351600329395 17.61960080612944 314.8737009699842 0.8911741711395436
2.0671681262614094 11.772631029060712 16.524660329860975 333.9301675603851 0.921462708646285
