M[M_sun], R[km], Lambda[1], P_c[MeV/fm^3], rho_c[fm^-3]
0.24162668629717493 15.618656898711224 2160425.4255784233 3.5677272577965504 0.1711233750220791
0.2536446863342624 15.27727212619147 1723118.6239717316 3.784832866141982 0.17388833833436043
0.2660403862257407 14.981270463267924 1382971.99976044 4.0114293618446935 0.1766669980035908
0.27881682897104243 14.723479227766589 1116361.2527019093 4.247772425028603 0.1794580269928074
0.29197233171331893 14.498372121124333 905835.4079272231 4.494487402501908 0.1822679944975129
0.3055087252593179 14.30116583904362 738599.3171578031 4.7517302678934845 0.18509261399528976
0.3194253691573936 14.12811371558939 605062.5663967786 5.020182745480161 0.18793849190324394
0.3337265907528266 13.975891417901547 497657.9509396849 5.30006962456646 0.19080226555278784
0.34840704485486945 13.841976649074278 410975.1743728801 5.592118733487924 0.19369021553576712
0.36347039723050595 13.723947194615164 340639.6111471353 5.896498363050469 0.19659742344941222
0.37892524838429614 13.619949997264886 283277.1463499524 6.214072210290585 0.19953156184177795
0.39475866867572545 13.52840911625262 236389.5309291515 6.545096462452771 0.2024887870770412
0.4109845163488266 13.447848269173983 197839.79824370018 6.890276025357595 0.20547285254192943
0.42759336920789287 13.37702329016229 166064.8501047705 7.250314974383841 0.2084868124028766
0.44459011858877967 13.314884250288683 139787.25251818338 7.625470625951541 0.21152618657134134
0.46197255172625945 13.260532070180465 117969.72269031481 8.016695338682178 0.21459718844114156
0.4797379442962765 13.213125746770851 99808.03627477758 8.424692711286522 0.21770144112333592
0.4978969042634225 13.171948102968575 84628.73731277512 8.849901486552692 0.2208363813963606
0.5164367702584535 13.136367761762772 71927.88755123074 9.2931992653536 0.22400547730359105
0.5353562750264758 13.105815232422756 61266.62887322844 9.755469045012928 0.22721161976539414
0.5546644640782619 13.079797032958059 52298.63134962876 10.23752058464476 0.23045615999231223
0.5743483777757584 13.057817005320663 44321.10589317805 10.739821753008082 0.23373575190822163
0.5944059808772723 13.039528727367559 38321.18443916442 11.263623951255852 0.23705666705588602
0.6148442563112458 13.024487373843575 32894.82254635657 11.809861864508157 0.24042048081947406
0.6356506074381929 13.012434342899931 28287.87151943612 12.379514723715223 0.2438288265544392
0.6568224187298262 13.003016742711166 24366.469287646767 12.973267192588276 0.24727960497533025
0.6783556454046931 12.995968581288393 21023.97769767125 13.592454896197506 0.25077769942366035
0.7002448561700689 12.991046598620075 18168.631242016017 14.238271643032066 0.25432570003079685
0.7224809179334214 12.988000857179268 15726.232176055475 14.911907415505103 0.2579255919803957
0.745070187201329 12.98663923076179 13631.216999800856 15.614385084331584 0.26157720242606713
0.7679940738219283 12.986754559573612 11833.894900953148 16.346984688805758 0.26528256360066677
0.7912398198075391 12.98814551122614 10218.044936512404 17.111316075338767 0.2690463001933566
0.8148135085795253 12.990680777759787 8954.323529548139 17.90883467734469 0.2728708455462742
0.8386985113730154 12.994133751664727 7805.728531141704 18.74089414475576 0.27675717473211586
0.8628811360683825 12.998412829889967 6812.462311070713 19.608862647313305 0.28070597902796596
0.8873641463927512 13.003357347299348 5954.019766204629 20.514815199773626 0.2847235170911971
0.9121211530285558 13.008864155805377 5209.966965837521 21.460546438125366 0.2888128032792248
0.9371424854007089 13.014754125103629 4564.170339184091 22.447525511147322 0.2929736370570845
0.9624278937361092 13.020961149549041 4003.6418937430017 23.477808362531682 0.2972100610124836
0.9879506608825732 13.02734765162485 3515.776045047569 24.55380341558078 0.3015280579121321
1.0136954384685926 13.033802344855141 3091.3295331977492 25.677435000841385 0.30592912382597537
1.039658904182395 13.040259259069348 2720.7284760611183 26.850701113145863 0.3104147886712984
1.0658127342422103 13.046582364150064 2397.5915265814324 28.076681812038053 0.31499365717484934
1.09214534482302 13.05271740426757 2115.084553815723 29.357409954659115 0.319666020358741
1.1186449307517066 13.058549789846266 1867.8734955633659 30.695686615341355 0.32443687154441486
1.1452776233187234 13.064003824555225 1651.6596003305328 32.094866030907674 0.32931395817944736
1.1720418197171543 13.069013497457812 1461.6576549768724 33.556937660093205 0.3342952901683193
1.1989000466046031 13.073470799766582 1295.0548890231207 35.08642197895478 0.33939428400811417
1.2258464629463408 13.077339847738932 1148.7234332998798 36.68531451095052 0.34460752957397056
1.2528431030257197 13.080504006749528 1019.858659156944 38.358695536100356 0.3499496355091067
1.2798877660250976 13.082941110103246 906.4383108119547 40.10883570208203 0.35541735455505347
1.3069335027241142 13.084523320508177 806.5634554956953 41.94114993019597 0.361024914799687
1.3339702163266245 13.085236378541259 718.3939487763671 43.859180602064676 0.36677457273056374
1.3609794510030064 13.085030456747921 640.4294962900087 45.86756072032685 0.37267377030064114
1.3879125439227793 13.083768593104756 571.6354891158684 47.971652853790566 0.37873262356974324
1.4147624956319265 13.081462671061358 510.6724143803866 50.176247466783636 0.3849569514337732
1.4414939415306838 13.078022916759839 456.7468764603626 52.48650286337027 0.39135340149307596
1.4680893521144087 13.073419277502136 408.89679593851525 54.908867924202085 0.39793382962417967
1.494499485306314 13.067551470640952 366.42232274535075 57.44953428308381 0.40470729981194864
1.5207114097474257 13.060402939215203 328.73289626536774 60.115131841042434 0.41168358637187186
1.5466956829600975 13.051911824474352 295.1976295965298 62.91276822133394 0.418873232440927
1.5724118971152155 13.042027491333627 265.3776418154556 65.85007200226781 0.4262876132444575
1.597825828224968 13.030689398063632 238.83985118008502 68.93524011140015 0.43393900469809016
1.6229238242557698 13.01786726200746 215.16036623633363 72.17708981233162 0.44184065797219035
1.6476760586124586 13.00352349370856 194.0360229519863 75.58511576940825 0.450006880722192
1.6720241927120072 12.98758888704029 175.17490319436018 79.16919860448124 0.4584516469802903
1.6959628862041112 12.970028445018903 158.31619530052092 82.93965254148226 0.46718873417876305
1.7194418585461826 12.950814213839719 143.2330308682174 86.90916121380793 0.47623945230247056
1.7424177793623514 12.929837772193899 129.74476418951946 91.08924638051022 0.4856179099863237
1.7649060419148297 12.907215468968205 117.63924605934959 95.49412140598663 0.4953465099954013
1.7868327119173208 12.882775380094332 106.7911058701051 100.13733807133622 0.5054423038517228
1.8081698045544259 12.856511692675369 97.05237405108664 105.03548800960947 0.5159312398294688
1.828878283861814 12.828369374930405 88.29994540246294 110.20511881702835 0.5268358647081999
1.8489574017831858 12.798394461693782 80.4388561499239 115.66394603664311 0.5381798462491577
1.8683320564095662 12.766452082471663 73.36390586812745 121.43203625857979 0.5499919730798326
1.8870096074845448 12.73262560661445 66.98577126021192 127.5308292294332 0.5623020964704921
1.9049315504286648 12.696802775879508 61.23624978957097 133.98288519086572 0.5751399241551243
1.9220710587666567 12.65897860735863 56.05632242806588 140.81386376966185 0.58854164243192
1.9383837382185833 12.619083351853288 51.3754871182461 148.05144611444584 0.6025455043789718
1.9538777757266508 12.577233664026322 47.14895278150629 155.72406528935434 0.6171870234311471
1.9684923313410723 12.533294064811038 43.32693308169187 163.86545494809084 0.6325140718328203
1.9822051941682797 12.487286324460095 39.867030278715745 172.50949601411097 0.648568540489606
1.9949913458827622 12.439199981311846 36.73311628018351 181.69531712523641 0.6654030184585663
2.006825331940394 12.389034599911668 33.89149640477529 191.4650292783472 0.6830722494229728
2.017670133500037 12.336751579502195 31.31762383002265 201.86468803728104 0.7016354948345346
2.027503908725119 12.28236156418447 28.98268242478798 212.94416041041464 0.7211551131138316
2.0363107569589185 12.225884335749802 26.860458781535456 224.75916699828107 0.7417021493377279
2.044052238164943 12.167282238389705 24.934477707481854 237.3706870338394 0.7633530730894976
2.0507093081407675 12.10656646492093 23.180286018382656 250.84572525540932 0.7861908659418927
2.056279376533716 12.043810187071232 21.587278661112414 265.2575597196268 0.8103041916840098
2.0607218957946576 11.978952805853877 20.1354746023094 280.6875692689827 0.8357914774258979
2.0640240488515227 11.912050064264747 18.816188031374296 297.2259272175263 0.8627610383250555
2.0661815418269343 11.843138592291004 17.613798778354926 314.9729499357217 0.8913330492129201
2.06717167194081 11.772236305155285 16.5194761243432 334.0379570086708 0.9216329534696919
