M[M_sun], R[km], Lambda[1], P_c[MeV/fm^3], rho_c[fm^-3]
0.24162668629717493 15.618656898711224 2160425.4255784233 3.5677272577965504 0.1711233750220791
0.2536446301248422 15.277269414497876 1723166.4877375346 3.784843209558792 0.17388846726006116
0.26604223887127765 14.981215486987448 1382949.4238821988 4.0114511059455 0.17666726076821657
0.2788191547925576 14.723437981697122 1116423.0024167236 4.247806305629615 0.17945841995672218
0.2919745885447989 14.498352178478813 905813.1560161466 4.494534308841425 0.1822685168104898
0.30551175017589205 14.301129820834449 738551.1637852285 4.7517917928731945 0.1850932785824928
0.31942952867786406 14.12805427919256 605039.1354028548 5.020259342502411 0.1879392866269135
0.3337300000477847 13.97583580212919 497617.92150133394 5.300163310470618 0.1908032088143897
0.3484126207759148 13.841929633975425 410940.55545368546 5.59222974238338 0.19369128957736814
0.3634778202489036 13.723872509870631 340628.6157589221 5.896629189200367 0.19659865219629785
0.3789321380811418 13.61991604728772 283252.24116503407 6.214224437159521 0.19953294996752954
0.3947669708964381 13.528367088460573 236374.38790809156 6.545269932188244 0.20249030817227517
0.41099371034632776 13.447780159808476 197818.6076200708 6.890474087164569 0.20547453931939103
0.42760361456579843 13.376976426139711 166045.10277773612 7.2505394871861695 0.20848866973975255
0.4446018726107166 13.314848774048869 139770.8779122409 7.625720969401565 0.21152817946617383
0.4619824768620927 13.260492914069207 117944.06469274792 8.016975879868244 0.21459935865402358
0.4797524079877217 13.213087669420835 99793.62589318544 8.425005638227516 0.21770379389646838
0.4979117313648735 13.171915262082727 84620.78009254845 8.85024564558856 0.22083887325482812
0.5164526217862435 13.136337363554976 71919.62647183746 9.293580226706796 0.2240081592952677
0.535372241482101 13.105801407091619 61257.52593935171 9.755889392180643 0.22721449768460703
0.5546839096535271 13.07976676746708 52289.495405453046 10.237980284385477 0.23045920422041435
0.5743672791443615 13.057815183882994 44716.16888561063 10.740324343439175 0.23373897869447227
0.5944261781107936 13.039518076023924 38315.82914860119 11.264174217807298 0.23706010513125725
0.6148677840604344 13.024465914152145 32891.07417142514 11.81046305850829 0.2404241370820649
0.6356741537759244 13.012406471786305 28281.875896999125 12.380170299360737 0.24383270826648193
0.656847183193454 13.003015175503764 24362.00711831879 12.973974139331482 0.24728364559301727
0.6783827917218744 12.995960878908866 21020.679845616836 13.593223254173694 0.25078197743501635
0.7002729300667085 12.991053300070682 18029.46330746594 14.239105532849702 0.25433022392375554
0.72251000088677 12.988013395465803 15724.103620618978 14.91281122256293 0.25793037074900305
0.7451000043057879 12.986658123863783 13628.400062724855 15.615354656311231 0.26158215823488457
0.7680244718182546 12.986758737252242 11831.340184757933 16.3480331575994 0.265287789954638
0.7912730424045699 12.98814800250632 10285.47984880642 17.112448704037487 0.2690518077831782
0.8148488659887095 12.99067945750693 8952.206491395444 17.910057078019715 0.27287664575007137
0.8387368348574069 12.994139139058449 7804.435856499353 18.742200895175532 0.2767631785741639
0.8629181569128294 12.998429892956446 6768.6764628002575 19.610270740976627 0.28071229625619504
0.8874032214807515 13.003380961797198 5952.7224735509335 20.51633141517314 0.28473016138217067
0.9121629862431435 13.008869051163868 5208.678091297958 21.46217801798646 0.2888197892317057
0.9371862274549421 13.014764090078886 4562.972436258413 22.449265658254124 0.29298086463747663
0.9624731360003593 13.020965925018043 4002.572489637872 23.479678918005437 0.29721765789405874
0.9879970285796454 13.027356745695782 3514.835872181705 24.55581318576871 0.30153604177500604
1.0137421985627857 13.033815076550034 3090.7428367239704 25.679576205333234 0.30593738714648216
1.0397080152323082 13.040274623669802 2720.0718221074753 26.852999933010953 0.31042347319880126
1.065863566741607 13.04659908442242 2396.9537073472843 28.079149010224306 0.3150027844137603
1.0921993195905684 13.052729836056825 2114.73091674625 29.36003678589035 0.3196754753382908
1.1187002362994518 13.058557179610416 1867.4330578791348 30.698504446839316 0.32444681162761485
1.1453331223513308 13.064013828367273 1651.065242028634 32.09786566462893 0.32932426462546155
1.1720999498934055 13.069030593611297 1461.2902598662802 33.56015428775543 0.33430613053518926
1.198958294721965 13.0734801425573 1294.6829084127648 35.08987078558233 0.3394056882766579
1.2259076769864057 13.0773477038682 1148.4273581469847 36.68898548691386 0.3446193715741734
1.2529062319846882 13.080510919188603 1019.6268702657419 38.36260358191834 0.3499619415707366
1.279950467821771 13.08294464373691 906.2021292260043 40.113025245347366 0.35543031560228044
1.3070039216073372 13.08454595111234 806.3301344881219 41.945610948075455 0.36103840113257796
1.3340363096744254 13.085239099144697 718.1236700977053 43.86396311988354 0.3667887888468575
1.3610465503252493 13.08502810130428 640.2429378118134 45.872654715445115 0.3726885829464781
1.3879857707965828 13.083783334508507 571.4406908264388 47.977080088433844 0.3787480712314875
1.4148320225383124 13.08145653829432 510.558548754513 50.18206746469815 0.3849732597093066
1.4415642975183716 13.078010929197712 456.59688711209947 52.4927063838104 0.3913704340359463
1.468159268521185 13.073406761032523 408.7587530264792 54.915482441300604 0.3979516347146139
1.4945699549155047 13.06753518245098 366.29964922469094 57.45658949669152 0.40472592946295394
1.520783329821447 13.060380302423443 328.64870526495355 60.122659876030994 0.41170309663582816
1.5467677008248981 13.051887719552388 295.1070485214538 62.92080384678728 0.41889368374656627
1.5724857943947301 13.04199734954341 265.3220667581381 65.8586528727786 0.42630907076749375
1.597898982737227 13.030653204761284 238.76493648177535 68.9444070329568 0.43396153876914556
1.6230071740458991 13.017841465926898 215.08632107620917 72.18688703558324 0.44186434452609047
1.6477498792246137 13.0034783123836 193.96859109925666 75.59559131344679 0.45003180179320695
1.6720980593274215 12.987534366505203 175.12321911681818 79.18034990114619 0.4584776628278305
1.6960348731257142 12.969973807410417 158.2582413854077 82.95158841465579 0.4672161627805529
1.7195144239194498 12.95075130252742 143.188089526711 86.92194312065307 0.476268397032657
1.7424962301640596 12.929803029534597 129.6951172307491 91.10287964085848 0.48564823897237586
1.7649788121190768 12.90713859077819 117.59972366226454 95.50873738627229 0.49537858071973784
1.7868879634032537 12.8826625918567 106.75768369380393 100.15294949911082 0.5054759926355777
1.8082396117903823 12.856420672895688 97.02380891275682 105.05217585652026 0.5159666765073629
1.8289436618335022 12.828265908028044 88.27426482752817 110.222971404622 0.5268731897199314
1.849024734486056 12.798289718592981 80.41537006316543 115.68313274327774 0.5382194793642414
1.8683962532099312 12.766338540398 73.33363818158402 121.45259199942838 0.5500338170353617
1.887071944403014 12.732505886373668 66.96367855183453 127.55279126779342 0.5623460517514531
1.9049932059904584 12.696672682313151 61.21620533153421 134.00645514700227 0.5751864585669443
1.9205374906590689 12.660593673679564 56.417713225809045 141.16682773255775 1.1430450652492774
