M[M_sun], R[km], Lambda[1], P_c[MeV/fm^3], rho_c[fm^-3]
0.24162668629717493 15.618656898711224 2160425.4255784233 3.5677272577965504 0.1711233750220791
0.25364495047549096 15.277276972797807 1723216.2677875683 3.784838251567625 0.17388840546109308
0.2660416548484798 14.981250688758905 1382928.634960122 4.011440683164465 0.17666713481505888
0.27881759292667585 14.72347130209543 1116407.7855652152 4.247790065342971 0.1794582315938707
0.2919736370244024 14.498364990846332 905865.1607147229 4.494511824791552 0.1822682664453762
0.30551027007550996 14.301164682197793 738637.2164781331 4.751762301506793 0.18509296001945055
0.3194289148991118 14.128040319475186 605041.4100660903 5.020222626473934 0.18793890568394697
0.3337255534734033 13.975914409056312 497650.9994001048 5.300118403012669 0.1908027566708031
0.34840982320216674 13.841900557316862 410952.36725734745 5.592176531265705 0.19369077474516677
0.363474142808708 13.723901804971772 340619.8672431188 5.8965664788020815 0.1965980632069662
0.3789288617387701 13.619935621188636 283245.9555068107 6.214151468442745 0.1995322845806926
0.39476307257579696 13.528383783375807 236373.95116895853 6.5451867808062465 0.20248957904698706
0.4109892891425058 13.447825907304637 197837.533244051 6.8903791476776535 0.20547373077488065
0.42759871662703536 13.376993029468773 166053.9736853253 7.250431868511409 0.20848777943803656
0.4445957289318808 13.314865380351442 139778.61004582327 7.62560096888729 0.21152722418492012
0.46197895271102096 13.260509103199515 117966.35321832074 8.01684140414697 0.21459831837560056
0.47974581877435724 13.213095122587323 99789.26408503133 8.424855638460064 0.21770266610791297
0.4979047244682378 13.171928974160647 84627.58147124342 8.85008067476625 0.220837678795588
0.5164420614701379 13.136376416373258 71920.25437192673 9.293397614730756 0.22400687369557187
0.5353648554853353 13.105824138957084 61262.558204493085 9.755687900633248 0.22721311816681788
0.5546731023548016 13.079788150892172 52292.41800371098 10.23776075553643 0.23045775560737058
0.5743583062746982 13.05780736074312 44717.815472081595 10.740083428567017 0.23373743194636695
0.5944170274434084 13.039496493674338 38320.04907416657 11.263910449339551 0.23705845710109752
0.6148559716321158 13.024481275549926 32893.8625489867 11.810174877891676 0.24042238446309716
0.6356628959412589 13.012413598352248 28284.103128480314 12.379856050793638 0.24383084757739795
0.6568352450955735 13.003005105043153 24364.295566944947 12.973635265915018 0.24728170873153035
0.6783690917179259 12.995966370512154 21022.69579510627 13.592854943104163 0.25077992677765765
0.7002580553736142 12.99105699871291 18166.937883901934 14.238705808869177 0.25432805540165265
0.7224962448936966 12.987998633414838 15724.284065588807 14.912377983481239 0.2579280800506675
0.7450858839646731 12.986642326956087 13629.815817396984 15.614889892551142 0.261579782670833
0.768008934693986 12.986759604618884 11832.365798825393 16.347530574274742 0.2652852847028168
0.7912567886166407 12.988144972565724 10286.88729634152 17.111905778219345 0.26904916771877474
0.8148338742387944 12.990673702415835 8953.36457171904 17.909471119488344 0.2728738654187381
0.8387182606929039 12.99414250003762 7805.344812716023 18.741574503107245 0.2767603006267141
0.8629035650541149 12.998414012763678 6811.966293264514 19.60959576935241 0.28070926808419955
0.8873849086572426 13.003376210432561 5953.320479371035 20.515604614624472 0.2847269764294742
0.9121433881447294 13.008855869646078 5209.288348411664 21.46139591660431 0.28881644050007377
0.9371670397567331 13.014751578934055 4563.502189060603 22.448431514342136 0.29297740007855577
0.9624513771298812 13.0209638224521 4003.0955456557886 23.478782261733084 0.2972140163065142
0.9879738762172872 13.027352035369928 3515.2360247111615 24.55484979566865 0.30153221468348124
1.013718887920864 13.033805824009438 3090.6609294793566 25.678549811028944 0.3059334260931895
1.039685550833288 13.04026764192519 2720.399764438757 26.851897984213757 0.31041931023467284
1.0658394985000763 13.046587672092764 2397.334255447246 28.07796634752176 0.3149984092301624
1.0921737452215168 13.052723704862746 2114.8123321507123 29.3587776014439 0.3196709430474268
1.1186742879682183 13.058559044448668 1867.6107741303756 30.697153704242798 0.3244420467955797
1.1453069372785385 13.06401334652522 1651.4035722620004 32.09642777309684 0.32931932417178394
1.1720724041690906 13.06902117430721 1461.397968782242 33.55861237750163 0.33430093413865636
1.1989309799348886 13.073482054790446 1294.8847144462586 35.088217577351905 0.33940022156522565
1.2258781278205657 13.077343598880006 1148.5727889859736 36.68722577898852 0.3446136950288032
1.2528761569078644 13.080505790218842 1019.6957810994625 38.36073023143992 0.3499560425696717
1.2799206753015786 13.082945808859888 906.2978601597396 40.111016955032106 0.35542410262297147
1.3069655931671171 13.084528013135634 806.3787457879731 41.94347252255653 0.3610319363482642
1.3340055845660608 13.085238963239005 718.2950486107517 43.861670578422476 0.36678197422802006
1.361014271094747 13.085034427378323 640.3135757787252 45.87021286259702 0.3726814823700965
1.3879477930876343 13.083768023947556 571.5424139594819 47.97447849198009 0.3787406662481665
1.4147970170492292 13.081460620669775 510.5755830394383 50.17927759050265 0.38496544217436035
1.4415301271506638 13.078018791035708 456.6664673413241 52.489732661632154 0.39136226930900225
1.4681260992286962 13.073412021328965 408.82870397376234 54.91231170073424 0.3979430996512546
1.4945366315440487 13.067541129342953 366.3612547815825 57.45320750035956 0.4047169991293214
1.520748938341138 13.060392594414644 328.700738639591 60.11905122403887 0.41169374416164334
1.5467330512601167 13.051898927653538 295.1476072579455 62.916951871644734 0.4188838801635829
1.5724500256362188 13.04201058389456 265.3326794292754 65.85453952372342 0.42629878483181893
1.5978639487219641 13.030670022432279 238.7989922149136 68.94001274848932 0.4339507367656795
1.622962706802268 13.0178473383745 215.13244431348147 72.18219060287616 0.44185299005313444
1.647713638170172 13.003502562389212 194.00258105399718 75.59056971312525 0.4500198555250455
1.672062631129949 12.987561444836073 175.15043276140995 79.17500436443544 0.45846519175184125
1.6959999574151794 12.969999944650368 158.29011588912763 82.94586677342804 0.46720301446567564
1.7194797095774916 12.950781928800211 143.2103296662447 86.91581591345607 0.47625452192299905
1.7424604512766126 12.929829241064699 129.71753586363772 91.09634431758623 0.48563370028366115
1.7649432251085395 12.907174328675012 117.61860095180165 95.50173097199867 0.4953632070823652
1.7868687551787117 12.882735466791592 106.76735929505682 100.14546589259959 0.5054598433373936
1.8082061332270873 12.856464491843035 97.03619415139974 105.04417624129717 0.5159496893076688
1.8289193395749608 12.828330360952853 88.28876162909931 110.21441344071518 0.526855297293887
1.8489917892191818 12.798339265043586 80.42314989930205 115.67393523288476 0.5382004804815863
1.8683647805391561 12.766393070409674 73.347952285922 121.4427382048568 0.5500137583206268
1.8870411041314525 12.732564181980084 66.97231439305104 127.54226332583593 0.5623249809091619
1.904962921387608 12.696735851879922 61.225432034771806 133.9951564031237 0.5751641513382991
1.9221025104764589 12.65890581056407 56.04617122344156 140.82704406971803 0.5885673226686442
1.9384137510105726 12.619005925760073 51.36615637919375 148.065614449927 0.6025727578771886
1.9539070999531294 12.577148217053526 47.141547151669954 155.73926169226766 0.6172158221358491
1.9685199376214528 12.533208083068702 43.31963522812143 163.88177152808672 0.6325445513398528
1.9822314944905213 12.487195408431603 39.85985972106258 172.52708304367746 0.6486010130167745
1.9950149376854915 12.439101105213815 36.72798870298274 181.71423837096535 0.6654374837700194
2.0068484136470293 12.388931014962603 33.88574619411557 191.48540764062858 0.6831088838492477
2.0176911982120544 12.33664290526766 31.313040659841484 201.88665909138507 0.7016744912883035
2.0275236269648325 12.282248196502755 28.976965818280213 212.96781845287387 0.7211965014436984
2.03632871703991 12.22576389239198 26.857033212239756 224.7847310619471 0.7417463374303687
2.0440678666711727 12.167157012895371 24.93011603768304 237.3982816867978 0.7634001245076797
2.050722475647379 12.106433766325203 23.177202386270917 250.8755499108305 0.786241049477039
2.056289578136886 12.043672437570942 21.584143098970703 265.2898617652503 0.8103578879430574
2.0607309116705697 11.978808152241122 20.13326494573625 280.7225421725551 0.8358488411276287
2.064030500596657 11.91189789186761 18.81322629904238 297.26387062896094 0.8628225134503223
2.066184756869403 11.842981688445258 17.61097327295019 315.01416862314096 0.8913990322243865
2.067171254998608 11.77207714167577 16.516175978366547 334.08272289697413 0.9217036576143931
