M[M_sun], R[km], Lambda[1], P_c[MeV/fm^3], rho_c[fm^-3]
0.24162668629717493 15.618656898711224 2160425.4255784233 3.5677272577965504 0.1711233750220791
0.2536420710576964 15.277336075004868 1723122.5676175521 3.784803903502889 0.1738879773290362
0.266038019180663 14.981274234389266 1383142.6236248163 4.011368476557397 0.17666626224082588
0.2788116775975683 14.723611417194427 1116480.0913807668 4.247677557208337 0.1794569266690551
0.2919651844091874 14.498485857757723 905959.302618678 4.494356062702964 0.18226653199836929
0.3054998235023325 14.301276341174814 738701.5280589259 4.7515579964752055 0.1850907531351874
0.3194153594824696 14.128201555343821 605161.678660985 5.0199682734076 0.1879362666727125
0.33371129941088556 13.976021126297875 497725.14742346056 5.29980730533145 0.19079962443335763
0.34839160121780466 13.842102244252692 411056.32809812925 5.591807912103965 0.1936872082533733
0.36345339164930374 13.72404622026204 340690.09571352653 5.8961320564371436 0.19659398302018113
0.37890502006738874 13.620090552501972 283340.6201276415 6.2136459855788075 0.19952767518561448
0.39473404741511176 13.528543338496252 236431.29682417854 6.54461076213277 0.2024845281413838
0.4109587370607779 13.447939676187248 195411.46923756282 6.889721472970507 0.2054681297410921
0.42756409941942647 13.377135377084658 166110.4855459081 7.249686366044025 0.2084816120871798
0.4445588833568185 13.314985806148632 139832.98920078948 7.624769699029772 0.21152060674234952
0.4619383346541641 13.2606406850227 118005.20076705738 8.015909867295992 0.21459111218494306
0.4797005580599845 13.21321307142279 99828.81974582782 8.423816570416978 0.21769485376881945
0.4978556700535152 13.172043249078568 84662.15003130707 8.848937906635404 0.2208294046660534
0.5163917424986266 13.13645298465538 71953.76780200594 9.292132652616674 0.22399796828342755
0.5353090710491906 13.105879588390792 61291.9479392623 9.754292167512537 0.2272035622390689
0.5546136121661023 13.079855012959085 52313.479268687166 10.236225770992434 0.2304475370384962
0.574293201618543 13.057873727161674 44340.18402266579 10.738414629149691 0.23372671773717835
0.5943477749389721 13.039552771375654 38335.166060910306 11.262083356032713 0.23704704138905278
0.6147821000464808 13.024529240126896 32910.51877910618 11.808178696784102 0.24041024435140845
0.6355826627836157 13.01244335836732 28302.117359585707 12.37767931455588 0.24381795896061392
0.6567522037998982 13.003044138890077 24377.82358026121 12.971287970485296 0.24726829255340785
0.6782816477458915 12.995992027182432 21034.64249901984 13.590303755698272 0.25076572244968565
0.7001675988329966 12.991075389400528 18042.181462260083 14.235937050027161 0.2543130347498054
0.7223975357535783 12.98801314614112 15734.588033457294 14.909377094795035 0.25791221322098995
0.7449839433180041 12.986648269041545 13638.744320644657 15.611670660305709 0.2615633280909955
0.7679012937189827 12.986763160376665 11839.669619150327 16.34404940245194 0.2652679319343882
0.7911433586562704 12.988133142508355 10293.536473408243 17.108145195004845 0.2690308812760429
0.8147176316022204 12.990644553007083 8959.677392003154 17.90541249468597 0.2728546075342564
0.8385937107844558 12.994126524369761 7809.737832266831 18.737235838509438 0.27674036670777247
0.8627740097785026 12.998391514251749 6817.284658070199 19.60492065062554 0.28068829377491517
0.8872454015656744 13.003333335829488 5957.417553914491 20.510570539854523 0.28470491633328665
0.9120023812591677 13.008828033010353 5213.166729384905 21.45597884297105 0.28879324615949015
0.9370194175259137 13.014721327346908 4566.986572418944 22.44265400766773 0.29295340360504374
0.9622966129111774 13.02091793291113 4006.2778928059474 23.472571816955185 0.29718879384496816
0.9878183557854258 13.027316597273739 3517.9989190184087 24.54817717995583 0.3015057075488936
1.0135580689573354 13.033771711177565 3093.4730271601397 25.6714408535207 0.30590599125705725
1.0395189674940644 13.040221601355727 2722.56518705374 26.844265774736762 0.3103904771215973
1.065667948127696 13.046548305343473 2399.3560617054814 28.069775158987525 0.31496810646197254
1.0919962319128846 13.05267921663858 2116.6610219667846 29.350056465287228 0.3196395523120677
1.1184921071297762 13.058523946614747 1869.3665923742083 30.687798496945714 0.32440904569563694
1.1451203196658133 13.063972075396979 1652.8087061943406 32.08646902855391 0.32928510690643126
1.1718807846585295 13.068992229763216 1462.8011456627269 33.54793327867469 0.33426494447454835
1.1987346651688284 13.073441840062001 1296.0280556764467 35.07676772005244 0.3393623599911996
1.2256771422148474 13.077315457118043 1149.6305447803231 36.67503839031252 0.34457438039950167
1.2526702136058985 13.080481458162172 1020.6428545389002 38.34771792586504 0.34991496500611374
1.2797080658731945 13.082927299303023 907.063517271729 40.097108112753375 0.35538107331160507
1.3067517081492388 13.084515952511536 807.1519296428107 41.928662488404605 0.3609871633713126
1.3337856360063827 13.085229210975227 718.855334614948 43.845793304459086 0.36673477875867944
1.360792438627095 13.085034886691572 640.927117764314 45.85330161750739 0.37263230676659487
1.3877223373239673 13.083782353133321 572.1008517753291 47.95646104167082 0.3786893827684268
1.4145768716119043 13.081498971172113 511.0643570279801 50.159956364411734 0.3849113019696105
1.4412980768146164 13.078052963924666 457.08863409005863 52.46913833215472 0.3913057249962857
1.467891967341021 13.073459107358229 409.2286652031771 54.89035307692198 0.39788399098512434
1.4942982669157832 13.067601813415665 366.7276985870694 57.42978600460165 0.40465515347641096
1.5205096477262583 13.06046144710689 329.0100061524813 60.09406023070567 0.41162897548333605
1.5464920750014404 13.051983880294216 295.4402920237046 62.89027597973971 0.4188159878978572
1.5722074886323256 13.042113788860295 265.6036670536796 65.82605375619434 0.42622755266345197
1.5976299985329687 13.030795674940522 239.0414954783146 68.90958166995563 0.4338759312727195
1.6227117249428449 13.017953203941868 215.35154451843252 72.14966734651522 0.4417743592161088
1.647469663588565 13.003652819063404 194.20427565442998 75.55579490631361 0.44993712708374495
1.6718182416096774 12.987728827178058 175.3237013946036 79.1379865263147 0.45837882955901715
1.6957567654857395 12.970191420117121 158.44965401852357 82.90624473135932 0.46711196312839987
1.719223242677699 12.95095592776379 143.36877041540944 86.87338570069505 0.4761584383671572
1.7422250670984925 12.9300653204233 129.84844050815465 91.05108827298679 0.48553302224257855
1.7647075078254637 12.90742672870943 117.74256268303428 95.45321312107781 0.49525674808393516
1.7866334810058853 12.883006471131297 106.88040544605384 100.09364398927433 0.5053480139182474
1.8079742216926218 12.856762569617949 97.13893031454943 104.98878155903567 0.5158320585837748
1.8286876085196038 12.828643870699956 88.37962455989377 110.15513180558185 0.5267313208167088
1.8487687047738008 12.798691930115147 80.51117585643394 115.61024665916563 0.5380689218655198
1.868157208222682 12.766801912594122 73.42415417581334 121.37450575601649 0.5498748620591909
1.8868307961306854 12.732968225212375 67.04610132888781 127.46921043232273 0.5621785310755528
1.904756544955708 12.697168170458957 61.29216027878241 133.9169197653963 0.5750096879231649
1.9219028837970122 12.659371541942813 56.10493268514666 140.7430120244625 0.5884035962887146
1.9382206170094087 12.61949997554839 51.418056028044084 147.9752837665011 0.602399002313387
1.9537233165881598 12.577681650532048 47.19133249550003 155.6423771842002 0.6170322162947853
1.968343342368204 12.533767162630035 43.36283272788106 163.7777453083628 0.6323502283391512
1.982066894084714 12.487791317449856 39.89981908563041 172.41495880866225 0.6483939878762291
1.9948602448081592 12.439731454688859 36.76450832057764 181.5936088934884 0.6652177555041728
2.0066966914750015 12.389580691165488 33.921726446475475 191.35548956015663 0.6828753285578503
2.017556957017365 12.337339555645878 31.34516282313551 201.74658826931883 0.7014258793959831
2.0273999291933675 12.28297472137073 29.007255521530045 212.8169938361461 0.7209326428002834
2.036217351315416 12.226531348230726 26.884226321669246 224.6217566176197 0.7414646322234776
2.043970189794911 12.167959459173003 24.95468138240621 237.22236343514697 0.7631001677284891
2.050638334277853 12.1072781032116 23.199635021950375 250.68529849425573 0.7859207424848706
2.05621358333508 12.044533321783009 21.604581748348036 265.08374774926136 0.8100149584670592
2.0606773343571625 11.979727880548044 20.152719359185316 280.4995930628982 0.8354831526968406
2.063997747810846 11.912870008526564 18.83142329307117 297.02198719223395 0.8624306189418808
2.066161506820805 11.843979815583555 17.627264803946442 314.7514085051465 0.890978404956415
2.067165183678312 11.773113246960545 16.531340362857062 333.7973530404234 0.9212529387211544
