M[M_sun], R[km], Lambda[1], P_c[MeV/fm^3], rho_c[fm^-3]
0.24162668629717493 15.618656898711224 2160425.4255784233 3.5677272577965504 0.1711233750220791
0.25364010740810566 15.277387211901178 1723251.059544011 3.78476556592042 0.17388749946956536
0.2660334709302047 14.981406723260887 1383155.585080682 4.011287884271914 0.17666528833061812
0.27880519555646877 14.723706719807804 1116655.3082371873 4.247551984649965 0.1794554702166118
0.2919565545282537 14.498620910790073 906093.1346514593 4.494182215779164 0.182264596172525
0.30548779872669446 14.30147053046034 738850.4444657421 4.7513299734711465 0.1850882900515551
0.31940056985482784 14.128375908975668 605223.342365146 5.019684395733828 0.18793332133228038
0.3336938461749016 13.976224982221307 497857.1537396196 5.299460100685216 0.19079612865868675
0.34837144405471515 13.842267222856366 411160.72270423477 5.591396514718286 0.19368322787049533
0.36342943702061903 13.724222646846805 340777.78040230507 5.895647225398164 0.19658942938446186
0.3788763802118773 13.620275688934147 279504.8831177234 6.21308185539506 0.19952253099759568
0.3947044596838759 13.528697126688769 236522.13569386324 6.543967919627264 0.20247889128104818
0.41092426516581626 13.44810216715009 195475.31896354456 6.888987510376253 0.20546187900764398
0.42752727492077003 13.377271120661927 166177.56637671727 7.24885439795648 0.2084747294284067
0.4445163656539985 13.315131090258811 139885.90717925873 7.623842025945145 0.21151322186810406
0.46189275304961963 13.260751854593266 118054.9584948623 8.014870311402602 0.21458307037966284
0.4796509421659653 13.213338928798533 99875.86013132171 8.42265702784549 0.21768613562969263
0.4978008426927694 13.172161632953705 84704.51332737197 8.847662653637528 0.2208201712894751
0.5163338086849175 13.136547724877238 71991.492546108 9.290721055626022 0.22398803055261055
0.5352450220552267 13.105978657211546 61321.33785665295 9.752734658465007 0.22719289870769194
0.5545459105528562 13.079928409776581 52342.27295591452 10.23451220055858 0.2304361253278727
0.5742219055901255 13.057942294459082 44767.9882025522 10.736552443206593 0.23371476192659066
0.5942702824760848 13.039609692139235 38362.02907127583 11.260044555782923 0.23703430292819733
0.6147010510674411 13.024594633073699 32930.334136263155 11.805951241752163 0.24039669770838762
0.6354938492939118 13.012499241804397 28323.279650712597 12.375250413252797 0.24380357725576665
0.6566594279908587 13.003071422505233 24393.39009522068 12.968668776560499 0.24725332231498473
0.6781840460449751 12.996015710043457 21048.064733035066 13.58745708426842 0.2507498729458331
0.7000641495614508 12.991086387561007 18190.932712001344 14.232847642606853 0.25429627456377163
0.7222902122464497 12.988019062449071 15746.958088439018 14.90602871271675 0.2578945090627599
0.7448683445412592 12.986653475792492 13648.300825338729 15.608078684929861 0.26154496829552554
0.7677815156182608 12.986749785614562 11848.524270622553 16.340165202593326 0.265248570172284
0.7910178494901675 12.988126146578903 10232.126653439778 17.103949283078826 0.2690104779772017
0.8145836234619672 12.990640414155644 8966.960477213446 17.90088409137174 0.27283312058432674
0.838456579775876 12.994100787972467 7815.93575146459 18.732395026535524 0.27671812568145576
0.8626303565864218 12.998357960057099 6822.47876621205 19.59970450402069 0.2806648922147507
0.8870961733794992 13.003308737609032 5962.491747870095 20.504953961932152 0.28468030361796665
0.9118479046232119 13.008791959555277 5217.391125900679 21.449935018841195 0.28876736825477894
0.9368592689243662 13.014681641879703 4570.897380714898 22.43620810948614 0.2929266310137353
0.9621294583127609 13.020866005682427 4009.717716547198 23.465642976034466 0.2971606537632299
0.9876436667146636 13.027271102323693 3521.0478985958607 24.54073279433819 0.3014761345388505
1.0133848027192662 13.033736491930956 3096.106330860992 25.663509733790285 0.3058753835385702
1.0393339467791514 13.040179225281566 2725.094384252409 26.835750990295377 0.31035830979923107
1.065479408607536 13.046521006471087 2401.558655144775 28.060636866855443 0.314934299945742
1.0917993248721332 13.052634787689206 2118.6824401735207 29.340327045991028 0.3196045323764953
1.1182894544130324 13.058475727361913 1871.1647029196827 30.677361827896735 0.32437222966928736
1.1449130257215336 13.063938999020934 1654.2956883296667 32.07534427722092 0.32924683820522427
1.1716670149109194 13.068952092684029 1464.2079385826644 33.53601994561886 0.3342247953138342
1.1985142246574916 13.0734166929077 1297.2996212659098 35.06399471110773 0.33932012311339005
1.2254534505202335 13.077290332684477 1150.7089059892153 36.66144276191545 0.3445305230068507
1.2524412781571206 13.080456902416165 1021.6686140975593 38.333143307810374 0.3498687958111905
1.2794759789242884 13.082904019938782 908.0647110907785 40.08159248745401 0.35533307315036433
1.306513399059792 13.08450448823823 808.0287530398685 41.91214174321754 0.36093721865573014
1.333543220509232 13.085233390692636 719.6902585778421 43.82808228297168 0.366682132443353
1.3605429311600905 13.08504240828225 641.6634997501073 45.83443741871506 0.37257745223901445
1.3874706450002858 13.083801733585807 572.69084295955 47.93636312076363 0.3786321775977749
1.41431950235594 13.081529011991353 511.6148471710325 50.13840442738728 0.3848509110669954
1.4410474755679574 13.078108627637146 457.59276485189 52.44616658063007 0.39124265317337054
1.4676291168027409 13.073510999593665 409.6592313621535 54.86585983380842 0.39781805957967636
1.494033743957777 13.06766541859138 367.14198043233256 57.40366135876415 0.4045861700179857
1.5202428762327447 13.060542189568713 329.37027025883043 60.066185299939534 0.4115567325596732
1.5462229464928252 13.052080005724653 295.77752956572397 62.86052210022343 0.4187402619089499
1.5719371897196202 13.042223747898861 265.90177527969735 65.79428159023676 0.4261481024512516
1.5973540181253187 13.030915589426154 239.29927519035883 68.8756402228538 0.4337924966130042
1.622446022742236 13.018131266960554 215.57846959642717 72.11339288221441 0.4416866591574501
1.6471973140710408 13.003821516317089 194.42086525008318 75.51700975028122 0.44984485811668673
1.6715468264311486 12.987920062145376 175.5231870890974 79.09669877496957 0.45828250314401586
1.6954862457811402 12.970402970488387 158.64083345827785 82.86205453503543 0.4670104141859503
1.7189516529669449 12.951189327965203 143.52502426153828 86.82606429375264 0.47605127866300784
1.7419654719800934 12.930341907152776 130.00780670956294 91.00061595432304 0.4854207399117444
1.7644442199965502 12.907719433533558 117.88149565484287 95.39910390557472 0.49513802038312066
1.7863713673649033 12.883315031560059 107.0087346188788 100.03585076968349 0.5052232986576581
1.8077141857443901 12.857094878919906 97.24681314460166 104.92700478183502 0.5157008754679
1.8284416225244127 12.829032183506124 88.48501887091966 110.0887834928536 0.5265921778932515
1.8485180635739407 12.799081638699711 80.60218476190188 115.53922278113161 0.5379222110419576
1.867913392455869 12.767222824016255 73.50838994943115 121.29841588902241 0.5497199709738164
1.8865925044363354 12.733424121562937 67.12384209311172 127.38762758521118 0.5620147949523608
1.9045255559463468 12.697651721527368 61.36285249419822 133.82967642445018 0.5748374424793202
1.9216791421468846 12.659889654115648 56.170224972458165 140.64930776510172 0.588221024757551
1.9380120392335198 12.620079599036636 51.48184482819322 147.87455773260393 0.6022052507757532
1.9535101030238593 12.578235329611438 47.24433832021984 155.53434493094235 0.6168274843606808
1.9681468294134703 12.534388536755834 43.411475847241924 163.6614131425813 0.6321324040331872
1.9818810776321867 12.488448381781817 39.948650143106505 172.289938035929 0.6481631506888658
1.9946838243272869 12.440427981264161 36.80722202507422 181.45910715275107 0.6649727587184475
2.0065342777459905 12.3903161932352 33.96289965058 191.21063388616625 0.6826149197754353
2.0174060863570276 12.338113990562526 31.380956888625718 201.59041570957794 0.7011486885075958
2.027261835855339 12.283791817298395 29.041134276939893 212.6488345524862 0.7206384581941706
2.0360938404638858 12.227389740609516 26.913742462792037 224.44005508988369 0.741150556807086
2.0438623000230707 12.168861487074775 24.982755544091106 237.0262348938205 0.7627657505488528
2.050545222016423 12.108224828477466 23.225054217020237 250.4729012748299 0.7855626887829529
2.056136510795501 12.045514998222483 21.628216662746645 264.85392579024557 0.8096325213748825
2.060614965800041 11.980755119773418 20.17470384954197 280.2507069558352 0.8350743678424154
2.0639540453688823 11.913940952544014 18.850893561552994 296.7523403397164 0.8619937427251786
2.066137140768306 11.845095349003198 17.64600498622159 314.4584963001845 0.8905095101276675
2.067158327632154 11.77427422992903 16.549145501942846 333.4792446862147 0.9207505119859979
