M[M_sun], R[km], Lambda[1], P_c[MeV/fm^3], rho_c[fm^-3]
0.24162668629717493 15.618656898711224 2160425.4255784233 3.5677272577965504 0.1711233750220791
0.25363601966242083 15.277491373156696 1723453.1972036336 3.7846733408733972 0.17388634992884508
0.26602249671173334 14.981648978226186 1383465.4893904882 4.011094015881043 0.17666294554552775
0.2787893325877073 14.723993550740358 1116840.8624411137 4.247249921316935 0.17945196673714836
0.2919340922245297 14.498959424435522 906367.5750541467 4.493764038653562 0.18225993967317758
0.30545834994598625 14.301870993911256 739198.6242177269 4.750781492227268 0.18508236540732903
0.31936540022921667 14.12877325014141 605522.9582818534 5.019001578044686 0.18792623683521212
0.3336525059637143 13.976602657812903 498120.3590860376 5.298624980147588 0.1907877203805884
0.3483213786562726 13.842650495014075 411400.4474958178 5.590407014390316 0.19367365418262006
0.36337185676521633 13.724651184152117 341017.1611794207 5.894481127085152 0.19657847714233334
0.3788128093492862 13.620644508109276 283646.2412216381 6.211725059575486 0.19951015865340968
0.39463193929121293 13.529078512752676 236721.1248543471 6.542421843107986 0.20246533427862118
0.4108427641997145 13.448492894543572 198148.19269561206 6.887222322552065 0.20544684592740087
0.42743596112231774 13.377637037155397 166340.27655500508 7.2468535489438874 0.20845817691729918
0.4444163953023112 13.315476127080597 140024.67109524002 7.621611053343593 0.21149546189168503
0.46178168909506506 13.261109347793663 118178.98502955101 8.01237032335333 0.21456373095094822
0.4795311992068499 13.21362631851294 99991.03147736404 8.419868547195763 0.21766517015343115
0.49767157758807934 13.172433287250813 84800.99610804771 8.84459596806841 0.22079796717566075
0.5161910836245944 13.136796285462278 72085.80547834317 9.287326565175043 0.22396413312821384
0.5350941673112316 13.106200659160834 61404.928475016095 9.74898936851628 0.22716725647020547
0.554383561191098 13.08013061021569 52409.7558365273 10.230391720176023 0.23040868453592947
0.5740438616179582 13.058129333294595 44424.31097120118 10.73207467891696 0.23368601329281344
0.5940880852748782 13.03977804455333 38414.58878147806 11.255142209697146 0.23700367298113909
0.6145021882710361 13.024713008326307 32976.490699514805 11.800595380102218 0.24036412513349809
0.6352840879262719 13.01262086401303 28362.406179573965 12.3694102983134 0.24376899750185663
0.6564335342267982 13.00313366494722 24432.737129484438 12.96237122527905 0.2472173280942924
0.6779486136504325 12.996089250695636 21082.9505437877 13.580612728704248 0.2507117654077644
0.699814967827406 12.991143918926419 18220.69937936558 14.22541981936136 0.25425597826014984
0.7220285911060075 12.988037686896122 15772.28863999015 14.89797840415447 0.25785194404680434
0.7445941150704513 12.986661790762724 13574.823617523993 15.59944286574614 0.2615008277162236
0.7674936830464246 12.986727408395708 11870.397198487957 16.33082700843833 0.2652020216165213
0.7907158231090851 12.988095659650787 10318.901399217277 17.093861893137074 0.2689614264157918
0.8142678738916259 12.990596055242614 8983.714219160718 17.889997582564124 0.2727814648784573
0.8381275325923397 12.994051783082742 7831.579714565248 18.72075766691522 0.276664658035332
0.86228552407935 12.998298173112024 6835.592072006589 19.58716509503886 0.28060863579484063
0.8867362876873056 13.003221910367323 5974.172511243828 20.491452212115387 0.2846211368567902
0.9114741698861548 13.008711729377195 5227.828532312014 21.435406510641492 0.2887051613899348
0.9364711236875443 13.014588350348614 4580.334429322433 22.420713333757682 0.29286227453674674
0.9617269998280841 13.020772942859159 4017.8188718437355 23.448987644282507 0.29709301151220396
0.9872281550470462 13.027170362669654 3528.5140393423103 24.52283859247821 0.3014050493696373
1.0129481238680105 13.033625657448509 3102.6355935571537 25.644445888366292 0.30580181248758964
1.0388885674737216 13.04007394263572 2731.031709855499 26.81528464475622 0.3102809916311497
1.0650202213640145 13.046403882317339 2406.6828143773396 28.03867232061723 0.31485304353829013
1.0913252234355542 13.052527136717572 2123.3725135199047 29.316942094914946 0.3195203609110545
1.1178014390162887 13.05837351138883 1875.388990426317 30.652277536316305 0.32428374320531583
1.1444157100865395 13.063843766731491 1658.118578376099 32.04844308404033 0.32915380341438405
1.1711525029699859 13.068858718899115 1467.5727843666311 33.50738768871237 0.3341283016559501
1.1979866052058523 13.073326072294138 1300.4309697417261 35.033297029555804 0.3392186142026581
1.2249131686767474 13.07721644868698 1153.416654706602 36.62876866943351 0.34442512144234483
1.2518947127287618 13.08041817425188 1024.1267570389202 38.29811725091292 0.34975784094141443
1.2789121032873376 13.082864280536423 910.300941405443 40.04430569746974 0.3552177202788647
1.3059385543968023 13.084482626512255 810.0257264948099 41.872440248416716 0.36081719502219717
1.3329553569216082 13.085225642384804 721.4550955194007 43.785521438076955 0.3665556196014778
1.359948931077553 13.085058943071504 643.2959597909535 45.789106323162436 0.3724456355709113
1.3868648139689237 13.083842157263335 574.1457024926772 47.88806835751745 0.37849471511168753
1.4136973941123154 13.081574266606454 512.95613619686 50.086617024047044 0.38470579705574626
1.44042449561644 13.078204935021166 458.7756547021635 52.39096866871183 0.39109110038811346
1.4669939168387092 13.073620077503907 410.75199608861357 54.80700727426616 0.3976596390737906
1.4933977270461178 13.0678214916312 368.0924007983315 57.34089025029929 0.4044204197077986
1.5195998948059364 13.06073226104998 330.23104830708195 59.999210210962445 0.41138315450558294
1.5455760411904802 13.052307285945771 296.56343371292763 62.789034124531334 0.41855831932726745
1.5712871569016467 13.042492339618986 266.6533326548954 65.71794620679034 0.42595721642789053
1.5967048856909238 13.03123450142972 239.9381469046103 68.79409493765073 0.43359204248675864
1.6217934638303937 13.0184756406816 216.17227852789856 72.02624462755573 0.4414759625367585
1.6465317986435826 13.004217629637209 194.95425360634744 75.42383201366411 0.44962319048943006
1.6708966909404013 12.988372319540929 176.0146010950427 78.99702842636589 0.4580490770349732
1.694827813669212 12.970903585694213 159.0708072904798 82.75589684263156 0.46676646411798756
1.7183185599728095 12.95178562604604 143.92507223614143 86.71238764219741 0.47579385697721194
1.7413198517023656 12.930959688775616 130.3689123854142 90.87937299949648 0.4851510189651827
1.7638049529768205 12.908397836598983 118.21506728624833 95.26912826631528 0.4948528248084355
1.7857372750872997 12.884052650989952 107.30792874451753 99.89702932151216 0.5049237279951024
1.8070783078256516 12.85787241865827 97.53074686885218 104.7785765259706 0.5153856181004357
1.8278287070121066 12.829902447963681 88.72936361289953 109.92942155142065 0.5262579706541071
1.8479065219579727 12.799994727495521 80.83348200009955 115.36863537695484 0.537569836330116
1.86732440824231 12.76823768024224 73.71643548956305 121.11566611290212 0.5493479593999571
1.8860196130807678 12.734506175198085 67.31244455959184 127.19169082403678 0.5616215514360907
1.9039570010921074 12.698783113927686 61.53795106795743 133.61979112567863 0.5744225041997624
1.9211249268033792 12.661090468537797 56.32852989488593 140.4242723720742 0.5877825702352983
1.9374936099994167 12.62140755941815 51.62550365749756 147.63266716037054 0.6017399622252558
1.95301168953469 12.579647229286387 47.378216211613065 155.27491656201866 0.6163358416324245
1.9676760363514194 12.535900377638871 43.53554973471912 163.38206318842046 0.6316093396728065
1.9814329467157394 12.490042930132866 40.05832382349864 171.98973384059454 0.6476088564658283
1.9942750312073865 12.44214388052752 36.90669139377245 181.13614791062025 0.6643844839808227
2.006139728763561 12.392085098290348 34.05473741644348 190.86282554600447 0.6819896605509927
2.0170356456644223 12.339963892838918 31.46844534763351 201.21544849240232 0.7004831586845751
2.026927070998091 12.285744818161332 29.119997085064234 212.24432170561616 0.7199295950623101
2.0357891362377654 12.229428987703315 26.986044667091715 224.00382574251367 0.740396523995009
2.043598298039654 12.171021363775603 25.049339433888594 236.55479109784227 0.7619609689586654
2.0503186051228854 12.110487115339769 23.28690789788513 249.96301860643123 0.784703141857351
2.0559443561135673 12.047869451190893 21.685702153886126 264.30223579673833 0.8087144771731734
2.0604613263614184 11.983208278635844 20.226253649475346 279.6530213771072 0.8340922770290877
2.063841987918072 11.916502320518433 18.89829725074103 296.10481659105113 0.8609441604387903
2.066073884676709 11.847771790126977 17.689102064899465 313.7554495433846 0.8893840705486855
2.067140129462643 11.77705590742149 16.588829225956218 332.7157570635868 0.9195446442730181
