M[M_sun], R[km], Lambda[1], P_c[MeV/fm^3], rho_c[fm^-3]
0.24162668629717493 15.618656898711224 2160425.4255784233 3.5677272577965504 0.1711233750220791
0.2536432831640109 15.277292389405757 1723332.758930406 3.7848075985616045 0.17388802338616052
0.26603766880670554 14.98132238426028 1383079.9189352107 4.011376244276529 0.1766663561091274
0.27881237992038743 14.723597481741198 1116471.7210614388 4.247689660349236 0.17945706704725048
0.291966291204195 14.49849977124724 905979.3784256647 4.4943728188274426 0.18226671858170423
0.3055007190624447 14.301293272026667 738670.0168699074 4.751579974491783 0.18509099053971212
0.3194168479935504 14.12818514885789 605171.6011189071 5.019995635175816 0.1879365505616184
0.33371341095408436 13.975996548591281 497727.02887420496 5.299840771164033 0.19079996137876187
0.34839326987215086 13.842089197367887 411022.4435266864 5.591847565519583 0.19368759191107768
0.3634557045772292 13.724040906455123 340682.98093058745 5.896178788247042 0.19659442193522922
0.37890783438838316 13.620050330140627 283354.679703962 6.213700361247531 0.19952817102624068
0.3947379203546724 13.528530777942207 236434.16965191453 6.5446727251674455 0.20248507147348993
0.41096248797778523 13.44791697375533 197886.97194059903 6.889792219485085 0.20546873224809786
0.42756904010196134 13.37710108684675 166104.82659622055 7.249766559845117 0.20848227550994433
0.44456306774169263 13.314998795452235 139824.57931288044 7.624859118435997 0.21152131857831954
0.46194235777517323 13.260617816025544 117999.78482136858 8.016010071889362 0.21459188734848472
0.47970515033459293 13.213207124695648 99830.56468573176 8.423928341492342 0.21769569413105308
0.497861573071666 13.172019914240586 84659.91627818526 8.849060832047643 0.22083029469856
0.5163986108266783 13.136428499988133 71948.36159578228 9.292268721540882 0.22399892621713688
0.5353153934419399 13.10587471922977 61287.9628614208 9.754442302427906 0.22720459014217056
0.5546194575991502 13.079851498902718 51822.63001532936 10.236390950427209 0.23044863706909507
0.5743002064562783 13.057880507429841 44739.45910064383 10.738594135385807 0.23372787022281827
0.5943556890187692 13.03954310702963 38002.95700425193 11.262279888378968 0.23704826932670867
0.6147901181708165 13.024524060914606 32909.221343175195 11.808393416125663 0.24041155020325647
0.635590167217621 13.01246074738567 28300.712959386387 12.377913454196834 0.24381934531880187
0.6567612919949448 13.003045599076358 24182.7916282557 12.971540455228192 0.247269735652662
0.6782914666441412 12.995993577275387 21033.38764189027 13.590578170588534 0.25076725031827446
0.7001775073828492 12.991070609820524 18040.83930432729 14.236234866258844 0.2543146504173972
0.7224093316614325 12.988007791350544 15733.979680602804 14.90969987808179 0.25791391989790113
0.744994873391285 12.986641708231303 13637.654324734662 15.612016927813537 0.2615650979808072
0.7679126000569098 12.98675104929578 11838.527594330419 16.34442384294724 0.26526979842634435
0.7911552913459948 12.988133047044432 10291.779409426186 17.108549687499494 0.26903284818607176
0.8147282836926647 12.990660297388724 8959.056293405489 17.905849042758494 0.27285667892364585
0.83860840718683 12.994113710902877 7809.687560160084 18.73770250598777 0.2767425108033752
0.8627857132768815 12.998388174569138 6816.570431319387 19.605423504727817 0.2806905497641386
0.8872597207626837 13.003333975947925 5956.784181199959 20.511112000502024 0.2847072890977988
0.9120193019037629 13.008833732806627 5212.956998362205 21.456561495782722 0.2887957409101011
0.9370368365230194 13.014723369238304 4566.7040583550015 22.443275425678912 0.29295598462168043
0.962312382238887 13.020923662494955 4005.6176939167776 23.473239797685828 0.2971915067131917
0.9878355275578652 13.02731742766869 3517.707425701057 24.548894867115976 0.30150855857927883
1.013575677383522 13.033773445065924 3093.2168611626353 25.67220546924761 0.30590894205640407
1.0395365416598223 13.040226489762906 2722.3501571976026 26.845086665542933 0.3103935782992456
1.0656852525956368 13.04655859546293 2399.1086408313463 28.070656166908392 0.3149713656933634
1.0920158637658293 13.052684815046977 2116.5877370167505 29.35099446814186 0.31964292854640763
1.1185116673702558 13.058521113011922 1869.2455510225575 30.68880469216413 0.32441259511446974
1.1451405086804698 13.06397652022998 1652.6600070606603 32.08754013242947 0.32928878711384824
1.1719015268594863 13.068993255810788 1462.6880374017921 33.54908185351264 0.33426881529017527
1.1987547609448634 13.073449877514461 1295.865267729673 35.07799918606862 0.3393664321154639
1.2256989893782788 13.077319450276532 1149.5030966557706 36.67634917425738 0.34457860878560276
1.2526927960482173 13.080482472953918 1020.5215524304328 38.349123106929916 0.34991941631168094
1.2797327034951078 13.082932954266017 907.0406840044488 40.098604028312984 0.3553857011745934
1.306774737882019 13.084523525379455 807.0585397035293 41.93025532110441 0.3609919787458772
1.3338104849194847 13.085236055344893 718.8366810673789 43.84750090998771 0.36673985464541903
1.3608167740077273 13.085035021761922 640.8765133018652 45.85512041829815 0.372637595592229
1.387746588811561 13.083781907239496 572.0391827741302 47.95839880522183 0.3786948982690167
1.4146010171996555 13.081494508473519 511.00950957071717 50.162034335632114 0.38491712467396716
1.4413237940228703 13.078048666312904 457.06723592332 52.471353212759546 0.39131180622858247
1.4679164802350981 13.073453436624929 409.1865465585575 54.89271467265526 0.39789034797611456
1.4943250244333888 13.067594046778794 366.6849578013036 57.43230491541118 0.40466180478874597
1.520535598528734 13.060453699339048 328.96856554897715 60.09674792184417 0.41163594112093266
1.5465180049259823 13.051974594265477 295.41038173329224 62.89314485995744 0.41882328942609737
1.572233865767681 13.042100964384417 265.57856789942537 65.82911726381673 0.42623521334138625
1.5976573932959852 13.030779695036731 239.0251773706615 68.91285436772988 0.4338839761985686
1.6227447022326715 13.017966597599484 215.31559217789913 72.15316502622218 0.44178281548752135
1.6474952535628618 13.003638335406684 194.17605033830984 75.55953470426145 0.44994602397443595
1.669241057365561 12.987140340019248 176.92259103900835 79.29651611673603 0.6712634260828915
1.6832021440345628 12.963571294331063 165.10865785530663 83.6777713398045 0.9327741639197903
1.690934545766299 12.93090690928003 156.61384480824842 88.7284481392675 1.1822572535010327
1.693788503595075 12.889167528336017 150.18516492404146 94.46015998939046 1.4205517177408555
