M[M_sun], R[km], Lambda[1], P_c[MeV/fm^3], rho_c[fm^-3]
0.24162668629717493 15.618656898711224 2160425.4255784233 3.5677272577965504 0.1711233750220791
0.25363908242324107 15.277426247760175 1723330.2848406723 3.7847491503709976 0.17388729485766094
0.2660317364602015 14.981427318150912 1383252.698565217 4.011253376277856 0.17666487132187517
0.2788030357877122 14.723745545292832 1116656.8467831183 4.2474982175416445 0.17945484659918057
0.29195261648627946 14.498660063863623 906171.6549031176 4.494107779483534 0.1822637673070974
0.30548334347299844 14.301506539038122 738903.4018857152 4.75123234147919 0.18508723543970854
0.3193938654789085 14.12846537964816 605294.334412109 5.019562849725096 0.18793206024552736
0.33368710511623056 13.976250477290835 497898.87559352274 5.299311441809093 0.19079463191047386
0.3483626251752758 13.842341089769645 411207.8053280389 5.591220372696344 0.19368152364797805
0.3634175162254155 13.724331396008782 340833.32094354776 5.895439644296393 0.19658747973882518
0.37886474254342645 13.620346602667885 283472.28721167264 6.212840324488444 0.1995203285265495
0.3946913013560561 13.528777448701403 236551.86272157892 6.543692690568188 0.20247647789401632
0.41090993809407833 13.448183127774044 198004.21754444402 6.888673271665951 0.20545920281892188
0.4275112066597334 13.377340397060925 166211.33268600353 7.248498202394075 0.208471782713804
0.44449931193504744 13.315203934661575 139913.5273256017 7.623444858829485 0.21151006016248577
0.46187311531205194 13.26081909342591 118074.28997495465 8.01442524755715 0.2145796274509996
0.47963037836399663 13.213378799048227 99906.81661473821 8.422160598631237 0.21768240317599677
0.4977795872554811 13.172189882220179 84721.60429950472 8.847116690131488 0.2208162182804191
0.5163090018726357 13.136596290819723 72012.23358732119 9.290116725564864 0.2239837760313044
0.5352186767474518 13.106030283992817 61337.21522538103 9.75206786662388 0.22718833349779408
0.5545161028610153 13.079983130759972 52357.4598618245 10.23377860297126 0.2304312398541185
0.5741879394698802 13.05797081670608 44778.10430267064 10.735755227684516 0.23370964355599244
0.5942401299860312 13.03965755552041 38369.61447736487 11.259171737873078 0.23702884954610184
0.6146639880553673 13.02461203748209 32940.0343777998 11.804997668216132 0.2403908983902862
0.6354572187398884 13.012514109859383 28326.601013373685 12.374210609480437 0.24379742050047398
0.6566154877159834 13.003117727385572 24400.852575442856 12.967547517300087 0.2472469136568462
0.6781418888043247 12.996029962288038 21054.09372751895 13.586238453823226 0.2507430879380049
0.7000200253146239 12.9910883895203 18196.34416797838 14.231525110705611 0.2542890997636612
0.7222430672754777 12.98802731464976 15749.873918453304 14.904595329665547 0.25788693022625037
0.7448200634214981 12.98664916666871 13652.340627126723 15.606541034786625 0.261537108847957
0.7677302465977796 12.98674077595176 11851.875480314115 16.33850247143729 0.2652402818744985
0.7909634288261238 12.98812058040113 10303.529223809332 17.102153131009153 0.269001743897915
0.8145275314550535 12.990624383488385 8969.933992424807 17.898945625770672 0.2728239227036566
0.8383975911844962 12.994101193193792 7818.484416746208 18.730322843297646 0.2767086050716541
0.8625689162156611 12.998351725673414 6824.80869587116 19.597471672410837 0.28065487490749047
0.8870325067550008 13.003284743069749 5964.523809136935 20.502549742010075 0.2846697679534879
0.9117810397894768 13.008777770861634 5219.114204045589 21.447347935499923 0.2887562911130973
0.9367904708831414 13.014666251491452 4572.636714110443 22.43344893631344 0.2929151709792109
0.962052722876034 13.02087374495699 4010.8345860365753 23.46267710496848 0.2971486084795848
0.9875719379082665 13.027254975377392 3522.4481797546255 24.537546274197478 0.30146347600704365
1.0133073390844627 13.033713157550366 3097.3299559591283 25.66011489481604 0.30586228220115946
1.0392529599229372 13.040160844502925 2726.062603477687 26.832106352237574 0.310344541012937
1.0653975701116383 13.046494255788136 2402.3684583882446 28.056725380471182 0.31491982965676196
1.0917160865232076 13.052618663037546 2119.506349871743 29.336162568729197 0.31958954281535473
1.1182022492603436 13.058456205939887 1871.9043941069397 30.672894668463396 0.3243564714749215
1.1448219782641997 13.06391388128993 1655.0996838846343 32.07055349089804 0.329230269802458
1.1715757064147565 13.068935542439318 1464.7538375878908 33.530920823318915 0.33420761074594185
1.198426794368641 13.073406567226074 1297.8267937898156 35.05852768444308 0.3393020451383243
1.2253575093786173 13.077273897577907 1151.2105866475092 36.65562368820523 0.3445117515758348
1.2523434123977573 13.080445815630483 1022.1149740148207 38.326905277456035 0.34984903509854015
1.2793757557055443 13.082903268771192 908.4573938299447 40.07495175352225 0.35531252893810533
1.3064106012191765 13.084503754993086 808.3438449007616 41.90507087294904 0.36091584234367635
1.3334382177783268 13.085228215931098 719.9708981565616 43.82050205265317 0.36665960007864
1.3604384237927665 13.085043702689033 641.9704029390181 45.8263637026445 0.3725539749694127
1.3873627050577708 13.083805613892741 572.9568862849732 47.927761456460686 0.3786076944844911
1.4142108433918972 13.081537691087584 511.84691951066225 50.12918056071875 0.38482506477609907
1.440935913398355 13.07812384854211 457.8079928873224 52.43633514543372 0.39121565973584177
1.4675163925503578 13.073535195667489 409.8641470886083 54.85537732760365 0.3977898425582107
1.493921783494748 13.067690797424367 367.3066235732685 57.392480756788586 0.4045566470688001
1.520128601693404 13.060576469302832 329.53176064944944 60.05425573993695 0.4115258149477218
1.5461080623921206 13.052120907545719 295.9153166388752 62.847788535793974 0.4187078539751137
1.5718215529725987 13.042271783154503 266.03512243895824 65.78068440925018 0.42611410102635183
1.5972377897397092 13.030968420568824 239.4268172170336 68.86111482700096 0.43375679037288495
1.6223295388026127 13.01819704360274 215.70381854251977 72.09786922328963 0.44164912791268757
1.6470805759109677 13.003890619143922 194.52192602205434 75.50041181824285 0.4498053720297105
1.6714341469918532 12.987999384553852 175.61525984099765 79.07894403220367 0.4582409218655418
1.6953699162077083 12.970494382816375 158.7182336105509 82.84314392549683 0.4669669576603072
1.7188346965148096 12.951286279842762 143.6020621300595 86.80581395717176 0.47600542161400733
1.7418503135173897 12.93045247405637 130.0727441302814 90.97901745865835 0.48537269120901094
1.7643294862867176 12.907844581946613 117.94054521894216 95.37594936187564 0.4950872141440865
1.7862590055551706 12.883447850927709 107.06403365820402 100.01112002208569 0.5051699307772552
1.8076028181936714 12.857237447146932 97.300807708618 104.90056969043668 0.5156447404959055
1.8283324748659293 12.82918777075622 88.52938854315177 110.06039255303493 0.5265326375944311
1.848411379421448 12.799249641471993 80.64401922080717 115.50883148867302 0.5378594331189669
1.8678096914209628 12.767404880050023 73.54808175590675 121.26585724219075 0.5496536935002801
1.8864904219599823 12.733617109176766 67.1561480355961 127.35271894430171 0.5619447335885965
1.9044262859267023 12.697858851990711 61.3916759605462 133.79234612705108 0.5747637408813
1.9215650255091472 12.660050758334394 56.200373775922834 140.6092134604739 0.5881429058050425
1.9379194234326624 12.620316660308738 51.508820345584276 147.83145953660483 0.6021223492514799
1.953423508414545 12.578499970130155 47.267356511833555 155.48812117164823 0.6167398857097548
1.9680627938266435 12.534657766084035 43.4382669270645 163.61163883271473 0.6320392049215855
1.9818002517262046 12.488730271446816 39.967025515882845 172.2364469211958 0.6480643851941084
1.9946084403453248 12.440724495465654 36.82617372610994 181.4015603528125 0.6648679364244279
2.0064645927823843 12.390628666004488 33.98017722844219 191.14865805628426 0.6825035050827681
2.017347858944987 12.338465612471866 31.399092989248974 201.52359902965117 0.7010300954916477
2.0272035162789086 12.28414099896397 29.055167010639558 212.57688635239722 0.7205125827273443
2.0360283716550054 12.227720610330405 26.927281296594266 224.36231855103924 0.7410161873490488
2.0438147246878344 12.169246977533646 24.993899402232238 236.94232744586947 0.7626226806422268
2.050504883884399 12.108626038755085 23.23682868177601 250.3820354001011 0.7854095094573826
2.0561035522636746 12.04593590887987 21.638262755017056 264.7556071143736 0.8094689133860369
2.0605886895343724 11.981194052366797 20.182939209225935 280.14418859685117 0.8348993415317061
2.0639357366661737 11.914400021702232 18.859562507957587 296.63698852343845 0.8618068521139413
2.066125307770159 11.8455705641107 17.65346527279158 314.3331942689618 0.8903089262206928
2.067154533096309 11.774769825971614 16.555559160845384 333.34316684779606 0.9205355879100366
