M[M_sun], R[km], Lambda[1], P_c[MeV/fm^3], rho_c[fm^-3]
0.24162668629717493 15.618656898711224 2160425.4255784233 3.5677272577965504 0.1711233750220791
0.25364369541996273 15.277280542570093 1723220.9672386337 3.784812986493335 0.17388809054413032
0.2660393052719989 14.981272201379742 1383028.0822750803 4.011387570757346 0.17666649298296364
0.27881371745088623 14.723540684412411 1116492.4812082942 4.247707308543841 0.17945727173971265
0.2919673905140533 14.498453922446146 905921.5032418899 4.494397251809084 0.18226699064862542
0.3055035588254869 14.301228934815354 738714.628179273 4.751612021839542 0.18509133671223119
0.3194183883130972 14.128171962639891 605121.8329910454 5.020035532927545 0.1879369645161917
0.33371713740455816 13.975948892502819 497693.7881106224 5.299889569676768 0.19080045269881374
0.34839635180862866 13.842065901709626 411029.31816130516 5.591905386599077 0.19368815134592782
0.36345857261520914 13.724019480488062 340671.0873181269 5.896246930873231 0.19659506194519488
0.37891158232340444 13.620024756343797 279406.4035681526 6.213779649992614 0.19952889404412597
0.3947417408706492 13.5285082578837 236413.02846190098 6.544763077677473 0.2024858637429426
0.4109665631171885 13.447903828618998 197888.38494185056 6.889895379939294 0.20546961080581552
0.4275743541280817 13.377102804552464 166095.3653933828 7.249883496225389 0.2084832428946501
0.4445677929690661 13.314964475908447 139810.94165265962 7.624989507513014 0.2115223565592125
0.4619489887201542 13.260595326733162 117988.6416668361 8.016156187863958 0.21459301767367792
0.479712480785105 13.213207584553155 99828.77255930843 8.424091323677114 0.21769691952923764
0.49786924879153494 13.172026929956443 84654.01332252484 8.849240079478124 0.22083159252654322
0.5164056543953474 13.136433322018817 71945.90376734443 9.292467134870334 0.22400032305934583
0.535323917470443 13.105873638022128 61284.067506773325 9.754661226855708 0.22720608901468675
0.5546288366111932 13.079844982243747 52306.58918642797 10.23663181288859 0.23045024111912712
0.5743103847681184 13.057870820596312 44735.95276602123 10.738855889322133 0.2337295507641707
0.5943665063913132 13.039549730717086 38331.45626206911 11.26256647000243 0.23705005989387812
0.614802037488418 13.024532223182613 32905.67299260236 11.808706518300726 0.24041345438688028
0.6356027795316973 13.012438121678283 28297.363792182914 12.378254875396248 0.24382136689905806
0.6567739057895353 13.003047723162169 24375.091132201695 12.971908627599877 0.24727183997496235
0.6783043288881859 12.995983757018104 21030.55291736943 13.590978321991296 0.2507694782540781
0.7001922329218695 12.991053137398882 18175.318524868868 14.236669142079784 0.2543170063849206
0.7224246250267483 12.988003384534212 15732.477355050094 14.910170561546623 0.25791640857880516
0.7450111493818777 12.986653602665642 13636.490094852361 15.612521856626255 0.26156767884196525
0.7679305103906284 12.98675929045026 11837.409787427687 16.34496985451005 0.26527252015704056
0.7911731821165557 12.988131007819883 10290.813889767109 17.10913952192276 0.26903571635113743
0.8147472472257954 12.990661694912026 8958.056447310737 17.906485621809836 0.27285969944572686
0.8386275666341251 12.994117161686429 7808.880750561578 18.738383006272343 0.2767456373500825
0.8628075214652922 12.998398895521785 6815.979515231942 19.60615677384779 0.28069383948023124
0.8872808923131336 13.003336662127037 5956.417946041314 20.51190156738423 0.28471074910230093
0.9120395509897765 13.008836161366679 5212.125294205051 21.45741113099479 0.2887993788020358
0.9370586404991038 13.014729283529087 4566.217567251718 22.44418159009651 0.2929597483127794
0.9623359764299498 13.020923595875116 4005.178484412722 23.47421386223981 0.29719546267876823
0.9878600940002848 13.02732618327862 3517.217090368213 24.54994141625302 0.3015127160221801
1.013600882088612 13.033786583263964 3092.493194488405 25.67332045211395 0.3059132449900189
1.0395630724540001 13.040235222737364 2722.0318446334127 26.846283712012617 0.3103981005252564
1.0657123031031668 13.046564377877296 2398.7942930141926 28.071940879820364 0.3149761184050608
1.0920417660990902 13.052690607417253 2116.1575947826864 29.352362294500914 0.3196478518814506
1.1185404785288389 13.058524659060577 1868.9940410305887 30.690271961113915 0.32441777100076674
1.1451699329962306 13.063983670986662 1652.486227865023 32.08910205540191 0.3292941537273383
1.171931141633654 13.069004526760455 1462.4642951749877 33.550756750120065 0.3342744598644314
1.1987862795513584 13.073461002888184 1295.6749162261258 35.07979496068422 0.3393723702552821
1.2257302903621772 13.077321915053219 1149.3381235622423 36.67826061603841 0.34458477480090355
1.2527249572712122 13.080486184912315 1020.4254562119547 38.35117220601357 0.34992590740837076
1.2797653590615987 13.082928962017128 906.9101247460077 40.10078544349338 0.3553924497443978
1.3068088470487804 13.084523752513155 806.9405452969713 41.93257806862553 0.36099900076352825
1.3338437891940709 13.085240639617668 718.7591360657867 43.84999102916021 0.36674725656739454
1.3608522638277865 13.085033563975669 640.7881801791083 45.85777269191644 0.37264530804362683
1.387781768715619 13.083779197176074 571.9427769668358 47.961224560816916 0.378702941281614
1.4146375694968705 13.081490321007808 510.9562693039532 50.16506455530428 0.3849256156834257
1.4413595849482594 13.078044763890341 456.9913938213674 52.47458308654499 0.3913206742518682
1.4679529164712433 13.073446260744788 409.1075177697239 54.89615850060708 0.3978996181416019
1.4943620546242091 13.067584387530303 366.626702462546 57.43597815583375 0.40467150416723907
1.5205732975278328 13.060443683105731 328.925460575492 60.10066729498659 0.41164609888516573
1.5465558376775417 13.051962383213784 295.3630168265584 62.89732846205416 0.41883393702604466
1.572271747385051 13.042086324603122 265.5366375208562 65.83358469262592 0.42624638469707393
1.5976956116167007 13.030762442113625 238.9850132005339 68.9176268608619 0.4338957079122834
1.6227830871586937 13.017946741458207 215.29116017241736 72.15826561371017 0.44179514707753964
1.6475342723469142 13.003613084402803 194.1473435282861 75.56498837700306 0.4499589981326454
1.6718840007793114 12.987683635583057 175.28071455258123 79.14777294949562 0.4584016611723343
1.695820741505648 12.970141264790975 158.40256161039812 82.9167195748409 0.4671360342882128
1.7192863975637989 12.95090235514009 143.32396302897058 86.88460287811931 0.4761838397550669
1.7422867459443674 12.930004751567623 129.80922797367708 91.06305245372265 0.48555963814085923
1.7647681139715927 12.90736204929791 117.71156227858316 95.46603954234654 0.49528489211619947
1.7866955610224586 12.882933234251654 106.84991343418709 100.10734381884872 0.5053775775561186
1.8080332606044993 12.856686683715782 97.1078453926071 105.0034258270993 0.5158631557177035
1.8287469564001244 12.828558480040693 88.35281153667408 110.17081904637352 0.5267641530117658
1.8488273650273193 12.798601152308912 80.48546426724937 115.6270833268677 0.5381037006111049
1.8682158021591748 12.76670016728817 73.40137122842681 121.39254353845311 0.549911580374122
1.8868866713280195 12.732859974081531 67.02505398147433 127.48855058450381 0.5622173466066624
1.9048123845295226 12.697052954620128 61.2738358646909 133.93760200574766 0.5750505210873971
1.9219557890278467 12.659247204534138 56.09060949550311 140.76522617216193 0.5884468778960465
1.938271919174661 12.619368793597976 51.406378730577785 147.99916282773003 0.6024449348757183
1.9537711273445442 12.577536951129083 47.174999857183 155.6679886089421 0.617080752508411
1.9683902500906454 12.533622104622646 43.35124410555357 163.80524503836142 0.6324015992210665
1.9821087044181167 12.487630663958477 39.89084008957154 172.444598466573 0.6484487142638282
1.994902162961598 12.439564303621692 36.75556482255275 181.62549667308156 0.6652758395368508
2.0067410213416954 12.389415680649137 33.911051871636765 191.38983249909307 0.682937067271058
2.0175928353189954 12.337155163242262 31.336893381295024 201.78361475191042 0.7014915977502219
2.027432171207426 12.282782074888003 28.999836806306863 212.8568627200128 0.7210023910273285
2.036246701179355 12.226327973616309 26.876977328435817 224.6648368498682 0.7415390974305139
2.0439966964818788 12.167746829421684 24.949211086637003 237.26886485758257 0.7631794569254353
2.050661392194371 12.107054139489547 23.19404612408743 250.7356579421542 0.7860056371308332
2.056237985757053 12.044322630564755 21.598845651645757 265.13823942191016 0.8101056357762462
2.06069085564742 11.97948587608587 20.146757958011985 280.5585249957244 0.8355798147829627
2.064002708107204 11.912602714047017 18.82722710992812 297.08592346631707 0.8625342071620683
2.066167349160032 11.843716513809444 17.623076769569256 314.82086242236585 0.8910895870173491
2.067164879873173 11.772838719037013 16.52682453936083 333.87278259685763 0.9213720736802719
