M[M_sun], R[km], Lambda[1], P_c[MeV/fm^3], rho_c[fm^-3]
0.24162668629717493 15.618656898711224 2160425.4255784233 3.5677272577965504 0.1711233750220791
0.253644808352408 15.277270957537775 1723199.3678496147 3.7848350519415197 0.1738883655792972
0.2660409708811481 14.981254616246968 1383040.6417735482 4.011433956861399 0.1766670535316559
0.2788178444382256 14.723457074650458 1116310.3669219264 4.247779584749699 0.17945811003478268
0.29197283896953213 14.498383459240205 905843.7271753044 4.494497314835676 0.18226810487364994
0.3055092264119512 14.301169266839945 738567.6875845004 4.751743269446165 0.18509275443687254
0.3194277386295356 14.128061499861799 605055.6095961315 5.02019893205754 0.1879386598452317
0.3337271992966787 13.975861533731928 497657.1288846227 5.300089422359311 0.1908024648837114
0.34840822478272343 13.84196664861723 410968.94217001187 5.5921421919603596 0.19369044250294115
0.36347179935346824 13.723918189046364 340639.5148085596 5.896526009279661 0.19659768310864736
0.3789265679703599 13.619944088925434 283269.62407214916 6.214104378883027 0.1995318551806075
0.39476040571303317 13.528392748897144 236389.4773198306 6.545133120043019 0.20248910851458568
0.4109864406080065 13.44781366527367 197836.6370393682 6.890317879682925 0.20547320899092741
0.4275955893179686 13.377007054768164 166059.46353281234 7.250362418256898 0.20848720489387956
0.4445914521075411 13.314882281176736 139781.4730496452 7.625523528273549 0.2115266077078406
0.4619751502041485 13.26052826105426 117964.40171515559 8.016754622280477 0.21459764704770312
0.47974141096673434 13.213107670437129 99795.9897063017 8.424758838513316 0.21770193830763726
0.49789917328080985 13.171950232912149 84630.03392067093 8.849974213612294 0.220836907971346
0.5164396789007917 13.136371016841377 71928.25594165738 9.293279769307182 0.2240060440564431
0.5353597383018415 13.10581162623026 61266.65811819207 9.755557871779114 0.2272122279204542
0.554667581810923 13.079798595760929 52296.517286182774 10.237618313318084 0.23045681082715247
0.5743523594587394 13.057818210860303 44720.6497665649 10.739927958970545 0.23373643378339914
0.5944115242921908 13.039501845890646 38320.54483281265 11.263740231849948 0.23705739357914216
0.614849445837508 13.024479881348768 32894.477113277855 11.809988906767794 0.24042125344837798
0.6356557948147609 13.012423461065262 28286.046288771195 12.379653257541177 0.24382964682350228
0.6568275220165353 13.003003620102385 24365.486317495663 12.973416581804388 0.24728045882282962
0.6783605305899674 12.99598251193445 21023.131256398105 13.592617262388275 0.25077860343511005
0.70025175341219 12.991057223711069 18167.881490026884 14.23844785691288 0.2543266559997004
0.7224872216825483 12.987997382851185 15725.7827470428 14.912098403742114 0.25792660180719834
0.7450766891076677 12.986639116060518 13630.611940854711 15.614589969485014 0.26157824966306575
0.7679988519024241 12.986751197645296 11832.96641736029 16.34720624576107 0.26528366800652053
0.7912463328328924 12.988146754715903 10286.20288198898 17.11155541622001 0.2690474640270145
0.8148230282119377 12.990673778381206 8953.839437457986 17.90909298801583 0.2728720712119387
0.8387069006637298 12.994131882716411 7756.223992017041 18.741170279439526 0.27675844342811184
0.862887620918545 12.998423868336413 6812.284832944501 19.609160196861357 0.2807073139451334
0.8873712811478357 13.003369141691056 5917.609419857558 20.515135596515336 0.28472492111939757
0.9121248374505815 13.008882539300668 5209.396998204974 21.46089121248229 0.288814279503179
0.9371516862544561 13.014761264800276 4563.824755381292 22.44789322680693 0.29297516433858894
0.9624375165397561 13.020962874901668 4003.352728045652 23.478203634650054 0.2972116663300031
0.987959478579686 13.027344931942213 3515.432567443547 24.554228104971592 0.3015297450014723
1.0137046028383503 13.033802586309964 3090.8539779987836 25.67788746344578 0.30593086996630514
1.0396699862021765 13.04026214060137 2720.610999523265 26.851186881145132 0.3104166238153276
1.0658238689463608 13.046582618873712 2397.4753328718375 28.077203159671758 0.31499558586644577
1.0921572005436109 13.05272081994533 2114.9765956222714 29.35796503399784 0.31966801830353997
1.118656342750256 13.058552181034502 1867.7965455737597 30.69628205438607 0.3244389719942286
1.1452894936374252 13.06400622866758 1651.5665755562718 32.0954998860654 0.3293161360433371
1.172055154940175 13.069013148901533 1461.5733476502523 33.55761736746479 0.33429758085224237
1.1989114425916267 13.073476082874189 1294.9154663282002 35.087150747149295 0.3393966938469639
1.225859671552066 13.077345882020705 1148.6656290817398 36.686090224897086 0.3446100319070842
1.252856373474625 13.080497704904937 1019.799406898265 38.35952134430058 0.34995223589996177
1.279901150361507 13.0829446487774 906.3934011543441 40.109720992125105 0.35542009334669045
1.3069464451659571 13.084522869077896 806.5163302910534 41.942092584235844 0.361027764585661
1.3339843271634155 13.085237229506319 718.347056607521 43.86019119045214 0.3667775767218891
1.3609938696077692 13.085034402802389 640.3768485140401 45.86863712526648 0.372676900339987
1.3879271294128388 13.08376812614335 571.615188565665 47.972799673628685 0.37873588778920403
1.4147774516326257 13.081461262477598 510.6366958635336 50.17747727880644 0.38496039750258915
1.4415084934814066 13.078020941570816 456.7128841911565 52.48781371501166 0.39135700060054956
1.468104282929481 13.073417302016026 408.8706252949417 54.91026562069503 0.3979375919717685
1.4945144537802526 13.067549356174096 366.3978136339757 57.45102509993867 0.4047112363898133
1.5207257675593981 13.06039881831333 328.7274976052835 60.116722566156525 0.4116877090236535
1.5467111068056507 13.051907107961666 295.1783408617479 62.91446620130349 0.41887755393494486
1.5724272775234136 13.042020261308874 265.3603159919818 65.85188519337 0.4262921473520163
1.5978409758454186 13.030682262393547 238.82167751780054 68.93717713577149 0.43394376627966913
1.6229388966089882 13.017859832211553 215.15227694928166 72.17916001992928 0.44184566307236894
1.6476911336410056 13.003515951833412 194.02016889297659 75.58732930641979 0.4500121466742854
1.6720398920146442 12.987578264121455 175.16122916897245 79.17155492833544 0.45845714425688405
1.6959769042337154 12.97001788365044 158.3049749748848 82.94217464599035 0.46719452996757704
1.719457220902535 12.95080096657212 143.2237654465652 86.91186208446005 0.476245568445644
1.7424337189441357 12.929824545337196 129.73718178141573 91.09212714143466 0.4856243186190106
1.7649216071337126 12.907197711975074 117.63525420461 95.49720981388172 0.49535328665193107
1.7868471079769366 12.882758620016434 106.78438705060924 100.14063681553007 0.5054494223985811
1.8081843568577136 12.856491528506208 97.0470676067038 105.03901419878515 0.5159387276995745
1.8288971457535734 12.828358916680067 88.2937002333578 110.20889111279476 0.5268437515751875
1.8489718532577555 12.798372126848678 80.43169963888397 115.66800022693225 0.5381882208073016
1.8683463651050376 12.766427137697406 73.35704130162 121.43637972074218 0.5500008147770938
1.8870213861769423 12.732602444743135 66.97957109521684 127.53546983705215 0.5623113842792271
1.9049447551667196 12.69677527050155 61.2324580747523 133.9878655440094 0.5751497569186158
1.922082877701457 12.658949893869998 56.0502863675933 140.81921307795417 0.5885520649187126
1.9383952636616324 12.619052291016288 51.37142235786427 148.05719641853426 0.6025565653749814
1.9538899571432256 12.57719944810671 47.145454192788435 155.73023283619597 0.6171987115497921
1.9685033003211412 12.533259471570334 43.324267442103995 163.87207712006528 0.6325264421051026
1.9822155105901504 12.4872504996075 39.86289842950694 172.51663379854455 0.6485817196281334
1.9950012764145304 12.439160467262749 36.730613121177875 181.70299640160553 0.6654170063669518
2.006834801333761 12.388992561989163 33.89043115983605 191.4732999251424 0.6830871176639081
2.0176785226098297 12.336707711552098 31.315705006568685 201.87360507695084 0.701651321700355
2.0275125891662964 12.282315216348668 28.980779289604154 212.95376211280558 0.721171910717713
2.036318117702082 12.225835095371144 26.858681194495954 224.76954225625016 0.7417200832181274
2.0440586828670484 12.167231823114665 24.932770113915545 237.38188640262803 0.7633721690420737
2.050714348207247 12.106513198041378 23.179510957826608 250.8578296653346 0.7862112330533423
2.0562835537067476 12.043754434730953 21.586075026658804 265.27068388316985 0.8103260310546433
2.060725337249936 11.978894589337836 20.135172061738963 280.701763078851 0.8358147585776622
2.064026769981087 11.911989234917653 18.814871685090335 297.24132659601105 0.8627859880774785
2.0661833318263496 11.843074655842454 17.612576714590507 314.9896785698371 0.8913598284658698
2.0671709545905212 11.772174951201007 16.518105520256196 334.0561252564883 0.9216616487658502
