M[M_sun], R[km], Lambda[1], P_c[MeV/fm^3], rho_c[fm^-3]
0.24162668629717493 15.618656898711224 2160425.4255784233 3.5677272577965504 0.1711233750220791
0.253637995036317 15.277450741192729 1723340.784490238 3.7847209391699606 0.17388694321864956
0.26602810665855403 14.981534973397467 1383205.4719181205 4.0111940725171875 0.17666415467092617
0.2787974694037415 14.723831133441442 1116819.7555695025 4.247405816750275 0.17945377488924572
0.2919456741919709 14.498813473364859 906343.768991935 4.493979858926135 0.18226234288200194
0.3054738997175302 14.301655279123402 739024.7778492543 4.7510645599015735 0.18508542307845433
0.31938292150117215 14.12858482342154 605373.4986498234 5.01935397324174 0.18792989307139363
0.3336749626176117 13.97640877561069 498000.53091882786 5.299055973925829 0.19079205977278726
0.3483471602878048 13.842478445405309 411286.49183929584 5.590917677666565 0.19367859499029638
0.3634014762179725 13.724436629697562 340905.07191465626 5.895082924819733 0.1965841293540105
0.3788466199798511 13.620431602074275 283542.1027431694 6.21242526681965 0.19951654370037206
0.39466943562346946 13.528886051489938 236621.9155113332 6.543219727726174 0.20247233064883335
0.41088439284372585 13.44830791050108 198054.36022314764 6.888133277327949 0.20545460400053964
0.42748326296801237 13.377472875235426 166264.88276680445 7.2478861130312335 0.2084667190553703
0.4444681765381019 13.315312884861997 139955.3272709985 7.622762368110347 0.21150462709752135
0.4618395762937411 13.260907906116463 118112.06566334459 8.013660456781961 0.21457371117604673
0.47959293684939114 13.213477235188833 98858.6920006491 8.421307548550622 0.21767598943193267
0.49773939669041245 13.17227405326439 84749.17147114595 8.846178527646101 0.22080942558317893
0.5162656546540156 13.136669860950134 72039.54511304779 9.289078275637587 0.22397646527907655
0.5351724150655791 13.106086663802564 61361.40113275222 9.750922093679009 0.22718048892972054
0.554466594862007 13.080051220350072 52377.52912069441 10.232518044161377 0.23042284502419028
0.5741349626249407 13.058022849342596 44796.45154501432 10.734385360918306 0.23370084858702178
0.594184482915253 13.039693991357964 38386.445095118805 11.257671972949087 0.23701947898771655
0.614599409544077 13.024693679146852 32952.18020020522 11.803359152180706 0.2403809334789872
0.6353925830053992 13.012547850091707 28340.842378504367 12.372423937362017 0.24378684148228444
0.6565464696222908 13.003104752512801 24412.234235831467 12.965620893320617 0.2472359018642289
0.6780696238139692 12.996048665142451 21065.424717072197 13.584144534611339 0.25073142955682765
0.6999437824236452 12.991101359348248 18204.983473516404 14.229252678001867 0.2542767717053373
0.7221633753653073 12.98803439796868 15758.03757693433 14.9021324447912 0.2578739080255282
0.744736429233486 12.986661826063319 13659.873665992014 15.603899010079273 0.26152360457017726
0.7676419645856202 12.986737248109778 11858.134794498386 16.335645549668623 0.2652260408360224
0.7908721083754519 12.988109824294083 10309.338061876266 17.09906698563787 0.26898673701803094
0.8144304834921109 12.99062586441965 8974.920192814465 17.895614980912537 0.27280811903195723
0.838298248229836 12.994072938587818 7822.969085454163 18.72676246706258 0.27669224698504213
0.8624629356264288 12.998327275856616 6828.688853343176 19.593635301005666 0.2806376635284683
0.886923177305916 13.003274140475812 5968.266390770864 20.49841892663276 0.28465166608001147
0.9116672310798001 13.008748001223708 5222.6581635277225 21.442902964673404 0.28873725903522385
0.936672335450383 13.014637996733008 4575.779715987443 22.428708318529218 0.29289548115183367
0.9619343051019341 13.020821934079445 4013.7325347553065 23.457581390088073 0.29712791326737104
0.9874444517060581 13.027215791049787 3524.6513639756868 24.532071498045692 0.3014417273203909
1.0131719066790137 13.033673695350446 3082.5477363371883 25.654282239325994 0.3058397728603173
1.0391183456544681 13.040127251618143 2727.99703394395 26.825844564338478 0.3103208851058116
1.0652575087327836 13.046460310676741 2403.933607902176 28.05000517516703 0.3148949686951727
1.0915704423548958 13.052585860729915 2120.8645473752836 29.329007750620246 0.3195637898632432
1.1180538156322628 13.05842104771676 1873.1963473847388 30.665219882587504 0.3243293981704306
1.1446696515669224 13.063888419596326 1656.2287885869223 32.062322762107506 0.329201804740468
1.1714178072691968 13.06890988906113 1465.8175620361726 33.522160417661375 0.3341780872756403
1.1982645427473666 13.073391315428877 1298.7951978198817 35.04913528436816 0.339270987017562
1.2251923688604136 13.077256613938705 1152.0526145197787 36.64562653202984 0.3444795022975395
1.2521749633345596 13.080431960790891 1022.846877445834 38.31618844054905 0.34981508650858306
1.2792029071048794 13.082892248705297 909.122115478515 40.06354315328167 0.3552772345403281
1.3062356561878636 13.084497684554576 808.9316700626591 41.89292339133828 0.36087911866643163
1.3332586328234541 13.085230872132321 720.5172290407837 43.807479618779986 0.36662089067046205
1.360256435032957 13.085046019139414 642.4579801034716 45.81249358226294 0.3725136425434566
1.3871772067746062 13.083820932772085 573.40125262224 47.9129844592768 0.37856563438038726
1.414015647811229 13.081540424610251 512.2699892888062 50.11333480598571 0.38478066322509885
1.4407452984093732 13.078150872554986 458.16611523459983 52.419445767304495 0.3911692878314021
1.4673207541685611 13.073558826353809 410.2055186525814 54.83736961185582 0.39774136902603463
1.4937266002892893 13.067739324783684 367.59824840311126 57.373273940694915 0.40450593049228767
1.519931759744659 13.060637596251677 329.78418491730696 60.033762471069416 0.41147270293568416
1.5459104338801433 13.052189739200433 296.16002181956 62.82591427686178 0.4186521822470506
1.571622469656315 13.042350840962163 266.2491073547821 65.75732678296465 0.4260556924064498
1.597038365127082 13.03106533766244 239.62439783322762 68.83616289423104 0.43369545368285956
1.6221323545909756 13.018295535483022 215.8758189050833 72.07120268694416 0.4415846567524154
1.646880417583621 13.004012167960862 194.6808167963849 75.47190014437787 0.44973754343326433
1.6712349287907462 12.988138319111139 175.7621849642454 79.04844547878986 0.4581694948187365
1.6951585874654895 12.970629779056958 158.85402316454145 82.81066010846283 0.4668923099433713
1.7186538986371775 12.951496033843965 143.7170473107821 86.7710291419057 0.4759266511218844
1.7416548469800337 12.930639231804909 130.18431933974452 90.94191715925838 0.4852901566989753
1.7641348705875557 12.908048459943643 118.04561596855177 95.33617659048136 0.49499994380281914
1.7860657432826452 12.8836757111681 107.15687009670958 99.9686401601054 0.5050782610780383
1.8074064132787908 12.857477508699384 97.37748746543467 104.85516269480573 0.5155483186455064
1.8281438565520187 12.829453878681576 88.5991463727016 110.011626557896 0.5264303675765526
1.8482281705555506 12.799537798726247 80.71337731374291 115.45663006612546 0.5377516029933097
1.8676296667130001 12.767711041017465 73.61369094054972 121.209933628766 0.5495398535170654
1.8863150864562208 12.73394905128957 67.21367016059389 127.29275952914652 0.5618243955208047
1.9042568291865893 12.698215026833394 61.448596234747946 133.72822784358803 0.5746371514811937
1.9214073372067089 12.660459746413467 56.24776319447409 140.54034848594614 0.5880087306466362
1.9377500251208606 12.620697899701208 51.54770398169067 147.75743598594283 0.6019799612688803
1.9532756243847256 12.578950835968596 47.309161481485546 155.40873011553867 0.6165894317112705
1.9679241786007975 12.535129194419472 43.47327891528932 163.52615059715487 0.6318791338401798
1.9816645760353602 12.489224175398679 39.99898050377046 172.14457603700384 0.6478947556514025
1.9944937595199161 12.441276863149751 36.853435855649565 181.30272498607607 0.6646879064334874
2.006344253847795 12.391171193994433 34.008664902594866 191.04221721235137 0.682312155101064
2.017236111410267 12.339037998467415 31.425547913409428 201.4088456694118 0.7008264195967084
2.0270979983817923 12.28473334468197 29.078402198037463 212.45303961390553 0.7202954787098421
2.03595138265515 12.228384334692674 26.95052378957989 224.22881442520134 0.7407854222892556
2.0437335278843003 12.1699069337392 25.014820280957405 236.79814574254758 0.7623767108125229
2.050435480579286 12.109317536081553 23.256141661547783 250.22598733951432 0.7851464477001655
2.0560461611675076 12.046660485777117 21.65509042645318 264.58676239356924 0.8091879459609469
2.0605447143917153 11.981949193851763 20.200896125278963 279.96126506233304 0.8345987695768431
2.0639029467937937 11.915187010546353 18.873722596511378 296.43889816243876 0.86148591023507
2.066105348245943 11.846389789034967 17.666402934877222 314.11802009557107 0.8899644746905969
2.067149087112997 11.775618083280543 16.56785291070081 333.1094916280953 0.9201665165663642
