M[M_sun], R[km], Lambda[1], P_c[MeV/fm^3], rho_c[fm^-3]
0.24162668629717493 15.618656898711224 2160425.4255784233 3.5677272577965504 0.1711233750220791
0.2536439790740416 15.27728398940365 1723230.7308441168 3.784819440097213 0.17388817098518933
0.2660399310967907 14.981260221976976 1382945.2358047245 4.01140113751849 0.1766666569292655
0.2788148754426895 14.723527845807109 1116453.802472755 4.247728447444584 0.1794575169191056
0.2919691174886344 14.498427456628303 905929.3073056244 4.494426517547865 0.18226731652941897
0.305504307441875 14.30125521974664 738689.1281529287 4.751650408120406 0.18509175135732583
0.3194207563241764 14.128152750505897 605104.5575443696 5.020083322510084 0.18793746035155565
0.33371941762584817 13.975963471498872 497698.1368721588 5.29994802072397 0.19080104120387123
0.34839982256524826 13.842036560083498 411011.4679152246 5.591974645045001 0.19368882144044447
0.36346208279223524 13.724002708096886 340652.74752780976 5.896328552696238 0.1965958285546296
0.37891567182324176 13.620008733754753 283309.9798883996 6.2138746229228 0.19952976008289441
0.3947477225898032 13.528450663179873 236405.10292353222 6.544871303104953 0.20248681273373623
0.4109722886539261 13.447880161294913 197866.31305782287 6.890018947133809 0.20547066315589696
0.4275799175943988 13.377091817102434 166082.3803049759 7.250023564711588 0.20848440164533993
0.4445751339414325 13.314935409745733 139805.11694862245 7.625145690152809 0.2115235998734504
0.46195643611746096 13.260584113188536 117979.30892671534 8.016331208831708 0.21459437160236183
0.4797203747383065 13.213165850942401 99814.54999291009 8.424286547740078 0.2176983873412729
0.4978773574072396 13.171993683789069 84647.07230437399 8.849454786812402 0.2208331470993808
0.5164153315769798 13.136417949379508 71940.04537159982 9.292704800075773 0.22400199623720884
0.5353340966765687 13.105853349819776 61279.414601734345 9.754923461339102 0.22720788441076886
0.5546406936481373 13.079827596480387 52300.707400117644 10.236920325971315 0.23045216250370876
0.5743230031513172 13.05784764810959 44731.28460306452 10.739169427414394 0.23373156377584497
0.5943788948706236 13.039527962213457 38329.09884888959 11.262909748211465 0.23705220470234026
0.6148155980328378 13.02453159996948 32902.4414035443 11.809081564516452 0.2404157352936227
0.635619552853132 13.012439412924767 28061.434468647745 12.378663844022098 0.24382378843263838
0.6567898966918718 13.00301524776388 24371.6493507793 12.9723496405894 0.2472743606243646
0.6783210214641077 12.995976499564902 21028.511887762445 13.591457641749543 0.25077214697807454
0.7002089342125329 12.991068840709884 18173.545337715237 14.237189338597181 0.2543198284764157
0.7224429433894869 12.98799515623788 15730.299719997358 14.910734369938472 0.25791938964630207
0.7450294907888068 12.986658536112426 13634.361903033932 15.613126686748815 0.2615707703323521
0.7679507224815807 12.986760910703005 11837.050560550679 16.345623896908258 0.2652757803943561
0.7911948372545342 12.988144084611562 10290.494466407015 17.10984605904236 0.2690391520018965
0.8147676204553368 12.990671197270089 8956.815768288627 17.90724815371615 0.2728633176050987
0.8386506859008306 12.99413047214681 7807.790104459522 18.739198150861586 0.2767493825177029
0.8628307274756498 12.998404474155008 6815.104530661439 19.60703512979913 0.2806977801094348
0.8873105291168661 13.00335494575728 5955.679401522241 20.51284736212266 0.2847148937214925
0.9120685238104916 13.008835787411336 5211.388571102258 21.45842888142596 0.28880373651465485
0.9370865386819375 13.014738890125589 4565.4115269664935 22.445267056694295 0.2929642567230556
0.9623642222856796 13.020937239662233 4004.618156843527 23.47538066656329 0.2972002014178172
0.9878887657552765 13.027335358743512 3516.74499715948 24.55119505022078 0.301517696114806
1.013631338147455 13.03378562351918 3092.002342589593 25.67465606314895 0.3059183993702271
1.039594677879095 13.040238109496723 2721.6264102388486 26.84771762785866 0.3104035176011182
1.065745219041716 13.046572691659376 2398.47542634971 28.07347981242197 0.3149818115859333
1.092076466598716 13.052695974813473 2115.8909246711796 29.35400078970355 0.3196537494581389
1.1185739986628558 13.058541692664305 1868.629862551899 30.692029580383497 0.32442397111663107
1.1452044273144737 13.063988318894053 1652.2101868166383 32.090973062347146 0.32930058232291537
1.171966874569517 13.06900244701382 1462.1487221888124 33.55276309080927 0.3342812214394164
1.1988230050799282 13.073456899936573 1295.5079758316947 35.08194610431079 0.33937948350407887
1.225768979568131 13.07732661687955 1149.144605648344 36.68055032029107 0.344592161032384
1.2527633149221344 13.080497054097412 1020.2390736404382 38.35362369381841 0.34993366476398086
1.2798048276156677 13.082935209790186 906.7738780095248 40.103398557326855 0.35540053384561365
1.3068485798924612 13.084520515559348 806.7824611841811 41.93536048918415 0.3610074124424118
1.3338852862766342 13.08523810073686 718.6323510480105 43.852973950917864 0.3667561233535118
1.3608934970447468 13.08503667772295 640.6506810532538 45.860949864834886 0.37265454683088733
1.387823796396103 13.083775365550707 571.835325482019 47.96460955505947 0.37871257606792824
1.4146809243842946 13.08148787119649 510.86082012795805 50.16869448703529 0.3849357871521627
1.4414034442400696 13.078034146614375 456.91827055106506 52.478452193528405 0.39133129737001554
1.4679976933307344 13.073438362310918 409.050258724519 54.90028391418429 0.39791072301301234
1.49440663408943 13.067575828395123 366.56363345221723 57.440378394976136 0.40468312322289357
1.5206180149252946 13.060430802103626 328.85956879503743 60.10536239053044 0.4116582670742748
1.5466015304223009 13.051945237339838 295.31182787900934 62.90234009333251 0.41884669202609043
1.5723177416328662 13.042065249827436 265.48488863198844 65.83893633787584 0.4262597671448206
1.5977414520199829 13.030740507106232 238.9380840731096 68.92334396295787 0.43390976165803274
1.6228294092773698 13.017922174179436 215.25461344563334 72.1643757629596 0.4418099194651659
1.647579991822316 13.003584860681068 194.11216144146886 75.57152151296023 0.44997454030826317
1.6719297502470825 12.987649882247917 175.24500166167533 79.1547274720038 0.4584178859937809
1.6958668374170962 12.970107255258277 158.37637331472857 82.9241633329587 0.46715314002268776
1.7193470396042745 12.95089757235655 143.28887387504372 86.89257418847352 0.47620189085105985
1.7423329496484825 12.92995798240869 129.7892015198963 91.07155463438126 0.48557855236328445
1.7648127770189188 12.907313224245312 117.68571773602682 95.47515449371411 0.49530489235476965
1.7867389279458603 12.882880278428699 106.82646716835609 100.11707947744391 0.5053985866849974
1.8080785910642663 12.856629134232538 97.0924699584105 105.01383267483287 0.5158852546806794
1.8287892007336335 12.828496643318095 88.33673120550495 110.1819521466559 0.5267874293629652
1.8488695778030744 12.798535597948664 80.47223515272461 115.63904827252885 0.5381284160600555
1.868257240304094 12.766630053143032 73.38538982909108 121.40536209811759 0.5499376742641209
1.8869266907707956 12.732783018925284 67.01348998612049 127.50229472277172 0.5622449309824997
1.90484993930505 12.696976197116062 61.262147822426606 133.95229995035731 0.5750795393937278
1.9219932936080355 12.659158926510095 56.07897009026402 140.78101283484 0.5884776363183079
1.9383081975611556 12.619287416893581 51.397397272726266 148.01613274108993 0.6024775773483719
1.9538051942231272 12.577436188731852 47.16425378715392 155.68618971096345 0.6171152454186974
1.968423382719615 12.53351394712989 43.34195431738543 163.82478762077884 0.6324381049274324
1.9821400768878286 12.487518427717605 39.882541404441206 172.46566245659355 0.6484876066183122
1.9949295440543924 12.439448519565623 36.74819738811475 181.6481584255669 0.6653171182332258
2.0067681469378047 12.389292165833544 33.90547387118732 191.41423916723744 0.6829809434310951
2.017617499012888 12.337023950372371 31.330282188929683 201.80992866226467 0.7015383023454475
2.0274556801352737 12.282643473297583 28.99370455387602 212.8851967803223 0.721051959770667
2.0362686983682368 12.226184371427646 26.87258124170876 224.6954532985219 0.7415920186908862
2.0440159095593256 12.167595483716015 24.94468572503759 237.30191284190303 0.7632358067745412
2.0506763883539443 12.106895984411185 23.18926696994262 250.77139364896746 0.7860657941604527
2.056252344439151 12.044155564136295 21.5955424095944 265.17696636310063 0.810170079656375
2.060701464880644 11.979312905627523 20.143413526874003 280.60040780589753 0.8356485123397853
2.0640087721973575 11.91242408247693 18.82161000534596 297.1313630932559 0.8626078274996322
2.066171729890777 11.843529556717995 17.61959654114972 314.8702237206259 0.8911686047472432
2.0671683497288305 11.772644696289516 16.52459156437875 333.9263911076414 0.9214567440408372
