M[M_sun], R[km], Lambda[1], P_c[MeV/fm^3], rho_c[fm^-3]
0.24162668629717493 15.618656898711224 2160425.4255784233 3.5677272577965504 0.1711233750220791
0.25364226982720395 15.277372921856019 1723109.471296622 3.7848073133788236 0.17388801983149474
0.266037810388381 14.981330665493351 1383116.3804241887 4.01137564476747 0.17666634886441424
0.2788120910645867 14.723604634230446 1116459.6485104107 4.2476887262337195 0.17945705621291816
0.2919662129004929 14.498474603548342 905967.8389324237 4.494371525595754 0.18226670418126925
0.30550062704527964 14.301294487807855 738671.090276806 4.75157827823529 0.18509097221690463
0.3194156606470337 14.128217367057708 605128.0716187702 5.019993523401827 0.1879365286511482
0.33371385610696086 13.975987133719613 497714.29305284144 5.299838188278448 0.19079993537338982
0.34839294029403806 13.842038360443016 411043.50150206836 5.5918445050760095 0.1936875623004442
0.36345498490334455 13.72404421862415 340674.3260340662 5.896175181492145 0.19659438805982396
0.3789069466277412 13.620061908420272 283339.7880309222 6.213696164538214 0.19952813275730488
0.3947377112614365 13.528519064099573 236432.92790227025 6.544667942863353 0.2024850295391436
0.4109622337044845 13.447918101549874 197888.78769052762 6.889786759269357 0.20546868574660943
0.4275681981227956 13.377113728593828 166107.92103952385 7.249760370484397 0.2084822243069493
0.4445627949740537 13.314972110865199 139820.49606826023 7.6248522170392015 0.21152126363876347
0.4619420835754622 13.260619043102047 117996.5945595764 8.016002338086704 0.21459182752126865
0.4797049344852982 13.21321003025992 99828.5110596893 8.42391971498247 0.21769562927175848
0.49786067904568965 13.172025116413344 84657.47244157316 8.849051344639639 0.2208302260056724
0.5163969180052366 13.136440344517556 71949.37084872504 9.292258219708277 0.22399885228358063
0.5353139518146616 13.10587820690949 61287.97584464527 9.754430714972424 0.22720451080831672
0.5546190077586725 13.07985454236871 52310.534993163266 10.236378201824529 0.23044855216837445
0.5742996863065221 13.057868308613418 44739.75463488661 10.738580281029517 0.23372778127355937
0.5943554097217486 13.039542347779777 38002.863988364035 11.262264719933231 0.23704817455398522
0.6147900573118823 13.024521216760181 32909.370661228204 11.808376843991411 0.24041144941703022
0.6355901435618423 13.01244101068572 28300.328851148286 12.3778953831856 0.2438192383190034
0.6567605061002492 13.003028750208289 24376.563274988275 12.971520968324317 0.24726962427351043
0.6782903575622573 12.996000139601144 21032.709951358233 13.59055699109322 0.2507671323965189
0.7001766932745855 12.991061427839812 18040.78434407521 14.236211880622621 0.2543145257191989
0.7224082651574646 12.988007017186874 15734.258641005375 14.90967496545995 0.25791378817547855
0.7449926197887234 12.986657594128713 13638.06010201734 15.61199020265263 0.2615649613795121
0.7679128108203496 12.986755348570163 11838.777409558272 16.34439494336066 0.2652696543691535
0.7911544494028513 12.988125248276772 10291.673537981125 17.108518468461316 0.2690326963784608
0.8147273231242037 12.9906605264277 8958.859746274135 17.905815349628398 0.2728565190521527
0.8386075160803591 12.994120059216216 7809.917018200178 18.737666488202017 0.27674234532028574
0.8627845940056695 12.998392816052545 6816.5224367759065 19.605384694007242 0.280690375644912
0.8872583764669443 13.00333154710691 5956.855998794277 20.511070210071736 0.2847071059656536
0.9120171611479612 13.008834943032602 5212.754240316432 21.45651652607885 0.2887955483628517
0.9370350713427629 13.0147207594388 4566.62928259335 22.443227464018474 0.2929557854162482
0.9623123289091817 13.020914355591701 4005.8993254789666 23.473188242240017 0.2971912973312077
0.9878341393977741 13.0273140712678 3517.702913545279 24.548839475245572 0.3015083385336734
1.013575408682412 13.033774951746887 3093.2353959800025 25.672146455353246 0.3059087143104203
1.0395354984192788 13.040225181518165 2722.3648672694026 26.84502330823949 0.31039333894676185
1.065685019412084 13.046548441689513 2399.145801822682 28.070588169657853 0.3149711141419662
1.092013530271407 13.052684352335586 2116.564576755997 29.350922071920387 0.3196426679644619
1.1185091389279076 13.058524070851389 1869.2028821756344 30.688727032726682 0.3244123211657719
1.1451390202803917 13.063981616720968 1652.6861546459747 32.08745746321973 0.32928850307058616
1.1719012851408448 13.06898860286886 1462.7226717800268 33.54899320493951 0.3342685165353438
1.1987529861769446 13.073452435847319 1295.8982329091218 35.077904139784444 0.3393661178231693
1.22569763771195 13.077319627762126 1149.4707861571906 36.676248006054195 0.34457828243263977
1.2526910383923464 13.080482549077278 1020.5367732377789 38.3490146529538 0.34991907275326006
1.2797301678997204 13.082934179821423 907.0351929649183 40.098488571254926 0.3553853439890275
1.3067731465963544 13.084516907818298 807.0856627299823 41.93013238376991 0.36099160708769007
1.3338075915070733 13.0852330456019 718.8507127749917 43.84736911422167 0.3667394628802426
1.3608154629943212 13.085034791492474 640.8878802912741 45.854980040227176 0.3726371873918675
1.387744985214603 13.083779156536187 572.0506373396832 47.958249245326655 0.37869447257327604
1.4145996317627954 13.081495959487393 511.03979322887625 50.16187395416305 0.3849166752674164
1.4413218909827554 13.078047160412817 457.0627908679704 52.471182264288075 0.3913113368681287
1.4679145773403328 13.073455617044715 409.1916428865932 54.89253240034211 0.3978898573318285
1.4943230903909668 13.067594040269203 366.69011299613305 57.43211050111736 0.4046612914278974
1.5205335390378405 13.060454340752038 328.9717689842139 60.096540480642304 0.41163540349954675
1.546516005144346 13.051975304610746 295.41282455661326 62.89292343409731 0.4188227258796792
1.5722321464302071 13.042102893518038 265.57450423652534 65.82888081608078 0.4262346220747153
1.5976554197213018 13.030781552410625 239.02005960272996 68.91260177411279 0.4338833552744688
1.622736120071615 13.017942551082974 215.3229442400069 72.15289506785629 0.4417821628144914
1.647494296111009 13.003637408229585 194.18313625399193 75.55924605850186 0.4499453372930143
1.671843224724985 12.987711411328114 175.30892327530245 79.14166026444494 0.4583874003480447
1.695780917082886 12.970173242361735 158.4337039872581 82.9101768919046 0.4671209992218806
1.7192454331371467 12.950936547723952 143.34677081525655 86.87759652159707 0.476167973804737
1.7422489168729942 12.930043048576888 129.8370587780398 91.05557950710985 0.4855430135853385
1.7647291273288686 12.907403828445535 117.72940098285201 95.45802802565608 0.49526731305969585
1.7866569697470047 12.882978767090133 106.86632185772288 100.0987867565212 0.5053591117868534
1.8079965975083558 12.856734604576303 97.1280610026395 104.99427885195396 0.5158437320968096
1.8287088967338179 12.828612439102317 88.36950138246712 110.16103376487143 0.5267436945911058
1.8487904755135105 12.798658373832032 80.49810073519379 115.61656693789897 0.5380819773804223
1.8681793630058119 12.766764162828785 73.41233754400874 121.38127690999278 0.5498886456473355
1.8868519698916857 12.73292781623319 67.03671824809958 127.47647046990407 0.5621931019130497
1.904777098986472 12.697125243826784 61.28576711320917 133.92468359602344 0.5750250161354709
1.921922871158593 12.659325785387463 56.0990595409368 140.75135090063216 0.5884198435906075
1.9382392783331643 12.619449506088829 51.41364916054801 147.98424761478458 0.6024162447215395
1.9537508481103063 12.57765897499455 47.18291947009289 155.65199132357333 0.6170504360512864
1.968361085851833 12.533711587127844 43.35763525708187 163.7880687514502 0.6323695137743715
1.9820821897773246 12.487728153806813 39.897063309133486 172.42608505269146 0.6484145312693107
1.9948764642010401 12.439669253691852 36.761611093918305 181.60557902801906 0.6652395592701957
2.006710231175279 12.389509538923752 33.91866360735345 191.36838130029307 0.6828985041937068
2.017569937881516 12.337270028261472 31.34186705918306 201.7604873427805 0.7014505488803471
2.027412093898464 12.282902762241534 29.004142592651394 212.83195987307346 0.7209588249864982
2.0362285707798313 12.226454678626906 26.881194574699627 224.63792810720287 0.7414925850282106
2.0439799553788576 12.167879927373644 24.952523316563266 237.23981914486728 0.7631299313170711
2.050646143076993 12.107195193017603 23.197241536009972 250.70420239518157 0.7859526101888146
2.0562207784292585 12.044445992938439 21.60225790310419 265.1042027658181 0.810048996803021
2.0606817977931855 11.979637554129313 20.15036995918019 280.5217148202926 0.8355194375277613
2.064001064554283 11.912775031848742 18.829421259850417 297.0459874232652 0.8624695036165395
2.0661652804766066 11.84388020069763 17.625901440208864 314.77747988209137 0.8910201401030585
2.0671658965038833 11.773008835518123 16.530137110137453 333.8256674764436 0.9212976591111072
