M[M_sun], R[km], Lambda[1], P_c[MeV/fm^3], rho_c[fm^-3]
0.24162668629717493 15.618656898711224 2160425.4255784233 3.5677272577965504 0.1711233750220791
0.2536418692865302 15.277350836647571 1723277.6577192487 3.7847993759892846 0.17388792089576324
0.2660378969316327 14.981275754917833 1383119.8242405753 4.011358958873773 0.17666614722523624
0.2788114573957188 14.723600244855232 1116447.093084843 4.247662727411768 0.1794567546657629
0.2919645263319613 14.498506401196247 905963.1841304556 4.494335531705361 0.182266303380946
0.3054992497653255 14.301275170463668 738700.5656563508 4.751531067220621 0.18509046224784265
0.3194132112497971 14.12824072970219 605174.7429814663 5.0199347475890015 0.18793591882940475
0.33370982094746005 13.976026765268589 497732.0951953516 5.299766300385637 0.1907992115815928
0.348389119406238 13.842126356913395 411068.1425959126 5.591759325714225 0.1936867381666869
0.36344973083703824 13.724086974165264 340706.20276886434 5.896074797138998 0.1965934452287356
0.37890214713716824 13.620091668688078 283359.7133883704 6.213579360547526 0.19952706764555098
0.3947319039540096 13.528550125073263 236448.84089580333 6.544534840604387 0.2024838624121448
0.41095459174237325 13.447959174873425 197910.6323065484 6.889634789414389 0.20546739150755286
0.427560828690761 13.377140452725055 166117.4336414626 7.249588107147836 0.20848079921651322
0.4445539207378989 13.315022139025285 139840.90775010394 7.6246601364280435 0.21151973455359124
0.46193235286059875 13.260646520305748 118011.56935024826 8.015787090129598 0.21459016240429993
0.47969531223835626 13.213224811047885 99846.46826776746 8.423679621428464 0.217693824103877
0.4978492534643478 13.172054530782596 84664.7873461978 8.848787290823742 0.2208283141432238
0.5163849784265693 13.136463427289549 71958.5555486795 9.291965932780219 0.22399679456538513
0.5353011985466514 13.10589505427264 61294.35725755659 9.75410821341721 0.22720230279195971
0.5546056723552028 13.079851910485528 52317.129400317426 10.236023383733862 0.23044618921830562
0.5742857512073691 13.057877695013197 44744.93787647404 10.738194688123343 0.23372530564766
0.5943386418709892 13.039562156728444 38340.69468261943 11.261842553979704 0.23704553685346794
0.6147729306273184 13.024531305987985 32636.234083141448 11.807915611380515 0.24040864435320636
0.6355719026387977 13.012466202321143 28304.691847131046 12.377392434751965 0.24381626032400758
0.6567408148406128 13.003061147178915 24379.83730557437 12.97097861366397 0.24726652439667487
0.6782695540585568 12.99599368707993 21035.662314715995 13.589967529404452 0.2507638504317621
0.7001550928706106 12.991076699434052 18179.903077387557 14.235572151754921 0.25431105515886965
0.7223854926317066 12.98800471264083 15735.312408959531 14.908981606235963 0.2579101221238976
0.744970341285613 12.98665669614932 13639.847627065465 15.611246398276695 0.26156115954492726
0.7678878331444465 12.986746015667755 11840.410954298202 16.343590622241447 0.2652656450301049
0.7911291415330938 12.988130815858947 10293.7254367656 17.10764959446226 0.2690284713384288
0.8147009397524028 12.990654488974354 8960.241189342012 17.90487761904645 0.2728520695875923
0.8385775527753957 12.994120431379738 7810.392221217268 18.73666406000948 0.27673773968141135
0.8627565444539048 12.998388010899447 6817.84780411422 19.604304535717596 0.28068552965588656
0.8872278657320045 13.003329867546656 5958.710303373622 20.50990712368788 0.28470200914078014
0.9119858591313298 13.008825076147465 5213.7277610635265 21.455264957689856 0.28879018950944796
0.937002179604954 13.014709843780066 4567.4514945181645 22.441892626808166 0.29295024126241764
0.9622775048928889 13.020913497911172 4006.695302549828 23.471753387076784 0.2971854699580528
0.9877982591525452 13.027306312145676 3518.3614361634914 24.547297849457067 0.30150221438625985
1.013538377323672 13.033762585678593 3093.75929481224 25.670504025836816 0.3059023758586023
1.0394965789367347 13.040224432951874 2722.9194043909283 26.843259998682814 0.3103866774807751
1.0656479732475697 13.046559637754738 2399.4772095318085 28.068695727412386 0.3149641131752033
1.0919733595115493 13.052673018905946 2116.9642931077065 29.34890720345802 0.3196354156751329
1.1184685039207354 13.058512982821048 1869.609984196435 30.686565686045277 0.3244046968753015
1.1450964191090318 13.063973634268827 1652.8988538591861 32.08515669173052 0.3292805978463661
1.1718551002000523 13.068987327768113 1462.924645782425 33.54652602496037 0.33426020188443717
1.198707893478969 13.073441520912413 1296.1556437252195 35.07525890881141 0.3393573707614652
1.2256516322609734 13.077316148316267 1149.6940990643848 36.67343239940664 0.34456919972144134
1.2526429927301204 13.080483325577854 1020.7543081678181 38.345996280824565 0.3499095112120476
1.2796827818423355 13.082927987445167 907.2564973468137 40.09527530092057 0.3553754032040973
1.3067247396662403 13.084517679333858 807.2323180447818 41.926710935052604 0.3609812635298704
1.333757217015871 13.085234443837406 718.9502482308634 43.84370113359208 0.36672855974487156
1.3607637129195893 13.085034633178514 641.0235653506387 45.851073212225195 0.37262582686674023
1.3876925068541988 13.083783975273349 572.1700742778683 47.954086885604944 0.3786826251538691
1.4145466356445873 13.081500584814343 511.1491764894074 50.15741042941256 0.384904167979175
1.441268138301805 13.078054981224902 457.1512528235973 52.466424659127405 0.3912982742668781
1.467860924751604 13.073463567223845 409.27525192719236 54.887459652411344 0.39787620240671273
1.494267789195638 13.06760509268299 366.7653216747345 57.42669984216405 0.4046470043072497
1.5204780792327508 13.060473201155853 329.0503531467862 60.090767283806876 0.4116204412159891
1.5464604895347698 13.051994821668476 295.47933524810554 62.886761045961784 0.4188070421119427
1.5721756685444976 13.042126727936155 265.63719138302145 65.82230037178563 0.42621816686368813
1.597598854804472 13.030810014935385 239.07940774482086 68.90557199363725 0.4338660747106764
1.6226799805727188 13.01797539367086 215.38007542253155 72.14538203132622 0.44176399869388777
1.6474376205579926 13.00367440200067 194.22846458472662 75.55121295812438 0.44992622673758725
1.6717864016029693 12.987752916103881 175.34583415915782 79.13310906667972 0.45836745050149047
1.695724316445496 12.970217066147532 158.46663864994136 82.90102418421552 0.4670999663262681
1.719187352553778 12.950978846752163 143.3873541384497 86.8677951984527 0.4761457786301577
1.7421930027461976 12.930097867310794 129.86777233941402 91.04512548840094 0.48551975724169716
1.7646749187055888 12.9074622406319 117.76417026160405 95.44682062680634 0.49524272152412896
1.7866025718691294 12.883042412191505 106.89253445330371 100.0868162196325 0.5053332798875747
1.8079451621301226 12.856802455005784 97.15265722926678 104.981483116796 0.5158165603263807
1.8286565846857654 12.82868674083933 88.39278652135351 110.14729320891219 0.5267148820376115
1.8487383210965953 12.798737125081153 80.5211731724388 115.60185561580396 0.538051588865461
1.8681284088212295 12.766851947713304 73.43350797000856 121.36551612927269 0.5498565624734711
1.886802182739959 12.733022367624597 67.05495899019195 127.4595717636816 0.5621591863444984
1.9047295177650303 12.697228419904858 61.30029828126468 133.90661226120076 0.5749893377094312
1.9218763977935542 12.659432326864327 56.11193413608025 140.7319410933003 0.5883820259047483
1.9381946031556199 12.619562591313146 51.42667714721639 147.9633831282579 0.6023761108436326
1.9536991524559748 12.577751965650059 47.19820997313325 155.62961322614836 0.6170080273165869
1.9683207545190762 12.533840038171544 43.36892000610997 163.76400059473173 0.6323244922696193
1.9820448093917382 12.487866919803112 39.905049472221 172.40018740577767 0.6483667140958745
1.9948392520477463 12.43981326937585 36.769822747508265 181.5777171591823 0.6651888084897828
2.006677809404656 12.389663904457127 33.92642072531243 191.33837432486925 0.6828445602941078
2.0175393633592416 12.337430946325204 31.35058501225277 201.72813572685428 0.7013931279533018
2.02738460581563 12.28307392157746 29.011303889833034 212.7971248249411 0.7208978831539054
2.036203820360982 12.226632418054642 26.888811734870085 224.60028729091562 0.7414275219811574
2.04395740279908 12.168066092488473 24.958570964099536 237.19918922669785 0.7630606535742643
2.050627237104688 12.107389123416139 23.2027555071531 250.66020173124372 0.7858784350152771
2.056204469447432 12.044649396726202 21.607210139886167 265.0565917975955 0.8099697693857596
2.0606705175483633 11.979849228903031 20.155692922865654 280.4702244281037 0.8354349813002877
2.0639912887454175 11.912996482878992 18.833673738509592 296.99012480007985 0.8623789961574522
2.0661589354812464 11.844111288106582 17.629451624513045 314.71679658434306 0.8909229980788496
2.067164008943884 11.773250605848355 16.532944939090036 333.759763376551 0.9211935688497092
