M[M_sun], R[km], Lambda[1], P_c[MeV/fm^3], rho_c[fm^-3]
0.24162668629717493 15.618656898711224 2160425.4255784233 3.5677272577965504 0.1711233750220791
0.25363740687133485 15.277479552490156 1723256.5948231271 3.7847085102871194 0.17388678829862084
0.2660258052739441 14.981597371927935 1383311.1535729303 4.01116794552325 0.17666383894162355
0.278795329373085 14.723908032875123 1116809.9084041528 4.2473651087559325 0.17945330273785698
0.29194317215706866 14.49883474356918 906308.5024266047 4.493923502785586 0.18226171534329735
0.3054709987147542 14.301656481026537 739024.4698199088 4.750990643295754 0.1850846246380395
0.3193778712660467 14.128656152982801 605412.0692983981 5.019261952802091 0.18792893832381563
0.33366817354371636 13.976470160110722 498059.20007946313 5.2989434284639 0.19079092662673233
0.3483403345190432 13.842529990972592 411298.35026794975 5.590784327335531 0.19367730478916023
0.3633933365944314 13.724501453802146 340935.64192347194 5.89492577545764 0.19658265337394537
0.3788379664048328 13.620510891073177 283567.42211448506 6.212242418380664 0.19951487634277235
0.39465962572991814 13.528952295674394 236653.01261733953 6.543011371199173 0.20247050364356745
0.41087447931197707 13.448321593960646 198075.25032016577 6.8878953927066116 0.20545257807527992
0.4274717328800475 13.37747704588858 166273.04234040642 7.247616470072727 0.20846448836827813
0.4444544338430299 13.315341092472885 139967.58143858897 7.622461713134122 0.21150223369059007
0.4618237975783698 13.260977827546803 118134.41938838287 8.013323548702662 0.21457110491967488
0.4795769901332644 13.213518109472183 99955.47206667619 8.420931762664333 0.21767316404740683
0.497721399760647 13.17234932282687 84765.85459888031 8.845765250398582 0.2208064332793271
0.5162470498052144 13.136699143439786 72048.48990586853 9.288620822949952 0.22397324478363675
0.5351516664290156 13.106113822635285 61373.03762302588 9.750417366856762 0.22717703330272795
0.5544455391747554 13.080053579376719 52385.90204700545 10.23196275635159 0.23041914702399557
0.5741116079028797 13.058045715711767 44804.54516391322 10.733781925276164 0.23369697434327824
0.594159316752537 13.039715969665037 38394.41007276967 11.25701132049555 0.2370153512192315
0.6145775052105008 13.024663895873378 32959.478158518825 11.802637383903182 0.24037654392361607
0.6353647404599521 13.012556341122623 28345.90456766135 12.371636911160413 0.24378218144174507
0.6565163773867365 13.00310881879276 24419.167067219638 12.964772223091789 0.2472310512132145
0.6780378309382825 12.996059680351442 21069.86550051699 13.583222177337941 0.25072629411864367
0.6999103553616572 12.991113723548686 18208.847730019326 14.228251693086634 0.2542713413133191
0.7221282927240816 12.988027283648403 15762.93022520687 14.901047574399765 0.2578681719068237
0.7446989191596173 12.986666559971695 13662.74910313608 15.602735236914956 0.2615176561337225
0.7676029829945769 12.986735402858518 11861.345533818514 16.334387125488224 0.26521976790710683
0.7908314318342509 12.988112245225736 10311.8490466676 17.09770760111819 0.26898012679143796
0.8143886124391165 12.990618661924616 8977.251002279892 17.894147908698166 0.2728011578792008
0.8382531998218926 12.994061887064882 7825.13956572236 18.7251942116686 0.2766850416629439
0.8624169126356869 12.998323229627024 6830.578431805618 19.591945487597417 0.28063008240141507
0.8868738831147432 13.003265660246798 5969.864594963393 20.49659943070943 0.28464369276675816
0.9116167415679067 13.008741269302442 5223.807152309845 21.4409451057467 0.2887288760502702
0.9366193793231805 13.014621884082999 4576.914100321366 22.42662024814438 0.29288680849622206
0.9618806415912634 13.020810310358431 4014.8076409489545 23.455336927026877 0.29711879783598455
0.9873879322144197 13.027212063105843 3525.669183615543 24.529660089269907 0.30143214793807416
1.0131147912227136 13.033660499308064 3099.9809506705064 25.651713213497125 0.3058298584948773
1.0390573232589193 13.040113602118307 2728.726890628668 26.82308654323077 0.31031046579870225
1.0651950796740943 13.046444004955951 2404.6404552310637 28.047045262935683 0.31488401869276045
1.091506517632496 13.052572354495151 2121.5095000691713 29.325856430605786 0.3195524470461115
1.1179878030629053 13.058408534251113 1873.8116394753704 30.661839567497104 0.3243174738899103
1.144602791349188 13.063867509494267 1656.7370981855975 32.058697610441826 0.32918926755578937
1.1713489768426388 13.068896788216083 1466.2931800242368 33.51830199636601 0.33416508399805506
1.1981934547324693 13.073377577126582 1299.1701117879898 35.044998537768976 0.339257307918033
1.2251189805875429 13.077244473115519 1152.405146076548 36.64122345496423 0.3444652986525076
1.252099377498231 13.080423786313208 1023.2018219977888 38.31146842681581 0.3498001345398061
1.2791268018136872 13.082883008981252 909.5240239267862 40.058518496482144 0.35526168993081975
1.3061571596987434 13.084490477630764 809.292543306693 41.88757334370199 0.36086294466189844
1.333180585831219 13.085223231826005 720.8011654950541 43.80174426434897 0.36660384223098613
1.360176760660971 13.085049033041798 642.6709230857733 45.80638492726421 0.37249587940451834
1.3870959973956782 13.083830294363999 573.5500973129913 47.9064764408395 0.3785471104590806
1.4139320891778573 13.081546180455863 512.4768267979597 50.10635614560333 0.3847611082496431
1.440661261153798 13.078162754933688 458.32961011969667 52.41200753217877 0.39114886522461273
1.4672352979777403 13.073577806000594 410.3526748478423 54.829438904582084 0.39772002098836035
1.4936405996942563 13.06776149059321 367.7207059286217 57.36481520101682 0.40448359475918166
1.5198453331191972 13.060665439190975 329.9221753483824 60.02473723765454 0.4114493124112699
1.5458231015394928 13.05222078221117 296.2627865781924 62.81628092532569 0.4186276646015058
1.5715343645320636 13.042389989846951 266.34599364281866 65.7470402374997 0.4260299696332183
1.59695001755951 13.031107006685637 239.7027863864882 68.82517430987707 0.4336684416113478
1.6220430389159792 13.018342690529519 215.95135847906155 72.05945909917136 0.44155626451130614
1.6467919643762279 13.004066060668901 194.75675631804165 75.45934408224218 0.44970767285900104
1.6711469101188925 12.988198040577908 175.82900866326318 79.03501453745012 0.45813803980306095
1.6950770047545178 12.970708397291737 158.909428137954 82.79635499730612 0.46685943683959646
1.7185664002262926 12.951570536031964 143.77019574135758 86.75571085590934 0.4758919627408428
1.7415655537113572 12.930725689734913 130.2306742006179 90.92557931848215 0.4852538110169912
1.7640489481476767 12.908140636192353 118.08903002958438 95.31866203182713 0.49496151295032087
1.7859794084344731 12.883774881176167 107.1943694284174 99.94993364006575 0.5050378932193522
1.8073162149965905 12.857569334044209 97.41929313077443 104.83516733966111 0.5155058584669449
1.828062060857316 12.829569773895821 88.63729012152142 109.99015224730879 0.5263853325450428
1.848147356270207 12.799664736840692 80.74455108436042 115.43364315085452 0.5377041199585346
1.8675495859812667 12.767848005985114 73.64042797419822 121.1853078669205 0.5494897244902829
1.8862381379197315 12.734094910307002 67.24132473983909 127.26635686182541 0.5617714055781617
1.9041695914583496 12.698337791723258 61.47460912350784 133.69990868329063 0.5745811077587868
1.921334737953578 12.660627751962462 56.27100484138356 140.51002487985346 0.5879496487304829
1.9376841118665276 12.620871570080816 51.57042740489567 147.72484121597125 0.601917263607149
1.9532006882425526 12.579111306671663 47.324041809732826 155.3737722035353 0.6165231829686878
1.9678594744652254 12.535332411744438 43.48980018231334 163.4885083523318 0.6318086512200167
1.9816040742263656 12.48943506416965 40.01659863083666 172.10412379159 0.647820065003203
1.994434887690124 12.44150675923847 36.866810670567745 181.25920662626447 0.6646086371376744
2.006290768061937 12.391409574508637 34.02156092743433 190.99535058764602 0.6822279024077507
2.0171752086995682 12.339254040281046 31.434414485662458 201.35831956365783 0.7007367407429845
2.0270535809771304 12.284997396206958 29.090313787035473 212.3985103227283 0.7201998885608377
2.035909827249379 12.228663153029686 26.960224203342765 224.17003368416226 0.7406838183789985
2.0436980633207673 12.170197140918974 25.023406104407623 236.73456599435008 0.7622680925348013
2.0504057255756036 12.1096230984395 23.264781571858432 250.15728241173701 0.7850306267219194
2.056020277869558 12.046979950146534 21.662577409126676 264.5124242955894 0.809064243046956
2.0605171889535927 11.982266996867942 20.20720797945987 279.8807294875405 0.8344664370412009
2.0638826023539694 11.915522976300869 18.880431632342905 296.35168623875984 0.8613446112919805
2.0660976197628953 11.846750526234915 17.67305624156957 314.0232881610439 0.8898128274957564
2.0671473085979253 11.775992558541141 16.573530479637835 333.0066159397886 0.9200040326343357
