M[M_sun], R[km], Lambda[1], P_c[MeV/fm^3], rho_c[fm^-3]
0.24162668629717493 15.618656898711224 2160425.4255784233 3.5677272577965504 0.1711233750220791
0.25363757646007706 15.277437825755579 1723446.1109479908 3.784695273177869 0.17388662330443982
0.26602535359905516 14.981581791303446 1383267.7012017325 4.011140119674859 0.17666350268266742
0.2787924141158481 14.723958823116632 1116862.8088988082 4.247321754008832 0.17945279988812482
0.29193840470878946 14.498919662628971 906278.4860597014 4.493863482752758 0.18226104700630189
0.3054654202406827 14.30177722924943 739131.8678420912 4.750911921497343 0.18508377429237385
0.31937385541755103 14.128676494817528 605453.6495024944 5.0191639506959635 0.18792792151413923
0.3336614681955408 13.97653562801996 498122.65416153445 5.2988235676702375 0.19078971982742518
0.34833326311108215 13.842593531655705 411355.54432930524 5.590642309971815 0.19367593073209866
0.36338579672468974 13.72457583745769 340971.9305850149 5.894758412989775 0.1965810814702295
0.37882848501547606 13.620542016707724 283593.1611992895 6.212047687503448 0.19951310063164338
0.39464901820249837 13.528990007209925 236684.47898773046 6.542789475466153 0.2024685579177553
0.41086257760928435 13.44840582116492 198107.01072482156 6.887642051193761 0.20545042051264584
0.4274578052755229 13.377544820057778 166296.2527456628 7.247329307894522 0.2084621127491712
0.4444403657468729 13.315405454009786 139995.99452901402 7.622141525240808 0.21149968478907916
0.4618083900452342 13.261018930294075 118151.96361939172 8.012964753911842 0.21456832935189477
0.4795593774196069 13.213561754797304 99962.81950590055 8.420531566087542 0.2176701551286139
0.49770259502580627 13.172361882180088 84778.44372037628 8.845325128659521 0.22080324660988676
0.5162268242422273 13.136740977809032 72061.87627063051 9.288133658338722 0.22396981511440253
0.5351289102462352 13.106153819409954 61380.69527320085 9.749879859807235 0.22717335324494783
0.5544212735163511 13.080089734654132 51908.70488970014 10.231371406959216 0.23041520886772848
0.5740855649758568 13.058077810169397 44813.74601782494 10.733139303469194 0.23369284851221817
0.5941321172954506 13.039763716682144 38400.889337024826 11.256307769139752 0.2370109554176288
0.6145497734212626 13.024693163716096 32966.978490976406 11.801868751310506 0.24037186935501745
0.6353343433983258 13.012578876349838 28350.986983250787 12.370798786823547 0.2437772188453552
0.6564853196937208 13.00312395816098 24423.043167947217 12.963868455508358 0.24722588564831496
0.6780043869421432 12.996081551119765 21074.6194914836 13.582239942729748 0.2507208252995017
0.6998741552802747 12.99112389071565 18212.925837811134 14.227185730776524 0.2542655584157624
0.7220904248950554 12.988035554318602 15765.202568252289 14.899892285948324 0.25786206346129165
0.7446597580544456 12.986665969494762 13666.345608420577 15.601495928286074 0.26151132161007756
0.7675617960721154 12.986745647563481 11864.03601248725 16.33304702782968 0.2652130878563871
0.7907877047975522 12.988104239470848 10314.39099241095 17.09625999647572 0.26897308758026167
0.8143422431029144 12.990615861409196 8979.649389403898 17.892585634046377 0.272793744997686
0.8382055133295288 12.994067762309179 7827.1172811925035 18.72352419328484 0.2766773687925613
0.8623674682564783 12.99831379542459 6832.463999134452 19.59014603068496 0.28062200937310694
0.8868223887784016 13.003246028247226 5971.437405271044 20.494661884736377 0.28463520213988297
0.911563996023705 13.008731872344208 5225.439514702411 21.438860228243104 0.2887199492085532
0.9365642545518592 13.014614925219597 4578.352512644853 22.424396718947232 0.2928775732218226
0.9618229044430585 13.020802267408824 4015.8689313528585 23.452946869439316 0.29710909110196615
0.9873268624512681 13.02718958938989 3526.743207835169 24.52709226720409 0.30142194720000903
1.013051661233662 13.033648083095782 3100.891076648373 25.6489775599747 0.30581930108107713
1.038994936453482 13.040094079974793 2729.605235239625 26.82014964858414 0.31029937073957253
1.0651295548138322 13.046433881978045 2405.485670644904 28.04389339683922 0.3148723585695332
1.0914387196602826 13.052557920522835 2122.2956290975912 29.322500755323816 0.3195403686754915
1.11791824719711 13.058396548377313 1874.384087568167 30.658240063045277 0.3243047764047144
1.1445291157795023 13.063860019424578 1657.1811338790867 32.054837410497214 0.3291759174827262
1.1712750704075579 13.068880363262883 1466.7786505586616 33.51419341670875 0.3341512376609978
1.1981177805031646 13.073366508492654 1299.6695548303833 35.040593607572426 0.33924274200805227
1.225042211761739 13.07723323309873 1152.7956686316272 36.63653494541863 0.3444501742464791
1.2520204343240924 13.080418186049837 1023.5553598963403 38.306442458126845 0.3497842133728013
1.2790463405452608 13.082881407019437 909.7592865037627 40.053168157752594 0.3552451377702232
1.3060741073136661 13.08448531202114 809.5335574755749 41.881876545242285 0.36084572237709356
1.3330963985270226 13.085226648166659 721.0512239690149 43.79563721562032 0.3665856889238316
1.3600898138199067 13.085052159265215 642.8949296624506 45.7998804111174 0.3724769651551351
1.387008684492371 13.083827216326828 573.7530801648737 47.899546709220644 0.37852738620592735
1.4138438831251992 13.08155542148267 512.6503645469669 50.09892531217528 0.38474028623548295
1.4405719253041156 13.078182354499505 458.4919689507963 52.404087379761336 0.3911271194534991
1.4671436880993136 13.073593285472032 410.5037157783227 54.82099440935914 0.3976972899259295
1.4935500459451998 13.06778288139615 367.8650221890702 57.355808504445534 0.40445981211798
1.5197530272648565 13.06068993719075 330.0203013301558 60.01512739288876 0.41142440676082537
1.5457298378743074 13.052253884617668 296.37185563852773 62.8060236183596 0.41860155893978507
1.571442052449733 13.042428826226752 266.47305175131356 65.73608748021961 0.426002580915331
1.5968558506727635 13.031147801695301 239.80245119557551 68.81347410186474 0.43363968023086874
1.6219490100903662 13.018393111998268 216.03555439611893 72.04695505471949 0.4415260337290454
1.6466880860332573 13.004120879627035 194.82655120885096 75.44597501859788 0.44967586817341554
1.6710529961278444 12.988264951229667 175.90107812907075 79.02071401980974 0.45810454825580693
1.6949842142455256 12.970787093405553 158.97758161486797 82.78112377948139 0.4668244355453957
1.7184728104306948 12.951651659142803 143.8272840919366 86.73940095869077 0.4758550288482648
1.7414732506090589 12.930812534605462 130.28240546019856 90.90818394842991 0.48521511272163054
1.7639564747119942 12.908238031412974 118.13335340525218 95.30001388208449 0.49492059474585604
1.7858889996798817 12.883876370239362 107.23250498031422 99.93001648141285 0.5049949128550607
1.8072271177821702 12.857681374798762 97.46668011810407 104.81387804569448 0.5154606506065826
1.827974507734997 12.829695399283684 88.67465904829992 109.96728843190478 0.5263373835017909
1.8480500451741757 12.799774209848835 80.77498246036694 115.40916899158395 0.5376535647908647
1.8674650978290483 12.7679933320906 73.67212346216917 121.1590889772881 0.5494363524391425
1.886153771590486 12.734253826444355 67.2680055598419 127.2382462772953 0.5617149878593081
1.904089914263893 12.698505345511453 61.49576186873745 133.6697455315431 0.5745213957136229
1.9212578664281506 12.660805486578335 56.29373753078968 140.47774009523735 0.5878867456927677
1.9376161217367893 12.621093344301732 51.59176803615936 147.6901386043972 0.6018505114072238
1.9531293248070951 12.579313286406016 47.346241751095974 155.33655385199106 0.6164526504669019
1.967784430644441 12.53552831276363 43.509543844026766 163.44843237073042 0.6317336115882906
1.9815395931436544 12.48966146070251 40.03242780079746 172.06105640750357 0.6477405457873777
1.9943764036346299 12.441746302794618 36.88449340910079 181.212875220598 0.6645242438398316
2.006234417575589 12.391662159631611 34.03486573116308 190.94545482997253 0.6821382042057714
2.0171230032538063 12.339518687468228 31.447940954654072 201.30452818880877 0.700641266358709
2.0270063120691906 12.285279325346151 29.101204990506393 212.34045748857181 0.720098121621504
2.035866862306532 12.228959884753568 26.970785743803937 224.1074551289493 0.7405756498565288
2.0436610086666924 12.170506631516439 25.03362770044808 236.66687891279386 0.7621524573768924
2.0503724759600193 12.109947842652476 23.273656651353722 250.08413962418564 0.784907324515223
2.056000422038812 12.047340968613055 21.67190675011846 264.4332851131643 0.808932550849511
2.0604961186740955 11.982620537784799 20.214602587769722 279.79499328820094 0.8343255590666642
2.063866856203377 11.915889607419729 18.887187175678694 296.25881723676724 0.8611941036643029
2.066088509123251 11.847134783290624 17.678584181227674 313.9224406118849 0.8896513904047392
2.0671438555209973 11.776395043603737 16.57875117107801 332.8970998821781 0.9198310607694209
