M[M_sun], R[km], Lambda[1], P_c[MeV/fm^3], rho_c[fm^-3]
0.24162668629717493 15.618656898711224 2160425.4255784233 3.5677272577965504 0.1711233750220791
0.2536230311853829 15.277841529228649 1723831.6751125508 3.7844473518733888 0.17388353308498067
0.2659974840892916 14.982191542109353 1383985.552859018 4.010618987545435 0.17665720510843447
0.27875030426962827 14.724695933680668 1117630.0564452354 4.246509829674211 0.1794433827893871
0.29187918249047917 14.499783497784097 907135.2423407944 4.492739511721154 0.18224853132800492
0.30538904682892976 14.30277203115685 739898.9539170278 4.749437798892547 0.18506785095483677
0.3192781162159556 14.129791723802107 606256.4397986432 5.017328871451102 0.18790888185869825
0.3335483222035797 13.977671390253041 498819.70024940703 5.29657928898891 0.19076712366503598
0.3481998872156003 13.843723147492252 412063.20511625014 5.5879832836254 0.19365020392072413
0.36323122827175963 13.72567500913113 341621.0302376682 5.89162498340571 0.19655165163647156
0.37865312562534037 13.621633771944463 284196.04033843003 6.208402016223486 0.1994798564992441
0.3944539538100023 13.530053813053051 237183.75432978716 6.5386354025087785 0.20243213230979681
0.41064067790689496 13.449410792959858 198577.69972025577 6.882899492384626 0.2054100308916897
0.4272065965175908 13.378614305259108 166710.5882240579 7.241953856809458 0.20841764301995455
0.44416970870916433 13.316320171023923 140367.8972714876 7.616148089566813 0.21145197318734768
0.4615137934205842 13.26185729330878 118475.55074397626 8.006248939439661 0.21451637709744964
0.479237896583042 13.214352523919302 100261.2238224523 8.413041120832396 0.21761383745174562
0.4973531718587359 13.17308721531098 85043.33923657016 8.837087712471568 0.22074360419710884
0.5158469198709493 13.13739508661342 72292.69045383649 9.27901615629383 0.2239056273315965
0.5347226699910058 13.106748588647768 61594.399774839796 9.739820593474278 0.22710448218295248
0.5539835769638236 13.080636532476595 52581.70731415594 10.220304956305936 0.23034151062341404
0.5736183330264204 13.058551979851623 44977.72958025166 10.721113772797866 0.23361564088026507
0.5936327826243588 13.040165340956992 38545.57293092586 11.2431425887766 0.23692869913247877
0.6140178774771787 13.02503661101018 33097.052345394426 11.787486328740538 0.24028440022924982
0.63477020809455 13.012886249139953 28467.367807800467 12.355116696427169 0.24368436402446056
0.6558878830712839 13.00335979790168 24528.204628093757 12.946958699854385 0.2471292364191685
0.6773719181701792 12.996243946755914 21165.60103937445 13.563862793622993 0.2506185062568081
0.6992074287566579 12.99123978485958 18293.479697460854 14.207242887488713 0.25415736751761525
0.721387548477281 12.988109396952716 15836.648612685909 14.878279141506775 0.25774778661949277
0.7439206048685774 12.986688889809798 13730.146170458522 15.578212452542754 0.2613918351470434
0.7667847960363232 12.986720068567937 11919.957919265114 16.307978338967562 0.2650881267298537
0.7899782481807135 12.988048444932652 10364.825941063837 17.069181323299215 0.26884141316221244
0.8134884723394435 12.990493833357348 9023.830564840335 17.863363160211854 0.2726550864488482
0.8373165841909086 12.993916438880738 7866.872715447267 18.692043550129263 0.2765316891733379
0.8614436153280248 12.998138080567024 6867.515072376549 19.556489560303476 0.28047101401653035
0.8858565298851769 13.00303765333304 6002.939051195797 20.458424142920222 0.2844764027364939
0.9105587080070447 13.008491344726085 5253.713177929742 21.399868584645844 0.28855299828214237
0.9355239075308507 13.014365110699195 4603.098566489525 22.382699884923902 0.29270395595116994
0.9607408375578759 13.020534171236417 4038.127386302925 23.408251104036438 0.29692756831825917
0.9862071080343571 13.026907538579986 3546.685912960192 24.479074218896393 0.3012311942893204
1.011895925102777 13.033356279745748 3118.795217310463 25.597494394839284 0.30561946952099767
1.0377933990966977 13.039794169601022 2745.888433742643 26.765234226637904 0.31009191016405474
1.0638945318499218 13.046136048262733 2419.7318590753366 27.984960899844385 0.31465434163733563
1.090169834047025 13.052272056999055 2134.9143654430973 29.259625262524487 0.3193136236080017
1.1166068454925422 13.05812307508879 1885.7463232788803 30.590943126401573 0.324067382099971
1.1431847654550475 13.063590049016062 1667.5530058667023 31.982669696056593 0.3289263334522585
1.1698933223773558 13.068631758909168 1476.079150397066 33.437384954178306 0.3338923852229863
1.1966936458669664 13.073122288538409 1307.895859919925 34.95824873983053 0.33897044985417396
1.2235843314043968 13.077036642467322 1160.0933330049988 36.548892173327445 0.3441674522305225
1.2505354611120072 13.080252180661034 1030.3044339342287 38.212495928894114 0.3494866113633189
1.2775300719452218 13.082759057823472 915.8147558937158 39.95316227335494 0.3549357529737042
1.3045348836850248 13.08444027937314 814.9224175006625 41.774886219101724 0.3605209509659341
1.3315279316866349 13.08523637003008 725.9126213769578 43.68149730070698 0.366246406067892
1.3584818758497386 13.085069623071933 647.2696027758551 45.67831679276952 0.37212347466614887
1.3853798285996008 13.083928870252347 577.7213601541067 47.76941586369402 0.3781554984040691
1.4121990005535734 13.081747456033787 516.2130530339505 49.960062436915656 0.3843511771560003
1.4388971337727026 13.078430233884722 461.7151049704274 52.25608673135389 0.39072076512402326
1.4654494045527136 13.073921779824591 413.3844892295656 54.66320245820621 0.3972725423716894
1.4918389204145048 13.068204229675032 370.49652989385885 57.18751887261001 0.40401543477049967
1.5180288927485808 13.061204047249033 332.3909039744841 59.83537252463267 0.4109581099803638
1.5439843900718278 13.052865380713154 298.52528042750816 62.6140468415156 0.4181122679795033
1.5696875143927722 13.043147617967586 268.3895592840109 65.5312039617568 0.42548972009691083
1.5950976620282546 13.031985269344771 241.55214649926685 68.59489745174913 0.43310237643326116
1.6201938431994238 13.019357642983787 217.62039805107386 71.81337320362975 0.4409613074832677
1.6448749567312486 13.00519519877575 196.31621589903932 75.20108347827374 0.4664992621216441
1.668781967329601 12.98919189606378 177.49847370885877 78.7809764707333 0.4983914799621307
1.6919210690695343 12.971094244148064 160.80106998863835 82.56466624987743 0.5306897775021684
1.714296714922984 12.950826801742862 145.93518710342184 86.56455019209248 0.5634930558242018
1.7358672139275269 12.928238432226603 132.68381629676483 90.79427111737901 0.5969112169617417
1.756674592111049 12.90339699467099 120.81866490558845 95.26884261516386 0.6310639100427504
1.7766639564315245 12.876141166189681 110.17989261891954 100.00431131840426 0.6660705321961992
1.795856748068904 12.84653942864819 100.63030249509976 105.01725411360108 0.7020412724427421
1.8142290554602447 12.814553887303273 92.03074529878019 110.32696339157681 0.7391190197633377
1.8317622209918698 12.780148662021112 84.27125714539471 115.95398358551519 0.7774459006966944
1.848451449654811 12.743340798748209 77.27682882137378 121.92054448572631 0.817171232387941
1.8642797776020983 12.70416986295997 70.95143442213632 128.25123711013842 0.8584600811760125
1.8792133359834569 12.662562948546869 65.22979083447522 134.97165614704952 0.9014725455011832
1.893250969740146 12.618601758462388 60.05202527183465 142.11211475415428 0.9464125300336642
1.9063712207515071 12.57226311069904 55.35291493924996 149.70373359595712 0.9934726452156177
1.9185150553589356 12.523466861721255 51.09434415383156 157.78113400780285 1.0428689391600034
1.9296964369029506 12.47231017620271 47.22663411741265 166.3827780250866 1.0948410091343526
1.939904298131589 12.418865600876376 43.71272651538653 175.55132348134953 1.1496526053209377
1.9490645723267852 12.362949648429423 40.52006672846461 185.33177322537628 1.2075718662079584
1.9571982506274939 12.304782309970664 37.61207134415309 195.77589694551557 1.2689131118476757
1.9642698230033773 12.244271153563679 34.96940436626032 206.93950919864335 1.3340074671702025
1.9702469292119986 12.181432968722593 32.56231930789792 218.88460618380356 1.4032208701980893
1.9751276028000528 12.116365291371428 30.37312203089484 231.67988933817006 1.476955712137459
1.978878477654923 12.049029804066167 28.376670692914395 245.4014751155619 1.555654013021464
1.9814911080061253 11.979513510964463 26.558009505884137 260.1334510698862 1.6397993789434546
1.9829372341068792 11.907806377296088 24.90345781936135 275.96976791219356 1.729928646542066
1.983217092831928 11.83400675655113 23.39493733285405 293.0142247763959 1.8266286808498293
