M[M_sun], R[km], Lambda[1], P_c[MeV/fm^3], rho_c[fm^-3]
0.24162668629717493 15.618656898711224 2160425.4255784233 3.5677272577965504 0.1711233750220791
0.2536438487977619 15.277280643977432 1723315.8792448211 3.784815307533603 0.17388811947477756
0.2660394382856727 14.981259353069706 1383028.8787719212 4.011392450042647 0.17666655194624695
0.27881411729913647 14.72353092478512 1116431.8765355973 4.247714911143269 0.17945735991840914
0.2919675735049516 14.498481096085692 905966.2757162264 4.494407777215732 0.18226710785147127
0.30550522138610464 14.301180589617998 738664.3908818892 4.751625827433869 0.1850914858389983
0.3194194664370616 14.128163448148705 605096.0915807169 5.0200527203995655 0.18793714284284768
0.33371768944209507 13.975945362831778 497693.0105647572 5.29991059151795 0.1908006643538729
0.3483975999278749 13.842055364320258 411022.8712489793 5.591930295290061 0.19368839234436525
0.3634594973936218 13.724025474850562 340674.96013437014 5.896276286012628 0.19659533765487633
0.37891284599060854 13.62002701637723 283319.9403579154 6.213813806809419 0.19952920551316775
0.39474448838137044 13.528470972788396 236415.0795563768 6.544802000702499 0.20248620504528966
0.41096867597210274 13.44791860552905 197882.84750352034 6.889939820564955 0.20546998928083243
0.4275765769238774 13.377079880130134 166098.59802830176 7.249933871464097 0.20848365963608986
0.4445708645353219 13.314968796516977 139814.01749978238 7.6250456781276466 0.21152280371342258
0.46195167339333976 13.260586823474345 117985.23715791621 8.016219133584157 0.21459350460971308
0.47971540890479325 13.213171154493365 99817.47551541381 8.424161535327782 0.2176974474226966
0.49787177868863125 13.172033493044582 84651.41606552109 8.849317298173837 0.22083215162289319
0.5164103474259705 13.136405834981984 71942.52610410558 9.292552610222929 0.22400092481115688
0.5353280227500415 13.105857276605638 61282.322792654275 9.754755538390205 0.2272067347213739
0.5546324984426286 13.079846151670782 52304.66022582805 10.23673557534347 0.23045093213659876
0.5743147333910108 13.057866050099069 44734.73440619372 10.738968651847733 0.23373027473451452
0.594371435286441 13.039529561904926 38331.4808414565 11.262689928343482 0.23705083126382717
0.6148069466052236 13.024512846216709 32904.06946521693 11.808841401763804 0.2404142747033839
0.6356089484072631 13.012448496845364 28294.77133492846 12.378401958786295 0.24382223779072454
0.656777480653914 13.003045900948871 24372.710935515544 12.972067235488431 0.2472727465126131
0.6783115132149441 12.995977255854807 21030.11103458485 13.591150706586824 0.25077043804532134
0.7001978090558569 12.991056949841171 18173.74361310012 14.236856227646092 0.25431802133324855
0.7224302537760299 12.988001456081651 15731.526070699787 14.910373331731828 0.2579174807012091
0.7450179735090993 12.986652255634429 13635.864873723536 15.612739379905829 0.26156879067668154
0.7679372131246079 12.986766940485017 11837.783654155657 16.34520507651741 0.2652736926797515
0.7911808553453364 12.98813548051846 10289.996720842692 17.109393623143625 0.2690369519593286
0.8147534074606597 12.99066618540741 8957.53290397355 17.906759860992743 0.27286100069104074
0.8386346341933857 12.9941340824208 7808.346134201619 18.73867616707711 0.27674698427229494
0.8628165958651803 12.998396834501595 6815.58396424075 19.60647266795135 0.28069525669784995
0.8872903433920964 13.003339329438434 5956.2617338214695 20.51224171511626 0.28471223968240345
0.9120495669430809 13.008841037385324 5211.761577080332 21.457777156791 0.2888009460184989
0.937069359367428 13.014731775917458 4565.99916895641 22.444571969260764 0.29296136972557946
0.9623452505856485 13.020933378979 4005.043894977618 23.474633493570202 0.29719716692628556
0.9878703283010785 13.027328109373167 3517.074070425698 24.550392274829036 0.30151450706926997
1.0136114128124678 13.033779625725687 3092.1825382493967 25.67380079276916 0.3059150987171157
1.039574372805543 13.040239954886903 2721.847774642981 26.846799406768774 0.31040004872718424
1.0657239965874887 13.046561477315748 2398.665678238321 28.07249434251362 0.31497816590422717
1.0920563680804838 13.052699427711357 2116.1362327149063 29.35295156362206 0.31964997288847363
1.11855241462584 13.05853047986919 1868.8964337955047 30.690904071622565 0.32442000081154576
1.1451824654959877 13.063991971122952 1652.3835398947908 32.089774944291186 0.329296465707285
1.1719442230493742 13.068998872174872 1462.304177083427 33.55147830991701 0.334276891595343
1.1987995598927 13.073456316716014 1295.63713465012 35.08056859680786 0.3393749284602098
1.225744328890193 13.077330293986524 1149.250424347775 36.67908408354301 0.34458743117960333
1.2527390411760546 13.080494011141147 1020.3471437812831 38.35205497883088 0.34992870383913294
1.27977993005629 13.082929439185817 906.8816428400416 40.10172522050455 0.3553953571005112
1.306822906882825 13.084524970712712 806.8678680623426 41.933578734277624 0.3610020259273947
1.3338589381885142 13.085240853788896 718.724204138572 43.85106380194069 0.36675044540289536
1.3608664730387963 13.085034703497033 640.7290887511745 45.858915324113994 0.3726486306628425
1.3877960896388581 13.083780170116551 571.9054264125745 47.96244193267147 0.3787064063148883
1.4146531373876 13.081487232035835 510.913362736141 50.16637001488119 0.3849292737250248
1.4413752754333091 13.078038673640409 456.96840474193357 52.475974561569416 0.3913244947209446
1.4679696781836407 13.07344342174075 409.0940920335595 54.897642152006576 0.3979036118643405
1.4943784975342815 13.067579419318967 366.59734460663003 57.437560643560744 0.4046756828067124
1.5205881579090454 13.060440187481476 328.8913692378141 60.10235582269561 0.4116504750100576
1.5465721065021403 13.051955530514782 295.3432431182184 62.89913082623746 0.41883852418618545
1.5722887234181089 13.042079327192317 265.51828296356393 65.83550933670227 0.42625119750651475
1.5977120071417752 13.030754311629527 238.96673326118508 68.9196829347772 0.4339007621407303
1.6227991245360547 13.017938094825208 215.28262315028988 72.16046303967319 0.4418004597510572
1.647551237528828 13.003601181239622 194.13750700765695 75.56733792206218 0.4499645876446608
1.6719026275645825 12.987670348106302 175.27223410922895 79.15027403822889 0.45840749618373466
1.6958373268474904 12.970130838340925 158.39656555970342 82.9193966074842 0.4671421861014303
1.7193179298509118 12.950922050957189 143.30510798275404 86.88746963428545 0.47619033154731233
1.7423041708258973 12.92998699752933 129.80105623687794 91.06611012671618 0.4855664403377809
1.7647841098621229 12.907345193438895 117.70599231905422 95.4693175855072 0.49529208487484544
1.786712316939079 12.882914097744738 106.84859826747866 100.11084508638996 0.5053851331395743
1.8080504360218153 12.85666388784235 97.10242928760275 105.00716847352551 0.5158711032352344
1.8287613576240875 12.828536454029049 88.33803562320689 110.17482287377835 0.5267725239498202
1.8488439068428715 12.798576657481656 80.48012179535553 115.63138630874418 0.5381125890868168
1.8682294010547096 12.766676355372686 73.39244096270322 121.39715350334421 0.5499209645732767
1.886901179970258 12.73283275239966 67.02274930252156 127.49349341245194 0.5622272668229149
1.9048243972765877 12.697024971872583 61.26803875646442 133.94288784817815 0.5750609569815943
1.9219689381141645 12.659216300035926 56.08490496380366 140.77090354606528 0.5884579395794065
1.9382842613776723 12.61933590169612 51.40313613498689 148.0052657289442 0.602456674109842
1.953783730452067 12.577500291623334 47.17192127484444 155.67453427705982 0.6170931572047247
1.9684017821517599 12.533581037897289 43.34636017249784 163.81227313647292 0.6324147277667463
1.9821196634962475 12.487590583259637 39.8871233604913 172.4521736997365 0.6484627011036057
1.994912727350578 12.439522408498277 36.752751392981985 181.6336465000544 0.6652906845596855
2.0067507341282176 12.389371573435895 33.90958988132889 191.39860983879788 0.6829528463999136
2.0176009687950662 12.337108603060864 31.33318881813826 201.7930779797739 0.7015083940462091
2.027441109368966 12.282731524764783 28.997176230834217 212.8670524397968 0.721020217332459
2.0362522236317693 12.226277842671058 26.874167194221602 224.67584736650812 0.7415581293706492
2.0440032798929764 12.16769253271485 24.947594263596507 237.2807498070221 0.7631997218559997
2.050666093331553 12.106997916622552 23.191903743141726 250.7485206210856 0.7860273075666463
2.0562426801720926 12.04426270309644 21.597404497504847 265.1521666410689 0.8101288114780807
2.0606938523377902 11.979424034782486 20.14568664056358 280.5735871286552 0.83560452018665
2.064004189927193 11.912537497969925 18.824710498703592 297.10226469872686 0.8625606828866124
2.066169650283693 11.843649155915285 17.621739767252166 314.8386139603461 0.8911180037381966
2.0671662832730497 11.772769269485666 16.525980275717817 333.892061509139 0.9214025231822317
