M[M_sun], R[km], Lambda[1], P_c[MeV/fm^3], rho_c[fm^-3]
0.24162668629717493 15.618656898711224 2160425.4255784233 3.5677272577965504 0.1711233750220791
0.2536449874665693 15.277257634784785 1723107.9759951022 3.784856929056372 0.17388863826697998
0.26604350779835095 14.981180414639843 1382901.858039332 4.011479947428862 0.17666760930052192
0.27882182005405104 14.723381407849983 1093905.9311551298 4.247851245222959 0.17945894118828246
0.2919784514816758 14.498254941079303 905752.7555853707 4.494596526178491 0.18226920961497792
0.3055158765516426 14.30109314524371 738540.6743849498 4.7518734009654064 0.1850941601056401
0.31943558401069877 14.127972438705156 604978.3127852832 5.020360942898385 0.1879403407702359
0.33373649539472255 13.975763244034894 497578.3076200518 5.300287578550928 0.19080445998776038
0.3484199882693785 13.841867358780755 410907.37384533044 5.592376988828264 0.1936927142272285
0.36348577461038195 13.723820479251978 340571.0973300493 5.89680272272122 0.1966002820598493
0.37894176039020994 13.61985600501102 283224.17367436277 6.214426358351163 0.1995347912456684
0.39477780123914796 13.528302571471023 236338.88468009548 6.545500031816363 0.2024923258351644
0.4110059159668513 13.44772072691338 197801.57437285886 6.890736808093384 0.20547677676106738
0.4276172546079756 13.37692303410543 166019.3962750946 7.250837295465634 0.20849113343132683
0.44461611237047305 13.314811643042827 139748.7412012753 7.626053042299799 0.21153082297996595
0.46199966470632814 13.260431436583682 117929.78947484455 8.017348010587996 0.21460223738599563
0.47976930702504655 13.213060383641283 99766.56720691871 8.425420729436498 0.21770691480207305
0.49793027392787015 13.171896507744993 84607.44780519212 8.850702167093011 0.22084217866557698
0.5164735015430026 13.136306184816466 71909.14437403291 9.294085567838506 0.2240117169283393
0.5353960271238538 13.10575263533459 61245.737913185534 9.756446980301465 0.22721831522803076
0.5547061705030976 13.079752031189559 52279.14229559246 10.238587788737217 0.230463212981595
0.5743927705596581 13.0577925971854 44707.04163842279 10.740991031501158 0.23374325903834434
0.5944541121178417 13.039465955299617 38309.426270056625 11.264904151175232 0.2370646657681492
0.6148964676172247 13.024455305577073 32884.49703068208 11.811260550587859 0.24042898716449485
0.6357046647275996 13.01239600191413 28044.742408920094 12.381039932715842 0.24383785743010689
0.6568791857615738 13.00300335163275 24356.0524522462 12.974911920381953 0.24728900556494654
0.6784162933791081 12.995953737834371 21014.683962027993 13.59424250245573 0.25078765233637773
0.7003101165538257 12.991043761153271 18161.139797906577 14.240211715100807 0.25433622501645503
0.7225492429299233 12.988003865728011 15718.820912500383 14.91401015683961 0.25793670996646556
0.7451420299295883 12.986643341820916 13625.151263324562 15.616640834248146 0.2615887323233425
0.7680679339704437 12.986755269980602 11828.223638765343 16.34942400070344 0.2652947229586761
0.7913184801110954 12.988138282169713 10214.099122721977 17.113951194877117 0.26905911388734527
0.8148968269647934 12.990687774831976 8950.074143008918 17.91167866219134 0.2728843400510169
0.838786239776679 12.994139471410497 7802.1599494115435 18.74393437945547 0.27677114303750133
0.8629710223607596 12.998428429645738 6809.184087796743 19.61213867037032 0.28072067647734317
0.8874567784554426 13.003384058054724 5950.861548635612 20.518342782897637 0.2847389755074069
0.912218875300248 13.008886333890334 5207.4148044853 21.46434243321599 0.28882905663093206
0.937244613378517 13.014779234211938 4562.194676842293 22.451574103428214 0.29299045260450046
0.9625319769930809 13.020988476328343 4001.382649593026 23.48216037002055 0.2972277358080033
0.9880588618321287 13.027366811720947 3513.79121005379 24.5584793284689 0.30154663309427654
1.0138062322554235 13.03383037608861 3089.6883463722834 25.68241671658492 0.305948349226454
1.0397760584040532 13.040287200937579 2719.2538318711363 26.856049548152644 0.3104349940956638
1.0659322533514588 13.046612232131393 2396.348077555378 28.08242200922766 0.31501489266028276
1.0922688600387518 13.05273780072169 2113.809971186686 29.363521566314997 0.3196880184081535
1.1187724453422732 13.058576574529285 1866.8032748578812 30.702242625383565 0.32445999829465766
1.1454100765993653 13.064036550934627 1650.5843689603676 32.101845037998025 0.32933793736040523
1.1721769100438235 13.069039148147901 1460.8507990260848 33.564421547365136 0.33432051164004684
1.199036698083389 13.073492243401434 1294.340783769623 35.09444607899078 0.33942081753159475
1.225613257248094 13.077186558902737 1149.7062892541458 36.686626277990705 0.4399176092666942
1.2337900133656972 13.064918890903332 1098.5629896517023 39.01509409032373 1.2396626565424278
