M[M_sun], R[km], Lambda[1], P_c[MeV/fm^3], rho_c[fm^-3]
0.24162668629717493 15.618656898711224 2160425.4255784233 3.5677272577965504 0.1711233750220791
0.2536420637892264 15.277343848847396 1723368.0666355782 3.784804020561712 0.17388797878811796
0.2660380627733223 14.98129073573191 1383069.9597099568 4.0113687226372265 0.1766662652145554
0.27881161755112466 14.723599135666714 1116499.8479977986 4.247677940633249 0.17945693111620625
0.29196492147512476 14.498511859046484 905990.164525293 4.494356593533059 0.1822665379092856
0.30550020061961386 14.301303863097957 738738.6381749447 4.751558692733164 0.1850907606561022
0.31941509092834464 14.128213813208987 605143.7025534391 5.019969140220912 0.18793627566623516
0.33371138639979825 13.976061205519365 497727.1725032144 5.299808365519191 0.19079963510768902
0.34839182018042797 13.8420579333649 411034.81462182506 5.59180916831179 0.1936872204075296
0.36345339922628217 13.724044135837698 340680.8752386501 5.896133536885378 0.19659399692486426
0.3789050529758995 13.620070128766313 283336.65221348545 6.213647708180919 0.19952769089367162
0.39473517859128066 13.528531246011799 236441.806435496 6.544612725098901 0.20248454535394492
0.4109589600494952 13.447944936957448 197906.6580365656 6.889723714192704 0.20546814882828082
0.42756510479662185 13.3771435792192 166108.49576816498 7.249688906551109 0.20848163310414383
0.44455839136556635 13.315008458455605 139833.49462764035 7.624772531798773 0.2115206292930122
0.46193788116924595 13.260632098808587 118002.20806075862 8.01591304173333 0.2145911367417823
0.47970113578254925 13.213217104177915 99830.87668270973 8.423820111273312 0.21769488039110904
0.4978559013699858 13.172085698835163 84663.70791802662 8.848941800854039 0.2208294328618602
0.5163919817789653 13.13645778230945 71954.77302240132 9.292136963213064 0.22399799863029485
0.5353092678672262 13.105878741364508 61292.06187929494 9.754296923709896 0.22720359480251362
0.5546135141290024 13.07986394019141 52314.20109823361 10.236231003789495 0.23044757188688328
0.5742934393056592 13.057874957735569 44339.93521550047 10.738420315809465 0.2337267542472956
0.5943487037412993 13.039548698264156 38336.4908657282 11.262089582066885 0.23704708028942695
0.6147825109814326 13.024529363762149 32910.97389122773 11.808185498968225 0.24041028572003711
0.6355825948595563 13.012446302982717 28302.382328186555 12.377686731959681 0.2438180028796122
0.6567525715208165 13.003046687334955 24377.73717798668 12.97129596904717 0.24726833826990754
0.6782815376966219 12.995988899793906 21034.347489190746 13.590312448988938 0.25076577085159896
0.7001678288900509 12.99106080038109 18041.950015424136 14.235946484652306 0.25431308593310725
0.7223996141538179 12.988003980787651 15735.027898112212 14.909387320354579 0.2579122672873778
0.7449842638612538 12.986649133141487 13638.743434303255 15.611681629824666 0.2615633841599
0.7679021144728896 12.986751222931556 11758.392609669843 16.344061264465317 0.2652679910635498
0.7911440521127483 12.988132028030282 10293.518389234086 17.10815800903741 0.2690309435863441
0.8147162044138798 12.990661191771297 8959.647102620596 17.905426324208484 0.27285467315435186
0.838596297724802 12.994122961034966 7809.92419157434 18.737250622185783 0.27674043463111603
0.8627748226227652 12.99838730480381 6817.190878095287 19.60493658065808 0.2806883652429246
0.8872454945587417 13.003346273412056 5957.267045223535 20.510587692903023 0.2847049915006048
0.9120038548993712 13.008825711987368 5213.139419921014 21.455997300944457 0.2887933251911871
0.9370213224514806 13.014713467116744 4567.013838312903 22.44267369368237 0.292953485369541
0.9622970973731922 13.020916162406552 4006.316957365568 23.472592978026547 0.29718887978636654
0.9878188825721467 13.02731672087415 3517.9901047332837 24.54819991567206 0.3015057978671011
1.0135577104655942 13.03377622158004 3093.4925424232456 25.67146507588246 0.30590608473581626
1.0395201406669616 13.040230764802104 2722.582794976716 26.844291779828723 0.310390575364152
1.0656681716525254 13.04654680565882 2399.29844386763 28.069803068519676 0.31496820971146794
1.0919955047061067 13.052685927044978 2116.5131261326537 29.350086180352857 0.3196396592680588
1.118493059271235 13.058523303977369 1869.4015250875823 30.687830372263235 0.32440915813788496
1.1451208295742594 13.063980155900968 1652.7938776311682 32.086502960099835 0.32928522349188094
1.1718816274443526 13.068986802638612 1462.795865495177 33.54796966440406 0.33426506709820786
1.1987349310213766 13.073442403781325 1296.0178310849917 35.076806731668846 0.339362488992039
1.225678041493071 13.077314948302801 1149.60069431778 36.67507991462069 0.34457451435049197
1.2526712552396346 13.080480608481247 1020.6423336473875 38.3477624405497 0.34991510601887615
1.2797095101735345 13.082932059496182 907.1513590208028 40.09715550178811 0.35538121991744687
1.3067520716456718 13.084522696183845 807.123816484118 41.92871294764558 0.3609873159172426
1.333786818978565 13.085229246970044 718.8823354601907 43.8458473995447 0.3667349395572498
1.3607932770630689 13.085036295028672 640.9339690823577 45.85335923510596 0.37263247431074475
1.3877231019886689 13.083782956907932 572.0855428117328 47.95652242784352 0.3786895574932902
1.4145769642185215 13.081497246628986 511.0622205447995 50.160022192159914 0.38491148642621525
1.4412995988428656 13.07805203831277 457.08726186320746 52.469208496994156 0.3913059176426463
1.4678917250682593 13.073458909560472 409.2185690776354 54.890427889481224 0.39788419236707906
1.4942989178754384 13.06759874226412 366.7157505467512 57.42986580066751 0.4046553641819886
1.520510613472555 13.060463224858713 329.00377844714626 60.09414537347644 0.41162919614622273
1.546492895891248 13.05198359169172 295.4393130586157 62.89036686230103 0.4188162192012012
1.5722090747229025 13.042112128742549 265.60852923658865 65.8261508042468 0.4262277953440539
1.5976303545398425 13.030794628595508 239.03452835024083 68.90968534481861 0.43387618612563983
1.6227185692843307 13.017949491348496 215.25003068295703 72.1497781484413 0.4417746270997456
1.6474710708204683 13.003653287599814 194.2029761531226 75.5559133781467 0.4499374089254283
1.6718194323972797 12.987729693197762 175.32560610530788 79.13811263905258 0.4583791237785918
1.6957577392726708 12.97019007436704 158.44601938978846 82.90637971517678 0.4671122733208192
1.7192227999403975 12.95095384105038 143.35862315266868 86.87353025030836 0.4761587657009116
1.7422255814031524 12.930065521440383 129.84636207331943 91.05124244856923 0.48553336522649954
1.7647061806892228 12.90742839969245 117.74483168259685 95.45337840753501 0.49525711075932893
1.7866344369610634 12.883004947619892 106.87929413416734 100.09382053051593 0.5053483948865877
1.807974717079174 12.856762841492296 97.1391148644197 104.98897027033213 0.5158324593126083
1.8286881322183843 12.828642857935842 88.38031568199261 110.15533448354167 0.5267317458645011
1.8487685773606781 12.798690991561735 80.50800719242962 115.61046362162881 0.5380693700351007
1.8681578112615738 12.766800533410267 73.42219780018118 121.37473819595083 0.5498753352217175
1.8868315621761322 12.732967046747032 67.04531809944949 127.4694596544485 0.5621790312623707
1.9047572508287463 12.697166659768405 61.291955889532126 133.91718628151725 0.5750102141087401
1.921903497960615 12.659369726535171 56.10478336394583 140.74329828046777 0.5884041540242706
1.9382204762280624 12.619498569017662 51.41950019988777 147.97559147622363 0.6023995942083479
1.9537242179836385 12.577679327461832 47.19248650532122 155.6427072167709 0.6170328417395435
1.9683439465406343 12.533765239917233 43.36176954160761 163.7781004266672 0.6323508928608342
1.9820676257358507 12.48778881644754 39.899439394717405 172.41534074785494 0.648394693085188
1.994861029299464 12.439729645768887 36.76565077410121 181.5940198012112 0.6652185039782874
2.0066960299548597 12.389577202013623 33.920855446443824 191.35593210412713 0.6828761241244536
2.0175588186045483 12.337335891460091 31.346169344354696 201.74706539229845 0.7014267262422077
2.027399758455808 12.282972644132176 29.006197972501198 212.81750758505666 0.7209335415732657
2.036218436473846 12.226528377224264 26.884151666528396 224.62231174633723 0.7414655917766816
2.0439705846848235 12.167957028089008 24.954574804021654 237.22296264750943 0.7631011894406118
2.0506388933146593 12.107275236550596 23.19998330149334 250.68594741883047 0.7859218364250214
2.056213753616075 12.044529739773536 21.604410845280977 265.0844499191047 0.8100161269184737
2.0606775957542456 11.979725222872798 20.152127627715878 280.5003524470417 0.835484398263581
2.0639978536608146 11.912866272177274 18.83131073748351 297.0228110587132 0.8624319537531985
2.0661627605037305 11.843975888371668 17.627415894540867 314.75230346771593 0.8909798376154631
2.067164734311391 11.77311034739487 16.531383044637142 333.7983250002581 0.9212544738540738
