M[M_sun], R[km], Lambda[1], P_c[MeV/fm^3], rho_c[fm^-3]
0.24162668629717493 15.618656898711224 2160425.4255784233 3.5677272577965504 0.1711233750220791
0.2536422322129721 15.27736359497225 1723230.2989197464 3.7848068006052884 0.17388801344002
0.26603773030791344 14.981341687749575 1383058.0611062823 4.011374566819047 0.1766663358380437
0.2788119822830748 14.723605701406361 1116466.8881105238 4.24768704664572 0.17945703673222846
0.29196617637881583 14.498501413304663 905971.7776945392 4.494369200298639 0.1822666782885462
0.3055008149404994 14.301269967562954 738762.6099463262 4.751575228279295 0.18509093927155895
0.3194155793454233 14.12820563865937 605151.0065383125 5.019989726324622 0.18793648925500667
0.3337132681641319 13.976049499491491 497745.2454767935 5.299833544119223 0.1907998886144125
0.34839288637653454 13.84209254502682 411043.0256707519 5.591839002244021 0.19368750905903095
0.36345554189899687 13.7240250697913 340685.61786465725 5.896168696365734 0.1965943271501443
0.3789072146875001 13.620061289891229 283333.1138348611 6.2136886186451346 0.19952806394784584
0.3947376897517556 13.52852279984575 236434.35304340077 6.544659344042702 0.20248495413910295
0.410961757261001 13.44791498674014 197891.4717568993 6.889776941531127 0.2054686021346308
0.42756775063161806 13.377111573246074 166107.40089682373 7.249749241708771 0.2084821322414406
0.4445613941116216 13.314985016489363 139819.30233728443 7.624839807989148 0.21152116485474606
0.4619416543575118 13.260616277585674 118002.55015452765 8.015988432331884 0.2145917199490128
0.4797050990692628 13.21319762605866 99831.10599662883 8.42390420409843 0.21769551265159431
0.4978604507075445 13.17202292225762 84659.65460502979 8.849034285820856 0.22083010249253573
0.5163966946013088 13.136439903928851 71952.90991731393 9.292239336907356 0.22399871934748491
0.5353132696850647 13.105883806921897 61289.4852295005 9.754409880171892 0.2272043681622438
0.554617714382768 13.079841860389882 52310.192569575716 10.236355279228636 0.23044839951282794
0.5742985582565245 13.057867444151201 44738.91986925092 10.738555370238549 0.23372762133856495
0.5943538266187602 13.03956701308422 38336.42023082197 11.262237446350369 0.23704800414814595
0.6147882045855745 13.024527348527648 32908.88053554799 11.808347046513997 0.24041126819865155
0.6355885109038727 13.012445595723895 28301.646748865136 12.377862890660866 0.24381904592835343
0.6567592148942314 13.003043076886133 24377.140893455136 12.971485929961997 0.24726942400859955
0.6782890815456423 12.995984143914765 21033.54526013121 13.590518909377245 0.250766920367727
0.7001753663091657 12.99107503363661 18040.98354355213 14.236170551386541 0.2543143015060761
0.7224063964037916 12.988012182316753 15734.16594368332 14.909630171420254 0.25791355133250543
0.744992097439054 12.98665684022955 13638.158349814898 15.611942149589298 0.2615647157641272
0.7679106548375849 12.986759228863047 11757.414217696458 16.34434298058688 0.26526939534775895
0.7911537596705522 12.988127652242968 10292.014247191353 17.10846233521487 0.2690324234214916
0.8147242299472982 12.990670011126793 8958.832005139848 17.90575476786001 0.2728562315959935
0.8386057382696455 12.994123454151811 7809.96714961312 18.73760172660447 0.2767420477742536
0.8627835898347188 12.998391223712108 6774.2875615860485 19.605314910596274 0.28069006257075707
0.8872569974617117 13.003335077514086 5956.907100550403 20.51099506901913 0.28470677668591027
0.9120153010110073 13.008839828570176 5213.035679561649 21.45643566856115 0.2887952021543762
0.9370335447248791 13.014717463002183 4566.820792502288 22.443141226839423 0.2929554272361024
0.9623091957282347 13.020925686259995 4005.8672253301506 23.473095543288363 0.29719092085322146
0.9878328208516121 13.027311308927395 3517.810460580268 24.548739878247325 0.3015079428820803
1.0135716346268673 13.03377149596306 3093.223872354593 25.672040345809062 0.30590830481325376
1.0395330875765907 13.040232661114901 2722.4821410233667 26.844909389072356 0.3103929085806618
1.065682527373059 13.046555764735714 2399.2252272424435 28.070465907681477 0.314970661841752
1.092010622055184 13.052683372972629 2116.4606181975696 29.350791900419626 0.31964219942698485
1.1185077839706548 13.058520816251292 1869.2692395891306 30.68858739775752 0.32441182859437007
1.1451349352424416 13.063980071962767 1652.7427689404446 32.087308820483486 0.32928799234878514
1.1718971936744789 13.068989974151483 1462.7147204673179 33.54883381107692 0.33426797936159264
1.1987502832559354 13.073446905442713 1295.910134127867 35.0777332425922 0.33936555271248486
1.2256946342985586 13.077317890489894 1149.5337029240952 36.67606610141646 0.3445776956364367
1.2526880398898803 13.08048867466514 1020.5729513668019 38.34881964822134 0.3499184550210169
1.2797275095566587 13.082932819719783 907.0585758354487 40.098280974715905 0.3553847017546893
1.3067699144379807 13.084517411290221 807.0815322631609 41.92991133741274 0.360990938831064
1.3338054636003895 13.085234011292302 718.8681717613738 43.84713214007742 0.3667387584705319
1.3608119883926766 13.085037460029014 640.8878126895621 45.85472763478104 0.37263645343111684
1.3877414468728995 13.083778956766642 572.037608061152 47.95798033062319 0.3786937071552224
1.4145962906697918 13.081494569497327 511.0338575679148 50.1615855818796 0.38491586721649895
1.441318361373268 13.078047683281548 457.07434526423924 52.4708748921529 0.3913104929394079
1.4679104895389625 13.073455921110744 409.1768053701643 54.89220466753415 0.39788897513405097
1.4943194945840783 13.067593739240648 366.68765948795823 57.4317609365965 0.4046603683849692
1.5205301708915346 13.060455865167613 328.9806623127787 60.09616749328228 0.4116344368353565
1.5465124092318099 13.05197657986642 295.4172224819578 62.892525301833686 0.4188217126014154
1.572229387019387 13.042101236158736 265.58634418522706 65.82845567396514 0.4262335589545192
1.5976515518232672 13.03078282240013 239.0287141883213 68.91214760115005 0.43388223882924226
1.6227324311481108 13.017943123454138 215.3355428903519 72.1524096724862 0.44178098928365506
1.6474913299292424 13.003640497214965 194.18479345178707 75.558727062571 0.4499441026139941
1.671839197809657 12.987714597068695 175.3065927508441 79.14110779502101 0.45838611144319935
1.6957772176859423 12.970174778881669 158.4349435305799 82.90958555967396 0.4671196403421368
1.7192418199673845 12.950939359727593 143.34626119098527 86.87696328304926 0.4761665398309855
1.7422449590438565 12.930045557801012 129.83922691339612 91.05490409864488 0.4855415110501129
1.7647255901242922 12.907407688930912 117.73338776162807 95.45730394196228 0.4952657242583916
1.7866517371246629 12.882984300938698 106.86747767836378 100.09801336715343 0.5053574428461504
1.8079930964903865 12.856739213781847 97.12792008027584 104.9934521471527 0.5158419765874313
1.8287054717267945 12.828616883202825 88.37274029049034 110.16014807072777 0.5267418407194545
1.8487867802850844 12.798663900928204 80.50004401116726 115.61561646796487 0.5380800140375205
1.8681755816471333 12.766772848875858 73.4157514026472 121.3802586349016 0.549886572812406
1.8868488182490772 12.73293395001567 67.03981798960962 127.47537867368204 0.5621909106867438
1.9047739938561519 12.697131617234454 61.286319628056084 133.9235160364982 0.575022711010444
1.9219196172738109 12.659332173047705 56.10040813068269 140.7500968623025 0.5884174002470547
1.9382367061685295 12.61945763677323 51.41561952971077 147.9828995893056 0.6024136517274623
1.9537480471526054 12.577666402863448 47.18423025080117 155.65054550330092 0.6170476960771415
1.968357786046821 12.533720413596248 43.35857550210841 163.7865163764018 0.6323666139248799
1.9820796850598181 12.487737339887845 39.89808987246216 172.4244118323671 0.6484114418509279
1.9948747141046979 12.439677703387249 36.76084810394526 181.60377889785346 0.6652362803081389
2.006707482284125 12.389519760960342 33.91896723752174 191.3664425728344 0.6828950189201027
2.0175680472182 12.337280559962993 31.342491340673053 201.75839712555532 0.7014468389509553
2.027410010462404 12.282913505830537 29.00379002029043 212.8297091984167 0.7209548875658398
2.0362273070140917 12.226466047122777 26.881929772013425 224.63549614783804 0.7414883813285518
2.0439784411215944 12.167891558186245 24.95286684585304 237.23719405506077 0.7631254552978062
2.0506455818595164 12.10720729504416 23.19734816399461 250.7013595153928 0.7859478177360921
2.0562201343831426 12.044458856962136 21.602725329346946 265.1011266173327 0.8100438779132207
2.0606807628138273 11.979650763397853 20.15056920366698 280.51838801433144 0.8355139807916777
2.0639995602251764 11.912789883626202 18.829532701701922 297.04237811731076 0.8624636558941738
2.066163530777293 11.843895524317434 17.625642546557895 314.77355910013426 0.8910138637023037
2.067165474465644 11.773024794070915 16.52984799414514 333.82140936446774 0.9212909337633769
