M[M_sun], R[km], Lambda[1], P_c[MeV/fm^3], rho_c[fm^-3]
0.24162668629717493 15.618656898711224 2160425.4255784233 3.5677272577965504 0.1711233750220791
0.25364427796640926 15.277251735019993 1723134.8201657336 3.784824601429995 0.17388823531871256
0.266040344248286 14.981252910301333 1382993.7724374193 4.011411987691933 0.17666678804720823
0.2788162695556223 14.72346528754047 1116409.8925558599 4.247745353559432 0.17945771300456087
0.2919707243089694 14.498396740909115 905870.4676837217 4.4944499232566475 0.18226757715741845
0.30550605682564314 14.301204175384523 738631.8054970198 4.751681108181825 0.1850920829765811
0.31942340119789503 14.128093812795905 605123.7405744687 5.020121543092269 0.1879378569048476
0.333721934585625 13.975931598085005 497677.9442883308 5.299994768099863 0.19080151187237857
0.348402601475971 13.842014143405278 410998.522263872 5.592030035955462 0.1936893573627407
0.36346432467327505 13.72399434147258 340638.1903929547 5.896393831608863 0.19659644166799145
0.3789196672756872 13.619983724627314 283291.81101991184 6.21395057983686 0.19953045271849257
0.39475108825452726 13.528446993652247 236399.68875625383 6.544957859181807 0.20248757171359869
0.4109769207652762 13.447876815654226 197857.04192319242 6.890117773374898 0.2054715048016369
0.42758667144091383 13.377025071444637 164065.70123300466 7.250135588526218 0.20848532838964912
0.44458081087683754 13.314912727935628 139794.3822005767 7.625270601941045 0.21152459425160275
0.4619625596159791 13.26055930313252 117974.98245506131 8.016471187405923 0.2145954544498012
0.4797274925364088 13.213142978369854 99807.17979569845 8.424442684673677 0.21769956127273812
0.4978849141672356 13.171975838691491 84639.93614592034 8.849626506422748 0.22083439042272984
0.5164237287163558 13.136401118373325 71935.16985292565 9.292894881388591 0.22400333442150125
0.5353431517910154 13.105845699723272 61275.28244656231 9.755133193204077 0.22720932034613403
0.5546482415706581 13.079813571679455 52298.58721881531 10.237151075556268 0.23045369920592884
0.5743317822021957 13.057838112063342 44728.11716844389 10.739420192122234 0.2337331737629465
0.5943887770637447 13.039523794612393 38324.88047668043 11.263184299274979 0.23705392010235343
0.6148267987846984 13.0245185037737 32900.867360424854 11.809381523914201 0.2404175595472322
0.6356314823749768 13.012431098466715 28290.5105105995 12.378990934926389 0.2438257251621538
0.656802319157229 13.003011390176287 24369.58366622674 12.972702360942993 0.24727637662926594
0.6783344900500359 12.995979887509717 21027.282228635555 13.591841000391556 0.2507742814162853
0.700224153307546 12.99106256497003 18172.248772912 14.23760539111426 0.25432208558162633
0.7224579724454566 12.98800228427731 15728.683433361384 14.911185303996046 0.2579217739046453
0.7450452333185792 12.986656303105788 13633.461870448791 15.613610430720744 0.26157324291065653
0.7679659682457918 12.986755424192644 11835.661280238879 16.346147001876183 0.26527838794142194
0.7912119932943491 12.988136894413195 10288.2526480939 17.11041115046642 0.26904189985013566
0.8147870929207707 12.990667334022392 8956.159815833422 17.907858031125706 0.2728662114297987
0.838668980745969 12.994135285959208 7807.065469509662 18.73985010917153 0.27675237792880486
0.8628511438732765 12.998400637465833 6814.352346887897 19.607737646286218 0.28070093185785844
0.8873314420545405 13.003355904440243 5955.097312338645 20.513603818116355 0.28471820862894726
0.912087375305265 13.00885788595972 5210.892387410478 21.45924288980691 0.2888072218628158
0.9371072114411148 13.014741372554084 4564.974414803822 22.44613522654422 0.2929678626063512
0.9623918577642337 13.020950976259877 4004.2871431879753 23.47631389310116 0.29720399152807614
0.9879130414536841 13.02734007383402 3516.400296830392 24.5521977262275 0.30152167927058804
1.0136552490245367 13.033789617546514 3075.078447534745 25.67572430732816 0.3059225219302469
1.0396196554904724 13.040251077044596 2721.247729581613 26.84886450007935 0.31040785027785117
1.065770696856125 13.046576158736647 2398.162413688839 28.074710681354727 0.3149863651053384
1.092103230899045 13.052709544406753 2115.6055461554993 29.355311292842217 0.3196584664647851
1.1186011094916515 13.058540363519482 1868.5187902084551 30.693435364242898 0.3244289301102876
1.1452332764944693 13.063995020839743 1652.001547710306 32.09246953864402 0.32930572406807446
1.1719960162344472 13.069007217246961 1461.9575036617114 33.55436781351419 0.3342866295203858
1.1988522003587305 13.073463920931134 1295.4135142674306 35.08366664762084 0.3393851728743648
1.2257987041231901 13.077333765925102 1148.9851798990594 36.68238169121186 0.34459806875148435
1.2527948382779683 13.080497487849449 1020.128847192951 38.355573324717824 0.3499398039647787
1.2798374360127036 13.082939631076684 906.6374646110614 40.10548860841622 0.3554069997654432
1.306880682551414 13.08452564590633 806.6784214006063 41.93758596101865 0.361014140380925
1.3339197058825383 13.085229726166181 718.5416677461163 43.8553597954129 0.36676321531721895
1.3609266455066598 13.085032337416806 640.5645306739483 45.86349108273313 0.3726619363473371
1.3878578553607837 13.083773115882865 571.7672646353341 47.96731700093752 0.37872028233287974
1.4147148603393898 13.081480703759812 510.7726896933643 50.171597849736486 0.38494392269440864
1.4414377221680095 13.078030450560824 456.83088007383947 52.48154686393009 0.39133979417546577
1.4680334064561467 13.07342954397082 408.9896895210478 54.903583595518626 0.3979196051617296
1.4944419199099939 13.067564718056914 366.4976831442227 57.44389790047325 0.404692416656483
1.5206539309631069 13.060419658432014 328.8089893018737 60.10911774280174 0.4116679997487606
1.546637718931621 13.051932130671014 295.26666316479674 62.90634863367091 0.4188568940799447
1.572354825553589 13.042049287902476 265.44774000253756 65.84321684657635 0.4262704710837663
1.5977780563434334 13.030722958588775 238.89896180613124 68.9279167918986 0.4339210025584417
1.6228656631174327 13.017898038304331 215.2151743547945 72.16926298183319 0.4418217351980831
1.6476168174103398 13.003561597393668 194.08271440680042 75.57674707072081 0.4499869717863387
1.6719660637761453 12.987626017242627 175.21838885039378 79.16029008844136 0.4584308635142893
1.6959032064743598 12.97007386519347 158.348123272919 82.93011728161663 0.467166822179363
1.7193831155331851 12.950864823416465 143.2630135774862 86.89895011952338 0.47621632919787
1.74236432736506 12.929916878252252 129.7738724929325 91.0783552017255 0.4855936811224265
1.7648487270592128 12.907277305700662 117.66905952284132 95.48244521151335 0.49532088981755934
1.7867746090183627 12.882840431035351 106.80717345661064 100.12486669399098 0.5054153911604672
1.8081137139471135 12.856582338462836 97.07901997222815 105.02215677182834 0.5159029309180971
1.8288235173348684 12.828448018930224 88.32511884537183 110.19085717082433 0.5268060473996958
1.8489032196431658 12.798482331481374 80.4587068837323 115.64861869148866 0.5381481852431288
1.8682795881836725 12.766543647000997 73.38009143188535 121.4156153249688 0.5499585460766014
1.886958557778444 12.732722786139874 67.00273545257237 127.51328494145795 0.5622669829671567
1.9048819591573214 12.69690730641712 61.252821157317385 133.96405650703832 0.5751027504869946
1.9220235545218844 12.659090016752682 56.07044217731358 140.7936402685557 0.5885022393611564
1.9383370057285523 12.619203317349537 51.38777049808819 148.0297066729751 0.6025036874816982
1.9538331219983216 12.577358405638565 47.15676346560557 155.7007484880988 0.6171428357587231
1.968449302510351 12.533429303967896 43.336821817184834 163.8404194710601 0.6324673053536676
1.9821651119958807 12.487428151632509 39.87586515095546 172.48251131486256 0.6485187161928898
1.9949559271739465 12.439352655179075 36.74268893945744 181.66628537167207 0.6653501367169008
2.0067906829914715 12.389193138685954 33.90099768441727 191.4337619181471 0.6830160397145455
2.017639731665841 12.336918562909359 31.326919664886532 201.8309770737161 0.7015756611995192
2.0274736166060237 12.28253492041096 28.98922177112731 212.90786117350237 0.721091609770568
2.0362843510337614 12.226070101207306 26.86778704576818 224.71994345845144 0.7416343505153524
2.0440294157536227 12.167474674429387 24.94028836665457 237.32834808141752 0.7632808812862959
2.0506890918099754 12.10676925189868 23.185745331399584 250.79996496100708 0.7861138687960745
2.0562617291918754 12.044023278283278 21.591964372676895 265.2079444574933 0.8102216290052338
2.060708839689957 11.97917451112007 20.140171199833343 280.63391043309997 0.8357034644460656
2.06401452576359 11.912279602398948 18.819949848954863 297.1677110105961 0.8626667176385837
2.066175709735395 11.843379140002096 17.617612312355337 314.9097088112508 0.8912318126112141
2.0671686885083975 11.772487085734767 16.522802208912598 333.9692738028529 0.9215244738324783
