M[M_sun], R[km], Lambda[1], P_c[MeV/fm^3], rho_c[fm^-3]
0.24162668629717493 15.618656898711224 2160425.4255784233 3.5677272577965504 0.1711233750220791
0.2536319831723974 15.277580858148369 1723515.6315413208 3.784605211239781 0.17388550072582887
0.26601537363281386 14.981797900203526 1383621.0354616316 4.010950803317126 0.1766612149062111
0.27877731859419247 14.724219550715542 1117111.2201516067 4.247026790520362 0.17944937875615907
0.2919174965435566 14.499232582759639 906614.8343714367 4.493455144640469 0.18225650006665123
0.30543807508186194 14.30210669571035 739392.6819622804 4.750376358369952 0.18507798918846044
0.31933846861025655 14.129094849842298 605726.8725758743 5.0184972306975135 0.18792100403682502
0.33362051763052447 13.976912303435665 498323.25819475035 5.298008155107982 0.19078150997593737
0.34828388352919054 13.842980393661147 411611.74624915014 5.589676182568972 0.19366658318370364
0.3633294242395594 13.724949553249337 341217.4432448007 5.893619885869824 0.1965703881825809
0.37876442891540774 13.62095041265388 283840.09760618035 6.210723002740272 0.19950102110162748
0.39457689539605645 13.52937855853813 236875.48189219722 6.541280021956496 0.20245532204964742
0.4107823146222971 13.44877451980555 198284.72228136528 6.885918716181756 0.20543574386851413
0.427368918899791 13.377893773598945 166443.77464701203 7.2453759438174385 0.20844595306876582
0.4443430678202188 13.315712048873937 140129.87782626587 7.6199635434510675 0.21148234665359514
0.4617013192061825 13.26130934986967 118274.65045368076 8.010524201185746 0.21454944970345627
0.479442814896341 13.21384218607348 100075.85268807305 8.417809440258274 0.21764968854783992
0.497576969668308 13.172608438872906 84873.84695635493 8.842331476846255 0.2207815712916697
0.5160868782105691 13.136979871972432 72150.48793672549 9.28482008141532 0.22394648732628433
0.5349820750712587 13.106368042708597 61463.24065478138 9.746223925617908 0.22714832278428898
0.5542624935884977 13.080290322934388 52464.72802457017 10.227349321820045 0.23038842334972212
0.5739159695965477 13.058245516960909 44872.062124529366 10.72876854841891 0.2336647869109049
0.5939512545161042 13.039903920965834 38452.20958302122 11.251522682810577 0.23698105811165177
0.6143566520945705 13.02480530658516 33014.70941865635 11.796641110474976 0.24034007657661127
0.6351290768429626 13.012678125287511 28395.440274309625 12.365098609383205 0.24374346767176083
0.6562676669298927 13.003232238948069 24461.045113240096 12.957721914606886 0.24719075454102987
0.6777759696305561 12.996134083384845 21106.329266644083 13.57555985358571 0.2506836323528506
0.6996325261458054 12.991169372413616 18242.702805363257 14.219936333849132 0.2542262300836244
0.7218350059989331 12.988058158761064 15791.210018927533 14.892035526495434 0.25782052181243637
0.7443905603268487 12.986676053833557 13688.910410111583 15.593067886072161 0.2614682430488214
0.7672799171089957 12.986736310349283 11885.55611125152 16.323933706767335 0.26516766023659116
0.7904935592814696 12.98807364456589 10332.77133220895 17.08641573451178 0.26892521826787785
0.8140277727636179 12.990567330624094 8995.568340036118 17.881961744941716 0.27274333540352885
0.8378826144047553 12.99400700319471 7842.069643321598 18.712097115907895 0.27662456545061875
0.8620338107387878 12.998255246177836 6845.199158327895 19.577909600334667 0.28056711222723796
0.8864696180870281 13.003176421821843 5982.786178435383 20.481486655491977 0.2845774662424824
0.911198933240347 13.00864669045093 5235.76535799488 21.42468338491123 0.2886592480708355
0.9361881708333603 13.014530082588854 4587.1852976187 22.409277268016588 0.2928147756303667
0.9614296217141635 13.020708403740798 4024.1526737192366 23.436695337433566 0.29704308880169017
0.9869214860467189 13.027090108948324 3533.929070839945 24.50963229402254 0.3013525870151972
1.0126301646900533 13.033538653984387 3107.6587992506097 25.630309214482455 0.3057470207064062
1.0385551732144604 13.039981873704948 2735.4595169422364 26.80018076859558 0.31022393190676295
1.064680892748311 13.04632033462363 2410.688605658526 28.02246322625179 0.31479307904997794
1.0909754852943012 13.052447379517007 2126.9179706532213 29.299685163066997 0.319458246552212
1.1174415817910066 13.058302790838553 1878.4073962148977 30.633767078957387 0.32421844636753455
1.1440425641290224 13.063775858375399 1660.8914999327924 32.028592425875324 0.32908515211635336
1.170772449803237 13.06879462560871 1470.1022859220834 33.4862601335618 0.33405709961675056
1.1975970362979107 13.073263460343615 1302.6283105432851 35.010646047561735 0.3391437135458988
1.224514862683574 13.077169984124861 1155.5052107972226 36.60465990065321 0.34434735028621677
1.2514814223856352 13.080357229904822 1026.0533133436056 38.27227381550793 0.3496759746034958
1.278495734370654 13.082838367262777 911.9185474181759 40.016794864736845 0.35513261095316456
1.3055142270608444 13.08446362951233 811.5100260674606 41.84309291212603 0.36072833019608574
1.3325308421793318 13.085250876501476 722.813482685078 43.75412101140991 0.3664622812943185
1.359508415479747 13.085068954674782 644.5005891649973 45.75566289853284 0.3723483866350343
1.3864170828584277 13.083863937767095 575.2224701050845 47.85233828465184 0.378392774733453
1.413243851100486 13.081614652523879 513.949955719967 50.04841256306008 0.38459874394584215
1.4399638340464784 13.078273551395734 459.66159485484195 52.35024928587948 0.39097930021909016
1.4665290447457093 13.073711992208551 411.5478872739774 54.76359302881808 0.3975427757329261
1.4929279522004273 13.067938500496815 368.81215235770503 57.294586643719434 0.40429815267538366
1.5191256830900561 13.060873448472288 330.89059970977814 59.94980688536042 0.41125511685375504
1.5450984810688402 13.052476054925187 297.1588482631552 62.736303431311356 0.4184241155207466
1.570806150148051 13.04268933365117 267.1498015768707 65.66164163119412 0.42581641990539526
1.5962221121252993 13.031459971306763 240.42760351182434 68.73394936299603 0.4334441929993858
1.6213173915171735 13.018754674137448 216.60368012273133 71.96196842100773 0.4413205632167885
1.6460572093816084 13.00451620539821 195.35621915304677 75.35511091312623 0.4494597046198247
1.6704046992662478 12.98868797341402 176.36746289954596 78.92352120552405 0.457876924486216
1.6943450605251966 12.97127785320958 159.40509796695864 82.67760733842698 0.46658655506534147
1.7178383146551575 12.952198340588671 144.22770788545586 86.62855585642555 0.475604019228462
1.7408429087155912 12.931411908789665 130.63806389136016 90.78996400165822 0.48495211685526163
1.7633230840939451 12.908870358252315 118.45854053562164 95.17328286244812 0.49464251859111225
1.7852705833267002 12.884595435300918 107.52795940522802 99.79466412091918 0.5047028283332113
1.806621376134701 12.858466099779989 97.73122559520782 104.66871432276292 0.5151515836811802
1.8273747101523752 12.830542331149921 88.91609358126038 109.81191833701908 0.5260115477972904
1.8474619302553577 12.80069031999804 81.00372163119536 115.24285955083391 0.5373100268752511
1.8668904319629847 12.768980851987724 73.87086245449339 120.98092762686129 0.5490736812185246
1.8855841536388982 12.735279670572284 67.45554863145834 127.04723507802126 0.5613316299064702
1.9035457412061059 12.699642081037624 61.669870042503234 133.46479214707014 0.5741156627234968
1.9207342879742626 12.66202556673441 56.44934477857722 140.2583754495358 0.5874593399427824
1.9371203956177365 12.622415726312488 51.73474172449887 147.454351740094 0.6013969636426085
1.9526625188046935 12.580746237481796 47.476767172455425 155.08354494417517 0.6159729677260293
1.967324358936578 12.537005909743657 43.62707343341768 163.17615023139464 0.6312237812449044
1.9811108848825556 12.491244346817686 40.13886383472896 171.7684578065285 0.6472002944627464
1.9939633221675799 12.443384470948802 36.98419652172389 180.89810940763064 0.6639508935470364
2.0058537931521605 12.393407828508336 34.1231625851599 190.60648301856943 0.6815288305150565
2.016766335461705 12.341337191578905 31.53321715672492 200.9391016941829 0.6999926703770994
2.026680443469309 12.287193495769692 29.17806922359865 211.94609302617474 0.7194067985379151
2.0355674533789068 12.230949713705307 27.040828522969072 223.68235874207613 0.7398408606317088
2.043403588370591 12.172616590469683 25.09860146603657 236.20709514237237 0.7613669726481332
2.0501577417147128 12.112171936329085 23.33283392737197 249.58731189899305 0.7840697852729417
2.055815700227612 12.049649022759684 21.727417935427003 263.89574388849366 0.8080380510211722
2.0603510930668145 11.985033381104921 20.26528180451583 279.21266247709553 0.8333686985362136
2.0637693216094024 11.918411988536835 18.93445007958618 295.6271624102027 0.8601689271526851
2.06602637804307 11.849748647297057 17.722587895216265 313.23751936212915 0.888554966197522
2.067135015607368 11.77912837141097 16.618642587518544 332.1527160539711 0.9186542955558593
