M[M_sun], R[km], Lambda[1], P_c[MeV/fm^3], rho_c[fm^-3]
0.24162668629717493 15.618656898711224 2160425.4255784233 3.5677272577965504 0.1711233750220791
0.2536409133767101 15.277367695382368 1723291.5791833736 3.784783380143671 0.17388772151526433
0.2660361300461483 14.981335005446592 1383244.253906934 4.011325332732411 0.17666574087316267
0.27880780428653523 14.723668542085768 1116511.617871073 4.2476103336779145 0.1794561469774059
0.29196077760438227 14.498539910830365 906030.2243757454 4.494262995866906 0.1822654956775501
0.30549344997819294 14.30136536837961 738764.3095977216 4.751435926744479 0.18508943454912197
0.3194063859646087 14.128334786495882 605220.5183014319 5.01981630200555 0.18793468991076065
0.3337035891406248 13.976091961800389 497811.79686902947 5.299621431817217 0.19079775299548923
0.3483811380099243 13.842184151277637 411114.17580878484 5.591587672829572 0.19368507737780782
0.36343989823344275 13.724155654433837 340743.79365952854 5.895872504081837 0.19659154524953296
0.3788907785100425 13.620153267594878 283396.6327025901 6.2133439798337715 0.19952492125685836
0.3947184543902466 13.528630972471975 236482.2771110424 6.544266616987289 0.20248151045337523
0.41094041245351287 13.4480485212548 197940.4523675164 6.889328545608279 0.2054647834067898
0.42754468625727304 13.377204856345926 166147.43454079627 7.24924097006791 0.2084779274404146
0.4445369016562736 13.31506308607784 139856.8045966915 7.624273065863623 0.21151665322301288
0.461913268036798 13.260701261862971 118028.80234108017 8.015353335653085 0.21458680696274868
0.4796737732001908 13.21330057278183 99858.49395523842 8.42319580149847 0.21769018645437127
0.4978265709447832 13.172100524773741 84681.06716998956 8.84825518963671 0.22082446150328033
0.5163607552613524 13.136504848505055 71972.93397833059 9.291376940615706 0.22399264802382757
0.5352749046044109 13.105932362808877 61307.27204924716 9.7534583377331 0.22719785339902707
0.5545775946757988 13.079904024770256 52332.03765955484 10.235308389427955 0.23044142763514847
0.5742545436941138 13.057927249250326 44756.62346618322 10.737417681982308 0.23372031702754817
0.5943062751918436 13.039586081183593 38349.197496939596 11.260991852887063 0.23704022165764657
0.6147382432533506 13.02457306847517 32921.14310417116 11.806986191063432 0.24040299192697492
0.6355351183223276 13.012470955291606 28309.49988963882 12.376378957539835 0.24381025945023155
0.6566997418582968 13.003073297701102 24385.469444849798 12.969885733521227 0.24726027794193556
0.678228955879598 12.996004629660602 21041.623672390862 13.588779729947486 0.25075723708261616
0.7001119501235461 12.991071050641994 18184.11586949311 14.23428306583379 0.2543040618048336
0.7223401849311578 12.988000901875543 15740.01256141774 14.907584457667504 0.257902734872757
0.7449227679900112 12.986659320042522 13643.965945079532 15.60974760520132 0.2615534987089147
0.7678370000258493 12.986766382827751 11844.089493253963 16.341969891772113 0.26525756609520856
0.791076782678059 12.988128840058929 10296.712869847885 17.105898794628917 0.2690199577917098
0.8146452486770918 12.9906538775969 8963.273367431564 17.902988078828454 0.2728431038543665
0.8385207560336225 12.994115939760205 7813.131137224682 18.734644159417844 0.2767284592833174
0.8626966241542292 12.998378416376106 6820.050298731361 19.60212801661302 0.28067576498732305
0.8871654561410763 13.003325422887956 5960.474861219255 20.507563513377555 0.2846917390770178
0.9119206686663573 13.008809130280358 5215.416829269828 21.45274306645573 0.28877939150149035
0.9369345419349482 13.01470744857258 4569.191532790869 22.43920295851614 0.29293906991159746
0.9622066977797699 13.020898788521903 4008.1914407386507 23.468862195936595 0.2971737279717759
0.9877259054894434 13.027287571568573 3519.570036358502 24.54419153073436 0.30148987445661324
1.013461438124549 13.033747897587329 3094.6017256923856 25.667194601782487 0.3058896041538176
1.0394204214381015 13.040198692875942 2723.8846000712815 26.83970702064187 0.31037325496951956
1.065568588937803 13.046530285535567 2400.3503459621975 28.064882568855776 0.31495000664361394
1.0918895355470875 13.052662432660755 2117.579423439476 29.344847376475204 0.31962080279074123
1.11838386188234 13.058492629509027 1870.3572467861907 30.682210732802858 0.3243893344955449
1.1450079756174407 13.063954201098383 1653.646628261467 32.08052082313576 0.3292646694584892
1.1717668515164934 13.068965173670467 1463.5797585737803 33.54155487731478 0.33424344860432476
1.1986164699602009 13.073434915535676 1296.7235563065608 35.06992902665878 0.33933974628612074
1.2255579194165842 13.077298799180934 1150.1934647516036 36.667759246336836 0.3445508990078234
1.2525474022154413 13.080469686198258 1016.7264890929579 38.33991460265309 0.3498902457888368
1.2795855440898651 13.082910773777042 907.6336503723775 40.088800947763715 0.3553553737183716
1.3066231939893562 13.084510121797697 807.584232834253 41.91981715220764 0.3609604225799266
1.3336555872509823 13.085236659791494 719.3101962190365 43.836310653448606 0.3667065914158103
1.360659985801085 13.085038287718787 641.3052247270958 45.84320151642452 0.3726029370446409
1.3875868749277918 13.083792294081192 572.4059972210131 47.945700361857476 0.37865875440005503
1.4144388224420807 13.081513244458712 511.3726576418654 50.148417145882235 0.3848789678076427
1.4411670216294654 13.078089665277687 457.3619279067285 52.45683888852739 0.39127195533228837
1.4677507864118386 13.073487737003976 409.4497520752318 54.87723896327751 0.3978486901497153
1.4941567435360765 13.067634556392433 366.9287386414204 57.41579836668048 0.4046182184057882
1.5203665920757683 13.060505387825149 329.199737785302 60.079135410204515 0.41159029511217415
1.5463483777568074 13.052035120572931 295.62225829309403 62.874345080231556 0.41877544249204623
1.5720634550956551 13.042169686454475 265.76687445329713 65.8090421652877 0.4261850130862257
1.5974843872722904 13.030864405832471 239.19013997321858 68.89140853277623 0.43383125817696216
1.622571726721559 13.018063534216 215.47732291956484 72.13024498498694 0.4417274021547668
1.6473246984022234 13.00374152127742 194.32346736468014 75.53502817803398 0.4498877235293042
1.6716733385558282 12.987832598294588 175.4330234681633 79.11588051275649 0.45832725648229505
1.6956123337776368 12.970305722515072 158.54622947683896 82.8825838267328 0.46705759043847983
1.7190768797535911 12.951081335367787 143.45152505086838 86.84804814662256 0.47610106127349683
1.742082033031216 12.930206416523067 129.93817513988725 91.02406352133441 0.4854729021176055
1.7645672520600295 12.907590394867434 117.8139131526618 95.42424092585351 0.4951931766184362
1.7864937921675026 12.883171819019887 106.94873874219134 100.06269912643995 0.5052812362467556
1.8078346832665604 12.856942544638287 97.19830033385115 104.95570361726892 0.515761817505099
1.828559042674319 12.82885911880822 88.43585537746425 110.11960591600713 0.5266568173978489
1.8486345649849274 12.798901939484013 80.55865895141211 115.57221711509209 0.5379903659504506
1.868026368858741 12.767026927293374 73.46952485826063 121.33376348111146 0.5497919257178623
1.886703249924037 12.733212405566752 67.08795166893235 127.42552676647497 0.5620908583067544
1.9046328011905271 12.69742643958991 61.32485939401249 133.8702050068661 0.5749174584850224
1.9217671459495747 12.65959936131387 56.13800179996971 140.69283752582072 0.588305837284963
1.9381121851652525 12.619823064701867 51.45362035833678 147.92134917505703 0.6022952564433312
1.9536073652393315 12.577975268509302 47.215884380491325 155.58453017734715 0.6169225904262318
1.9682394172431066 12.534099642539784 43.38981320081514 163.7154537276514 0.6322335914636602
1.981966893861289 12.48814600167972 39.923438411804135 172.348014500612 0.6482703825309536
1.99476464064991 12.440102252133732 36.78673908292655 181.52158752011806 0.6650865675739458
2.006610122825653 12.389971928506924 33.94463259428047 191.27792361346366 0.6827358873252167
2.0174765299496213 12.33775410947065 31.36422586992147 201.66296204549246 0.7012774510977381
2.027327014897163 12.283416000615604 29.02436325030194 212.72694861432578 0.7207751140719432
2.036152224686681 12.226990316803855 26.89999674675604 224.52445932820797 0.7412964515424094
2.043912053205936 12.168443564417773 24.970763382045604 237.11734024460918 0.7629210935410276
2.0505900253654907 12.107781496423433 23.214642827153025 250.57156307043903 0.7857290102689459
2.0561728326572046 12.045058919871137 21.61704524947316 264.9606809570833 0.809810168174845
2.0606435075600174 11.980278268518205 20.163085580419683 280.3663666981591 0.8352644148745856
2.063974692693225 11.913442618097566 18.84044575356801 296.8775929991889 0.8621966744764352
2.066147861873164 11.844575751121617 17.63690355054893 314.59455487094726 0.8907273131387975
2.0671617995856497 11.773735845695947 16.541239751313935 333.6270058806434 0.9209838889895171
