M[M_sun], R[km], Lambda[1], P_c[MeV/fm^3], rho_c[fm^-3]
0.24162668629717493 15.618656898711224 2160425.4255784233 3.5677272577965504 0.1711233750220791
0.25364160385029827 15.277341571476827 1723310.398035832 3.7847926092849535 0.17388783655205814
0.26603710552343285 14.981314408642529 1383090.047512586 4.011344734020933 0.1766659753262846
0.27881057423723526 14.723591839364117 1116430.072949588 4.24764056327489 0.1794564975951758
0.29196341524599206 14.498506556850748 905990.6156680393 4.494304846798001 0.18226596169738093
0.3054956803652756 14.301362128985861 738762.8834575238 4.751490819784605 0.18509002749872028
0.3194111997187603 14.128248440654644 605192.8898639899 5.019884641275915 0.18793539895706723
0.33370630501399506 13.976084851177385 497775.9731739711 5.2997050161965715 0.19079859455149778
0.3483855474572308 13.842153034409325 411104.79976684594 5.591686710765792 0.19368603559708514
0.36344580205429516 13.724117655484013 340726.0708282004 5.895989220231566 0.19659264147231098
0.37889743893504885 13.620108013816145 283373.9788479561 6.213479786270079 0.19952615964803588
0.39472595296195095 13.528592960327527 236462.63597437023 6.544421372467897 0.20248286744987576
0.41094864547691207 13.448010696045612 197923.4710946934 6.8895052371864605 0.20546628818641532
0.427553006189256 13.377188544776812 166131.32552945398 7.249441255359719 0.20847958434930502
0.4445464702484339 13.315045439474533 139848.1340400801 7.624496391080075 0.2115184310353335
0.4619247127198391 13.260660978037635 118021.61202758961 8.015603595463503 0.21458874292470861
0.47968646122547964 13.213245808903036 99845.95332100858 8.423474946863587 0.2176922852372789
0.4978394205727698 13.172077299808768 84669.72653204142 8.848562191122944 0.22082668432521232
0.5163748490463671 13.136479570225923 71964.3777258558 9.291716765595309 0.2239950404128696
0.535291161303212 13.105907586718399 61301.97411558888 9.753833289671613 0.22720042051847175
0.554593628616221 13.07986632079038 52321.10638171877 10.23572091173083 0.23044417487276014
0.5742710828101306 13.057901567950108 44347.26468177334 10.7378659821508 0.23372319525349589
0.5943261808519698 13.03958233378254 38345.3460063356 11.261482671450889 0.23704328830091537
0.6147586163532037 13.02454996024749 32917.39806345746 11.807522426722937 0.24040625313447417
0.6355562269828472 13.012475191243329 28308.291552951527 12.376963689802878 0.2438137216933499
0.656725046002528 13.003041314263596 24383.070456076817 12.970516277258925 0.2472638818713736
0.6782522877003921 12.996012099896028 21037.83025697459 13.589465037228521 0.2507610526899522
0.7001365102126644 12.991073621117128 18182.286227116016 14.235026810099445 0.25430809665377324
0.722365956767975 12.988011293968658 15736.504654613815 14.908390548340305 0.2579069969780023
0.7449502500857934 12.986664751358429 13641.680349590006 15.610612339338317 0.2615579186562222
0.7678661640940542 12.986759572391907 11842.004456308294 16.342904977144908 0.2652622272612644
0.7911067500826079 12.988120171770857 10294.775761324712 17.106908922845403 0.26902486970316847
0.8146771106096703 12.990646173688493 8961.73976625581 17.904078252486382 0.2728482766504222
0.838553513450584 12.994113348992256 7811.513829549106 18.735809543716055 0.27673381362118166
0.8627313810840028 12.99838616597241 6818.914581842319 19.603383760824364 0.2806813987196429
0.8872022395682984 13.003322086564713 5959.270130565724 20.508915659521787 0.28469766439107536
0.9119593226928776 13.008817858670774 5214.534752897815 21.454198070218066 0.2887856214062505
0.9369729135807054 13.014711295863302 4568.1737750923 22.440754759798 0.29294551521066065
0.9622476381338185 13.020902776564947 4007.206104492983 23.470530263789694 0.29718050249095856
0.9877678512767152 13.027306696959977 3518.8073331670103 24.54598371410936 0.30149699395037277
1.0135057628372472 13.033761023579963 3094.199211939409 25.669103964604496 0.30589697275267025
1.0394647920875633 13.040212294982584 2723.3549667144543 26.841756898955587 0.3103809990406681
1.0656147313173479 13.046544571255689 2399.7889658463396 28.06708255493142 0.314958145348735
1.0919376320739271 13.05267010545286 2117.2355624103993 29.347189674740243 0.3196292336263169
1.118432461571896 13.058508372895707 1869.947967156362 30.684723299903627 0.3243981977388032
1.1450593641618996 13.063963580577575 1653.1488839418382 32.08319546035954 0.32927385924854896
1.1718179741554882 13.068976962312957 1463.181841900142 33.54442294846094 0.33425311429979787
1.1986681646055222 13.073437155124255 1296.3653175765417 35.073004063685545 0.33934991459992386
1.2256108613794272 13.077312750289087 1149.8756880976866 36.67103232787071 0.3445614574621895
1.2526029917988022 13.08047309153555 1020.9657834038622 38.34342337530117 0.34990136081138645
1.2796405881493558 13.082925891403658 907.3411789054734 40.09253626718949 0.35536692954878535
1.3066813413811584 13.084513057957606 807.3843328789821 41.9237944537631 0.3609724465650873
1.3337134460050835 13.085236930010904 719.1137532315456 43.84057451432832 0.3667192658154513
1.3607195825803753 13.085038155389734 641.144315989245 45.847743004926365 0.37261614307628965
1.3876479763674694 13.083790229174816 572.2624965134622 47.95053886952696 0.3786725263547866
1.4145007405427388 13.08150533985865 511.2239712936521 50.153605709709936 0.38489350673527944
1.441229173062254 13.078082711702798 457.234416869001 52.462369274317275 0.3912871396996109
1.4678156284514985 13.073475077728977 409.3638547350598 54.883135650392596 0.3978645629709331
1.4942211642770222 13.067616112184828 366.84506086406816 57.422087816922875 0.40463482601961054
1.5204306879520937 13.060487504526929 329.10988743239875 60.08584624526631 0.41160768745474713
1.5464132338650498 13.052012466625541 295.54360062411865 62.88150827684833 0.4187936733969353
1.5721280136098106 13.042143984875988 265.6854225133254 65.81669127006484 0.42620414061434253
1.5975508909392486 13.030831585231315 239.12644434004415 68.89957989889842 0.4338513449796777
1.62263864739777 13.018031415529666 215.42310373283195 72.13897803329483 0.4417485158738426
1.6473898203554818 13.003701235778026 194.26496812401902 75.54436568525513 0.4499099372377001
1.6717387018686702 12.987785440706146 175.37833495696373 79.1258201946206 0.4583504456463667
1.695677097330095 12.970255434071364 158.50071304409704 82.8932226205156 0.4670820383556075
1.7191495901148175 12.95105401214903 143.41547526268494 86.8594407952485 0.47612686001734483
1.7421460425086708 12.930142052900626 129.89804066995873 91.03621476776406 0.4854999341681985
1.7646312166459481 12.907520618253605 117.77946625483737 95.43726777653357 0.4952217604375827
1.7865570593723168 12.88309709428674 106.91713460870288 100.07661292264908 0.5053112616153419
1.8078973531855271 12.856861998863995 97.17255967756014 104.97057647989581 0.5157934000600619
1.828611097234294 12.828749432446557 88.40953010048418 110.13557940833546 0.5266903163419665
1.8486946615599122 12.798806514460797 80.536749339394 115.58931628323363 0.5380256869313618
1.868085378158361 12.766925771228355 73.44781730917339 121.35208232460968 0.5498292161701175
1.8867607497525167 12.733101686219443 67.067769366197 127.44516808921323 0.5621302782847692
1.904687705840005 12.697310471287764 61.31197843327511 133.8912091393173 0.5749589271642064
1.9218359346270801 12.659524051767114 56.121655350885135 140.71539718234743 0.5883497920748808
1.9381569276657504 12.619660846216181 51.43730022212213 147.9455993903088 0.6023419029388913
1.953662445587417 12.577854866714125 47.20651826401242 155.61053943495318 0.6169718805729586
1.9682849565664677 12.533950860386602 43.37725813209168 163.74346127610127 0.6322860337504677
1.9820113173580836 12.487984088592151 39.91499672716996 172.37811392363562 0.6483259578245639
1.9948091750765913 12.439935895165881 36.77620145961517 181.55396959210236 0.665145551967068
2.0066488030974092 12.389794929001658 33.93328449567349 191.3127985162105 0.6827985823561463
2.0175122940343875 12.33756830215426 31.35451812622737 201.70056162748438 0.7013441866468808
2.02736200753541 12.283217256789912 29.01766819477184 212.76743415020397 0.7208459410947894
2.0361812617124238 12.226783941816723 26.89284547016583 224.56820534119726 0.7413720675673063
2.0439382170484492 12.168224687740452 24.963419888260333 237.16455975923182 0.7630016071511176
2.0506103400275073 12.107555042992594 23.207986263975194 250.622699507635 0.7858152147432342
2.0561908964523417 12.04482291063744 21.611482935198357 265.01601266197457 0.8099022433464883
2.0606578926525763 11.980031327233059 20.15863076987075 280.42631421762064 0.8353629180177772
2.063984912581062 11.91318411362907 18.836623490917937 296.9425131796499 0.8623018568012524
2.066154596545267 11.844307846038227 17.632929599437883 314.66507658097754 0.8908402045260031
2.067162307708752 11.773452585581373 16.53614793683096 333.70359400436746 0.921104853813123
