M[M_sun], R[km], Lambda[1], P_c[MeV/fm^3], rho_c[fm^-3]
0.24162668629717493 15.618656898711224 2160425.4255784233 3.5677272577965504 0.1711233750220791
0.2536441414540076 15.277289353008587 1723225.1952547033 3.7848225335129313 0.17388820954312395
0.26604046892284483 14.981242373686534 1382978.7869319967 4.0114076405062935 0.1766667355140353
0.2788158442435937 14.723476827284502 1116422.0288677101 4.247738580021543 0.17945763444172885
0.2919702643846844 14.498420016274078 905894.5644134077 4.494440545611745 0.18226747273516603
0.3055049102868267 14.301225239508444 738653.1277438918 4.751668808001695 0.18509195011116047
0.3194216227490369 14.128130166793037 605103.606917486 5.020106229758361 0.1879376980230979
0.3337212175870721 13.975905604132874 497663.73421043984 5.299976038438472 0.1908013232957665
0.3484014897836233 13.842023522593363 411004.3674227375 5.592007843190647 0.1936891426416361
0.36346429938010727 13.723980473609037 340645.19385304925 5.896367677131411 0.19659619601960435
0.3789176821818811 13.619998558568213 283302.2739672289 6.213920147123506 0.19953017520879016
0.39475021989831177 13.528439368550774 236412.93972385244 6.544923179816954 0.20248726762241845
0.41097543898693034 13.447885977001466 197866.89353928406 6.890078177853074 0.20547116758955744
0.4275833486188481 13.377048595968905 166081.48596796853 7.250090705268386 0.2084849570819597
0.44457847402997547 13.314925145930424 139802.13897529163 7.625220554988314 0.21152419584567894
0.46196011655850283 13.260565133300636 117980.8776754555 8.01641510379122 0.2145950205976998
0.47972471080752077 13.21314837804785 99804.83194776704 8.424380127042655 0.2176990909268068
0.49788255544535853 13.171978005511079 84637.30475784045 8.849557705425505 0.2208338922741134
0.5164198872241565 13.136410334408557 71938.65380103339 9.29281872357359 0.22400279826573577
0.5353395511686426 13.105842881751022 61275.451962490246 9.755049162174469 0.22720874502522512
0.5546473964607407 13.079807724149415 52299.85651939185 10.23705862353568 0.23045308351153737
0.5743278800142456 13.057840212487283 44729.165528760255 10.739319720809656 0.23373252870599762
0.5943841371975176 13.03952954908848 38328.65660865528 11.263074297674876 0.2370532328103654
0.6148228230159908 13.024500064531455 32900.78583171925 11.809261342155306 0.2404168286416193
0.63562705140101 13.01246453196267 28291.39092201923 12.3788598825922 0.24382494919155862
0.656796785287522 13.003028574763364 24370.81588283204 12.972561039848774 0.24727556889584282
0.678331733187494 12.99596172912928 21027.856408029853 13.59168740367294 0.2507734262309071
0.7002172627845167 12.991066951959562 18172.43116504835 14.237438695166327 0.2543211812479732
0.7224510542639668 12.988017201634225 15729.350199163344 14.911004632293707 0.25792081862525035
0.7450395301466393 12.986645131082055 13633.808218953924 15.61341661328692 0.26157225224449904
0.7679604468654383 12.986759779063034 11836.443625889522 16.34593741391769 0.2652773431980153
0.7912043912237827 12.988138966448892 10288.27306437246 17.110184740046666 0.2690407988929334
0.8147797621744469 12.990662549276568 8956.174303035186 17.90761367656359 0.27286505198487365
0.8386613874319845 12.994135643111035 7807.272870308428 18.739588894297487 0.2767511777816148
0.8628431172872455 12.998404900909861 6814.460559331827 19.607456174537663 0.28069966907163757
0.8873235439253393 13.003352805836323 5955.236803375564 20.513300734701485 0.2847168804704295
0.9120795941658641 13.008842747635306 5211.101385116485 21.45891674715753 0.28880582541443783
0.9370989667048084 13.01474060464112 4565.177188627871 22.44578738328467 0.292966417863483
0.9623829719449923 13.0209584913728 4004.554162060525 23.475939983867725 0.2972024729715799
0.9879035869142173 13.027334746117518 3516.5590586202093 24.55179599096741 0.3015200833671124
1.0136452261020366 13.033797936094077 3091.760568424625 25.675296301147544 0.30592087017196656
1.0396098055223693 13.040246093451726 2721.426604072981 26.84840499029766 0.3104061143326397
1.065759996202392 13.046573928880084 2398.234683425678 28.074217516906245 0.31498454067559917
1.092092479534175 13.052700169789382 2115.754809089055 29.35478622164219 0.3196565765308603
1.118585638804341 13.058551050854179 1868.4524745196088 30.692872117209184 0.3244269432198787
1.1452224148382735 13.063992449396025 1652.10597123272 32.09186995415664 0.3293036639548325
1.1719845754514806 13.069012255660743 1462.023082124369 33.55372485822114 0.33428446269475676
1.1988391113020067 13.073466044000922 1295.378845588705 35.08297728675811 0.3393828933448779
1.225785883349912 13.077334544151702 1149.0409725585612 36.681647925319695 0.3445957017363008
1.252781817710809 13.080498926186614 1020.1533537817428 38.3547921758622 0.34993734420191835
1.2798244287152054 13.08293916394411 906.6834027405631 40.10465119763478 0.3554044090962463
1.3068681490883138 13.084525970508004 806.7197487433478 41.93669429144125 0.36101144472870517
1.3339057490394317 13.085235830208125 718.6000016648519 43.85440386950529 0.3667603738110531
1.3609148034413037 13.085033322290908 640.6101409614432 45.86247290355375 0.37265897562059264
1.3878443630911872 13.083777481056458 571.793102416874 47.966232219357 0.37871719469432646
1.4147015102585416 13.081482657342109 508.8443220504009 50.17043457023721 0.38494066305705565
1.4414238275856897 13.0780316983331 456.86471572840895 52.48030693325969 0.3913363897904067
1.46801892470699 13.073432600862716 409.00811287664055 54.9022615231572 0.39791604638070216
1.494427647079203 13.067569399393223 366.51991251033144 57.442487751149564 0.4046886930853445
1.5206399159451918 13.060422487403377 328.8306082403905 60.10761309667252 0.41166410018623384
1.5466231942373816 13.051938277318584 295.28557149071236 62.90474254252554 0.4188528064502898
1.5723394956905998 13.042057235592681 265.4537937954407 65.84150178562692 0.42626618236273445
1.597763484441941 13.030730582404294 238.91703739426882 68.92608460665642 0.4339164986917751
1.6228501241043247 13.01790921473453 215.23629916357154 72.16730482951667 0.4418170010117531
1.647602986981533 13.003571131135937 194.0945560655016 75.57465335556623 0.44998199088760343
1.6719510802924138 12.98763660759263 175.2277450294545 79.15806132342205 0.458425663830998
1.6958882758199871 12.970088010846696 158.3570591664856 82.92773172060087 0.46716134016709665
1.719368731090912 12.95087807845605 143.27591070902295 86.89639548169889 0.4762105442001033
1.74235102728151 12.929937388140246 129.77566631027105 91.07563042376506 0.48558761949441925
1.7648339325938436 12.907292693170737 117.67492817952407 95.47952404335749 0.49531448012236023
1.7867609957994242 12.882856818664177 106.81845184676204 100.12174659205536 0.5054086581158519
1.8080994610374834 12.85660109924835 97.08170378083484 105.01882155607164 0.515895848580447
1.8288098112976214 12.828468077293612 88.33042493146279 110.18728919269367 0.5267985877065345
1.8488899228601128 12.798502835886374 80.46473646178971 115.64478410655886 0.5381402643138773
1.8682667489602776 12.76656435978014 73.38624812668945 121.41150715621716 0.549950183350499
1.8869462125318568 12.732747202427934 67.00718414855491 127.5088835061356 0.5622581546181382
1.90486837726653 12.696934513281489 61.25475196654352 133.95934599154836 0.5750934504668153
1.922011396858977 12.659117887796812 56.07370707991815 140.7885808137604 0.5884923816192017
1.9383253626230537 12.619230017499333 51.39019428417809 148.0242679789459 0.6024932258831411
1.9538201904565704 12.577390829250751 47.15863592215509 155.6949151899853 0.6171317810748767
1.9684393461075302 12.533462886941887 43.33786338893267 163.83415621761733 0.6324556055441852
1.9821550677335549 12.48746426997941 39.87915838626852 172.47576043391112 0.648506251429339
1.9949450962411395 12.439390936758722 36.74474651443695 181.65902238970045 0.6653369070945325
2.00678231516368 12.389232851177034 33.902303861412044 191.4259396680123 0.6830019775616644
2.01762943753423 12.336961346310707 31.327238162879997 201.82254352441052 0.7015606924814028
2.027467190460842 12.2825777575903 28.991021614707268 212.89878013497417 0.7210757230369642
2.03627824503172 12.226115295930216 26.87033797168256 224.7101308730333 0.7416173892278526
2.044023816329897 12.167522991770737 24.941640027443537 237.3177561424626 0.7632628210573856
2.0506841070486126 12.10681968580896 23.187504595265693 250.78851714051444 0.7860946064745513
2.056257451093894 12.044076981741002 21.59318953430298 265.1955322856909 0.8102009744302225
2.0607059057328434 11.979230047735024 20.14198183346712 280.62048672942325 0.835681446447696
2.0640119810541333 11.912337217271523 18.82068867341337 297.1531472516309 0.8626431217395095
2.0661744309746206 11.843439268302639 17.61798679859805 314.8938880430691 0.8912064866730608
2.0671684281556177 11.772551628380983 16.523617461227154 333.9520916740168 0.9214973360324804
