M[M_sun], R[km], Lambda[1], P_c[MeV/fm^3], rho_c[fm^-3]
0.24162668629717493 15.618656898711224 2160425.4255784233 3.5677272577965504 0.1711233750220791
0.25364502662969857 15.277268698514739 1723268.279499671 3.784839139395118 0.17388841652743448
0.26604183704366774 14.981227886933366 1382907.1009847063 4.0114425495704795 0.17666715736947408
0.27881791244804077 14.72345484921705 1116396.8692951286 4.247792973486781 0.17945826532395642
0.29197367093622706 14.498332712011411 905761.2769020884 4.494515851001484 0.18226831127815823
0.3055107061831841 14.301135704514266 738571.3590848236 4.751767582510297 0.18509301706436734
0.3194282518343762 14.12807157572365 605044.4519981804 5.02022920118937 0.18793897389915723
0.3337262259609398 13.975963228245895 497672.242918382 5.300126444556346 0.1908028376358046
0.34841043784637593 13.841947837247265 410957.63452592096 5.5921860597329935 0.19369086693570897
0.36347444406785456 13.723913919572478 340618.8391146469 5.896577708289278 0.19659816867668636
0.37892882706321995 13.619936613105011 283262.0889068596 6.214164534867589 0.19953240373075418
0.39476348312185566 13.528368389884404 236367.0249297401 6.545201670619969 0.20248970961053825
0.41099009850116863 13.447796899727313 197834.85155910917 6.89039614836106 0.2054738755598346
0.42760044886201665 13.376978700875965 166054.2286489925 7.25045113962663 0.20848793886303402
0.4445966906523856 13.31486813827187 139780.59216896695 7.625622457187075 0.21152739524560335
0.46198007124802176 13.260533371832086 117959.9975325481 8.016865484483002 0.2145985046564679
0.47974669606296866 13.213107572116328 99793.27306614387 8.424882498642663 0.21770286805893627
0.4979057132983701 13.171930504740509 84622.28887322363 8.850110215771092 0.22083789268508494
0.5164458883283854 13.136355100427227 71925.89354746175 9.293430314681546 0.22400710390526404
0.5353664876080635 13.10579972413857 61260.913786555706 9.755723981286716 0.22721336519407012
0.5546747206136565 13.079772351097203 51805.96053378791 10.237800066068353 0.23045801500721505
0.5743600530639797 13.057827426436594 44718.014192560404 10.740126568617871 0.23373770891885653
0.5944196851305404 13.039494078601146 38319.26290333974 11.263957681699011 0.23705875220973416
0.6148575756646304 13.024497996950798 32893.23860294463 11.810226481640644 0.24042269829998983
0.6356645558547525 13.012413862408005 28283.935883936305 12.3799123224264 0.24383118076591107
0.656837360819589 13.003012379485638 24363.95825274548 12.973695947019793 0.24728205555984178
0.6783705360340926 12.995969889605524 21021.17999672241 13.592920895484433 0.25078029398284124
0.7002622621137621 12.991043506642914 18166.66208311114 14.238777386221553 0.25432844371228264
0.7224985055345429 12.988004742861389 15723.93781246462 14.912455562231106 0.2579284902387615
0.7450887621944383 12.986646354803405 13629.457970221672 15.6149731162815 0.2615802080553381
0.7680113872343511 12.986765315480124 11832.42151205689 16.347620570173873 0.26528573330980226
0.7912584246800687 12.988145579643662 10286.644268949633 17.11200299805055 0.26904964046589247
0.8148368824508864 12.990674247225083 8953.395241932783 17.90957604497009 0.2728743632826464
0.8387214589910013 12.994140409204698 7804.978534748427 18.741686668817973 0.27676081597011876
0.8629046847860126 12.998418066479308 6811.713253194872 19.60971663394675 0.280709810327409
0.8873884942162872 13.003375344529708 5953.228679386162 20.51573475994239 0.2847275467464367
0.9121469469811294 13.008861193137573 5209.285009921591 21.46153596433402 0.28881704014389636
0.9371682041771551 13.014759199372056 4563.547481431572 22.448580881038186 0.29297802046277466
0.9624542936847382 13.020968738248442 4002.9784659606203 23.478942822153055 0.2972146683900868
0.9879779996872556 13.02736407577546 3515.131094991915 24.555022305716648 0.3015328999840076
1.0137228955430249 13.033810097685086 3090.4835648497888 25.678733602865364 0.30593413538128256
1.0396895608739003 13.040263379714988 2720.325466583396 26.8520953051226 0.310420055677535
1.0658430677039066 13.046593322866904 2397.1853964955712 28.07817812135518 0.31499919267365856
1.0921779121795825 13.052723567551373 2114.7588663788624 29.359003077541196 0.31967175462293407
1.1186784410877748 13.058552705297599 1867.6274131351142 30.697395575050198 0.32444290001052567
1.1453109040761718 13.06401368376893 1651.206522552238 32.09668524908935 0.3293202088339338
1.1720774648670085 13.069019775525254 1461.4233062069661 33.5588884794079 0.33430186463054773
1.1989354938339418 13.073478609172627 1294.8500414513494 35.08851360860065 0.33940120046031097
1.2258838532660905 13.077345664245595 1148.576750953547 36.687540880390394 0.344614711497149
1.2528820666352305 13.080507472057688 1019.6685484702235 38.361065682002184 0.3499570988713338
1.2799258455698075 13.08294001149184 906.3062094357275 40.11137656826233 0.35542521514616676
1.3069710259772602 13.084527601258324 806.428460651175 41.94385543813092 0.361033093960057
1.3340106687213589 13.085241465710961 718.2640566789729 43.86208109034087 0.3667831944817427
1.3610212653751683 13.085032383542753 640.3201228310279 45.87065011055168 0.372682753827753
1.3879534413963843 13.083766668789353 571.5335728213466 47.97494434396553 0.37874199221329735
1.4148043031329876 13.08146192159039 510.5783020975924 50.1797771558354 0.38496684201147596
1.4415365471206338 13.078014734206857 456.67689380497876 52.49026514711868 0.3913637313146432
1.4669532176486586 13.07299415692274 410.5946061974593 54.968405394550345 0.5461234493950605
1.4828528592938264 13.059170172636769 381.47957178752307 57.93634092783624 0.8290174326595168
1.4910422544160127 13.033450253374223 362.3973578994157 61.444636758720556 1.0945906413819293
1.4936987665141925 12.99657941957282 349.1130372501488 65.48997948729952 1.34649315692972
