M[M_sun], R[km], Lambda[1], P_c[MeV/fm^3], rho_c[fm^-3]
0.24162668629717493 15.618656898711224 2160425.4255784233 3.5677272577965504 0.1711233750220791
0.25364368062489306 15.27729720524744 1723259.2176449914 3.7848136931280347 0.17388809935199095
0.26603797078308217 14.981318650744917 1382834.3514086397 4.011389056242669 0.1766665109341771
0.27881401523958993 14.723532249117083 1116454.9930656434 4.247709623134162 0.17945729858547235
0.29196767780997535 14.498460964835338 905956.1040054862 4.494400456239056 0.18226702633069686
0.3055038012162314 14.30122801978503 738709.628749244 4.751616224912064 0.18509138211343612
0.31941908336646724 14.128159804256935 605122.1717445219 5.020040765601344 0.187937018807202
0.3337161538578535 13.97596250299856 497676.5145429128 5.29989596971084 0.19080051713653728
0.34839673179285235 13.842062693672743 411027.3553529008 5.5919129699704815 0.19368822471713226
0.36345868238394885 13.724028671725645 340679.8929080631 5.89625586794918 0.19659514588410348
0.378911796834776 13.620028256450237 283322.2229214625 6.2137900489206706 0.19952898886982873
0.39474348998423026 13.528485231892027 236412.4138908747 6.5447749276586595 0.20248596765126906
0.41096694814401763 13.447906741945223 197882.23963391254 6.889908909731395 0.20546972603120262
0.42757440035544747 13.377087688760335 166097.14610388075 7.249898832785464 0.20848336977008117
0.4445695491282161 13.314954700738781 139812.72337644378 7.625006608450346 0.21152249269366954
0.4619490111600742 13.26060443274407 117988.85551532706 8.01617535145229 0.21459316591952676
0.47971343007999145 13.213181346011647 99822.78659405012 8.424112699345145 0.2176970802443786
0.4978697939601899 13.172004887897012 84651.61215159214 8.849263588408778 0.22083176274124575
0.5164067053736144 13.136424639533095 71941.99224708672 9.292493157501289 0.22400050626029008
0.5353243296317562 13.10586606208853 61281.84540528426 9.754689939619723 0.22720628559746775
0.5546301547692553 13.079842068774324 52306.33788957995 10.236663402938891 0.2304504514965388
0.5743117505824908 13.057868850941293 44735.928024398425 10.738890219399181 0.23372977117389948
0.5943661392209376 13.039548226510913 38331.51973783734 11.262604056366072 0.23705029473415834
0.6148035117289355 13.024514171117643 32906.684094440774 11.808747582983479 0.24041370412866633
0.6356043271851891 13.01244498217865 28297.97455783981 12.378299654282284 0.24382163203816498
0.6567750840086425 13.003028095541753 24374.094586299383 12.971956915058122 0.2472721159662725
0.6783064761617037 12.99598081923702 21031.330929826094 13.591030803692808 0.25076977045813137
0.7001935836789663 12.991054907178759 18175.209061300622 14.236726099410262 0.25431731538121827
0.7224265597830499 12.988008861002728 15732.378755513098 14.910232293970775 0.2579167349814019
0.7450132253232611 12.986647139970307 13636.238621321641 15.61258808054642 0.2615680173347171
0.7679326125393856 12.98676097752793 11838.123356284847 16.345041466704995 0.2652728771258714
0.7911754677094733 12.988140448095331 10290.437913998572 17.109216881782796 0.2690360925259405
0.8147519127254519 12.99065738281473 8957.766116656112 17.9065691125516 0.2728600956033267
0.8386311011556941 12.994127530293348 7808.809022386899 18.738472257588356 0.2767460474136997
0.8628093983667816 12.99839134638676 6815.768461158904 19.606252946176408 0.2806942709448171
0.8872849559687926 13.00333532033413 5956.374443025906 20.512005123578223 0.2847112029015996
0.912041435704916 13.008848206873363 5212.03769857654 21.457522565601003 0.28879985593274965
0.9370627362617306 13.014740507574162 4566.193605464142 22.444300438931165 0.29296024194317627
0.962338362644046 13.02093263309383 4005.2060644261687 23.474341616705633 0.2971959815276135
0.9878620699585904 13.027330215793944 3517.1657844734486 24.55007867764706 0.30151326129653755
1.0136046426508671 13.033781056123496 3092.4331709482212 25.67346668913244 0.3059138093468369
1.0395669267985965 13.040233691248895 2721.9109039084183 26.84644071234705 0.31039869364424894
1.065716408362082 13.04656140014207 2398.8102651845547 28.072109378343022 0.31497674175436485
1.0920463023032956 13.052690116949353 2116.078083170951 29.352541694044753 0.3196484976096565
1.1185436836654694 13.05853032913002 1868.9869871816984 30.69046440341536 0.324418449853455
1.1451733781274864 13.063983038449535 1652.4491399685087 32.089306912394285 0.3292948575957865
1.17193514275102 13.069001920378396 1462.3359769422068 33.550976424617325 0.3342752001901365
1.1987898092423894 13.073462041885616 1295.6823091108647 35.0800304894362 0.3393731490850129
1.2257350817776196 13.07732111270521 1149.2994675493517 36.678511315589425 0.34458558351884766
1.2527296158830232 13.080485998634506 1020.4056008279729 38.35144096061953 0.34992675876404555
1.2797699824360769 13.082935627388128 906.8945380159105 40.1010715525979 0.3553933348703843
1.3068131333209934 13.084524123061696 806.9053557878569 41.93288271481395 0.36099992175510953
1.3338492661338155 13.085236646133444 718.7788071823098 43.850317627798994 0.3667482273874534
1.3608561405742707 13.085036318573378 640.773529274664 45.858120558709665 0.37264631959300737
1.3877853610740098 13.08377840803065 571.9334932462878 47.961595181508564 0.3787039961877414
1.4146420429634128 13.081490472390616 510.92751198209874 50.16546199358638 0.38492672934929073
1.4413637087531346 13.078041094762785 456.9617445907831 52.47500671153252 0.39132183736736537
1.4679578299399532 13.073448355553378 409.1133423975521 54.8966101879351 0.39790083400265475
1.4943668299197101 13.067582766993795 366.62120316347296 57.43645993306019 0.4046727763245528
1.5205778885152617 13.06044426414657 328.91605152358096 60.10118135519274 0.4116474311651467
1.546560828723806 13.051961009756972 295.3580381574499 62.89787717880427 0.4188353335537986
1.5722765009861437 13.04208445572462 265.52683284627045 65.83417063643324 0.4262478499216951
1.5977006112151635 13.030759041149464 238.98327176957883 68.9182528173337 0.43389724663469154
1.6227881850312842 13.017942827410101 215.28959814274785 72.15893460355962 0.4417967644811366
1.6475405832794188 13.003610169437891 194.14215804608344 75.56570367814437 0.4499606998171091
1.6718884491107153 12.9876796543816 175.27761536320662 79.14853438675196 0.4584034375967419
1.6958258572490532 12.970137772311574 158.40212515328625 82.91753457659944 0.4671379071598803
1.7192913299054604 12.950898542838683 143.3209891258358 86.88547563943199 0.47618581613003336
1.742292457350428 12.929998935973838 129.8078833890445 91.063983337883 0.4855617090154699
1.764773145494815 12.907357311344784 117.70836112977403 95.46703751609081 0.4952870818934311
1.7867010851023641 12.882927605828788 106.84875136437492 100.10840975111579 0.5053798777917068
1.8080399845230615 12.856678908734485 97.10926382189827 105.00456524482328 0.5158655752736286
1.8287521293505198 12.828551348110516 88.35307613103839 110.17203797807524 0.5267667014737089
1.848832022348502 12.79859313191119 80.48472695775652 115.62839333312213 0.5381064066319782
1.868219931125817 12.766692767129157 73.39818210369884 121.39394700257482 0.5499144373127616
1.886891345473735 12.73285193354009 67.02647935733835 127.4900553853619 0.5622203667299777
1.9048154179905399 12.697044978093237 61.270728036319404 133.93921123383504 0.5750536982033024
1.9219598460288372 12.659238344616856 56.08837499772247 140.76695459786987 0.5884502455266127
1.938274857599165 12.619359352734651 51.405320028023965 148.00102080066537 0.6024485087790993
1.953774779367613 12.577524648754283 47.17326911704545 155.6699813774978 0.617084529004303
1.968393413956103 12.533608192643198 43.34991188616705 163.80738467746318 0.6324055960846902
1.9821116869028172 12.4876181232333 39.88766441464473 172.44690467481763 0.6484529724251963
1.9949076339346807 12.439550941379268 36.75554812091998 181.62797780994447 0.6652803589620495
2.0067438748250446 12.389402610313262 33.91142997574921 191.3925046750371 0.6829418710738004
2.0175954577903132 12.337140448425775 31.336299829997717 201.7864957385458 0.7014967112173138
2.0274343233680727 12.282766537472753 28.998099100014045 212.85996487862883 0.721007818068231
2.03624915026529 12.22631256843741 26.876574442203033 224.66818889026834 0.7415448915121464
2.0439986644488664 12.167730241513611 24.94847327980764 237.27248310850422 0.7631856263756349
2.0506623837516678 12.107038051555325 23.19317792713557 250.7395763964552 0.7860122427590616
2.0562399034550545 12.044303949920366 21.597770504762998 265.1424794165136 0.8101126913736048
2.0606923605041723 11.97946698524102 20.146700888793806 280.5631105005521 0.8355873360781471
2.06400175827785 11.912584316765127 18.82506219757236 297.0908983765193 0.8625422674080059
2.0661686064646925 11.84369647943069 17.62260533692972 314.82626668163925 0.8910982381735097
2.06716636030668 11.77281651839498 16.52727031041853 333.8786518450175 0.9213813436889081
