M[M_sun], R[km], Lambda[1], P_c[MeV/fm^3], rho_c[fm^-3]
0.24162668629717493 15.618656898711224 2160425.4255784233 3.5677272577965504 0.1711233750220791
0.2536445653410576 15.277273573181363 1723254.9692199612 3.7848302573941135 0.17388830581757678
0.2660404201205025 14.98126709579525 1382990.239952132 4.011423877705383 0.17666693173100376
0.27881710675824506 14.723497491574246 1116382.828382993 4.247763879929315 0.17945792788253287
0.2919715620647992 14.498365406000275 905805.5354552487 4.4944755721801135 0.18226786276413404
0.3055078813021639 14.301187298142676 738597.4043144275 4.751714750617399 0.18509244637909286
0.31942556548729306 14.128078651514246 605088.426973351 5.02016342691162 0.18793829146563903
0.33372311500855645 13.975919918101122 497683.0530219112 5.300045996056913 0.1908020276529035
0.34840564224028514 13.841988485863668 410982.5416897738 5.59209073600799 0.19368994465244693
0.3634698939317278 13.723929073335269 340644.40722296847 5.896465367546779 0.196597113548659
0.3789233438729684 13.620001369622647 283287.94465116825 6.214033817421763 0.19953121174504232
0.3947564827153795 13.52840572760817 236397.46659932248 6.545052712045798 0.20248840344507596
0.41098219528130636 13.447853243119532 197849.95859757965 6.890226072747578 0.20547242712454072
0.4275903806168288 13.377032427806073 166073.1698816526 7.250258350763751 0.20848634397017898
0.44458692411426604 13.31489232389607 139788.6600324295 7.62540748779125 0.2115256839509877
0.46196934637279335 13.260548546366593 117970.69825468135 8.016624584615416 0.21459664110123294
0.4797347653055298 13.213154644750949 99799.0458121576 8.424613789515028 0.21770084774194493
0.4978937502048398 13.171947026967507 84637.1545417065 8.849814688046948 0.22083575293809285
0.516432574811113 13.136376367208037 71927.32030082993 9.293103185330898 0.22400480089424132
0.5353520960281841 13.105822520583489 61270.08317649483 9.75536303194353 0.22721089394380506
0.5546593296483968 13.07978925757459 52299.85550382424 10.237403947405683 0.2304553832338003
0.574343511559351 13.057842491804669 44322.3036248878 10.739694998374654 0.23373493810421136
0.5944003878342169 13.039511140537908 38322.97062982475 11.263485172861118 0.23705579996596435
0.6148399806064556 13.024483704224469 32897.92431413156 11.809710242410333 0.2404195587041434
0.6356450649958868 13.012440940387322 28056.31668954834 12.379349386814031 0.24382784758237874
0.6568161410346903 13.003018427973249 24367.736440045264 12.973088900143821 0.24727858592883
0.6783486830866963 12.995971887057909 21025.053686639196 13.59226111619014 0.2507766205084961
0.7002379081724973 12.991061535652852 18169.48785054838 14.238061336308588 0.25432455910655793
0.7224733263741635 12.987993457228475 15612.165804505881 14.911679476139193 0.2579243867790457
0.7450624524436853 12.986639277627425 13631.936085992013 15.61414055951824 0.261575952577421
0.7679839272849831 12.98676141633491 11834.218936093643 16.346720266852135 0.26528124552354726
0.7912299446590356 12.988138814521914 10287.304446043392 17.111030428987664 0.2690449111918792
0.8148051690394927 12.99066942669019 8954.87715895532 17.90852639133608 0.27286938275120687
0.8386899773621265 12.994133838994644 7806.311662760823 18.740564586527878 0.2767556605825767
0.8628703965501525 12.998419457540008 6812.914564077749 19.60850753137467 0.2807043858467092
0.8873536740270882 13.003355761039531 5954.316724684889 20.5144328167262 0.28472184142939383
0.9121104131882306 13.008863676858459 5210.174720122292 21.460134961505773 0.288811041455498
0.9371315722505443 13.014747197911884 4564.418902404765 22.447086655126178 0.2929718142990194
0.9624165185694353 13.020958323365253 4003.8370234875606 23.477336619188065 0.2972081451225966
0.9879383535931051 13.027344885653154 3515.8702001638467 24.553296564154884 0.3015260444320307
1.0136819751687496 13.033802677525324 3091.5145104983944 25.676895003430932 0.30592703987197084
1.0396465110833415 13.040257863447925 2720.8811461516057 26.85012136743541 0.31041259849639885
1.0657989739130673 13.046584772384152 2397.693057115137 28.07605960387864 0.31499135535631084
1.0921320508972485 13.05271510699734 2115.2358755122827 29.356747489448264 0.31966363589073765
1.1186312176623354 13.05854582004192 1868.2364243267739 30.694975982997924 0.3244343647427756
1.1452634406215443 13.064002320831047 1651.7422717992588 32.094109550991895 0.329311358988967
1.1720272368316835 13.06901582200215 1461.752646958623 33.55612645813025 0.3342925563340658
1.198884248728396 13.073469142952652 1295.1488954538816 35.08555222570877 0.33939140796992023
1.2258315235057011 13.077335446359195 1143.676267633309 36.68438873061997 0.3446045431499319
1.2528280718568838 13.080502469622841 1019.9463586070034 38.3577099711774 0.349946532059647
1.2798719730149242 13.082942027895442 906.5021453111545 40.107779149177695 0.355414085933339
1.3069163702507527 13.084520281065203 806.63679635103 41.94002491681089 0.36102151371378516
1.3339543514320933 13.085234651668927 718.433639466042 43.857974513303105 0.36677098761102117
1.360963378719964 13.085035950945324 640.4870384777519 45.866276083622004 0.37267003475160815
1.3878951513078321 13.083772569966552 571.690519544637 47.970284181380414 0.3787287278862469
1.4147453070311515 13.081461044112597 510.73537205113934 50.17477974870698 0.38495283872597647
1.4414756340433568 13.078026718832643 456.76881610342156 52.4849384298619 0.39134910614480456
1.4680717315581826 13.07342336750956 408.91226522446954 54.9071998472013 0.3979293394608907
1.494480848405648 13.067556627534529 366.43608490761113 57.44775507330233 0.40470260171786715
1.5206933546437575 13.060407847642335 328.7594350987813 60.113233397712015 0.4116786662126884
1.5466771837819648 13.051917119655212 295.2155936417858 62.910741776938465 0.418868074978831
1.5723934105339652 13.042034008515964 265.40524635812443 65.8479080617023 0.4262822020446876
1.5978073808101099 13.030696433536956 238.85109128413393 68.932928384931 0.4339333220260836
1.6229053855498776 13.017876093548793 215.18283281718155 72.17461914165223 0.44183468468029796
1.6476567675988636 13.003536817799057 194.04885460725146 75.58247404600176 0.4500005961248124
1.672006370389416 12.987598437720333 175.19187960859531 79.16638647580746 0.45844508631626724
1.6959434070323123 12.970043648470408 158.32610684789512 82.93664256668033 0.4671818172654347
1.7194235257918506 12.95082997697092 143.24420180765964 86.90593789598657 0.4762321530735077
1.7424017433224657 12.929877980602829 129.75470179301172 91.08580837807534 0.4856102616963893
1.7648878416076696 12.907235858603794 117.64979874429167 95.4904355941892 0.49533842250131593
1.786813609850318 12.882794827149366 106.80152350147094 100.13340124067301 0.5054338083419462
1.8081517545553134 12.856534287223107 97.05987538738022 105.03127974263036 0.5159223035657178
1.8288609743616224 12.828393869538358 88.30703910577625 110.20061684306224 0.5268264522781968
1.8489401465619806 12.798422156005836 80.4436787182861 115.65910764676426 0.538169851805268
1.868315990813494 12.766480804737828 73.37014444299702 121.42685264864964 0.5499814211495959
1.8869942473652959 12.73265662532507 66.99273876955588 127.52529100304622 0.5622910121488607
1.9049157312070484 12.696835898464586 61.242106804809886 133.9769415097454 0.5751281894830962
1.922056068552177 12.659013814694477 56.06084437154926 140.80747977548867 0.5885292039835603
1.9383695259615266 12.619121623658055 51.379611254731024 148.04458357047034 0.6025323039342021
1.9538645847134475 12.577272950556887 47.153657225596604 155.71670480657727 0.6171730745794898
1.9684782609940443 12.533337060372455 43.3289878112134 163.8575519150927 0.632499308901501
1.9821923177507426 12.487329574698688 39.86998656162996 172.50097765020513 0.6485528122620325
1.9949807431855273 12.439249836154817 36.736384826917096 181.68615254629984 0.6653863250509592
2.0068148899735947 12.389084343457235 33.89492726788353 191.45515896070458 0.68305450543457
2.017660037652109 12.336804890086016 31.321996066241436 201.85404631873072 0.7016166068338268
2.0274946596031658 12.282415643554803 28.9846607812372 212.93270162057954 0.7211350666465728
2.036302599505475 12.225946130966596 26.863464774174854 224.7467850556599 0.741680746855135
2.0440455083195608 12.167342413031351 24.936417213444752 237.35732160727295 0.7633302838094328
2.0507026608839154 12.106630189638501 23.182034343778792 250.83127976567113 0.7861665596848129
2.0562735524718563 12.043877262499317 21.589393394262313 265.24189727391786 0.8102781284643813
2.0607178527447263 11.979023282931832 20.137353256259694 280.6706303266673 0.8357636936179964
2.0640211808611126 11.912122836569308 18.817428704479845 297.2075495755157 0.862731263252072
2.0661802178014392 11.843214285617067 17.614830761784606 314.9529859919829 0.8913010908655998
2.0671699180637133 11.772315944732005 16.520413810034306 334.0162750670258 0.9215987085748049
