M[M_sun], R[km], Lambda[1], P_c[MeV/fm^3], rho_c[fm^-3]
0.24162668629717493 15.618656898711224 2160425.4255784233 3.5677272577965504 0.1711233750220791
0.25363722195713406 15.277449528924016 1723421.0440881464 3.784706848415554 0.17388676758419347
0.2660262396725715 14.981593486315486 1383295.4867472323 4.011164452080252 0.1766637967254266
0.2787956495859736 14.723868064643002 1116778.231226598 4.247359665699794 0.17945323960660828
0.29194262434194157 14.498810648774931 906274.3320789953 4.493915967438306 0.18226163143545654
0.3054705260185753 14.30165890769422 739049.0979539865 4.750980759973645 0.18508451787929814
0.3193770372553734 14.12864825411813 605422.5254626615 5.019249648862154 0.1879288106656899
0.33366916812872194 13.976414505735589 498060.6879094935 5.298928380185432 0.19079077511553777
0.34833936911173136 13.842488787515586 411302.5210055248 5.59076649731127 0.19367713227877065
0.363392422941308 13.724538590844467 335991.21553773154 5.89490476335974 0.19658245602387525
0.3788367294006703 13.62048328407067 283565.424070063 6.212217970173615 0.19951465340456162
0.394657691465816 13.52894193015379 233534.7491406843 6.542983512430171 0.20247025935979865
0.41087237246033786 13.44833431846134 198080.6302495257 6.887863585892933 0.20545230719510743
0.42746960123310584 13.377486906627304 166275.8866616673 7.247580417034218 0.20846419011073017
0.44445254666313033 13.315368787051261 139973.8712800751 7.622421513668289 0.2115019136769939
0.46182126564379006 13.260973868643411 118128.30748818042 8.013278502071273 0.21457075644756246
0.4795745854698673 13.213523268164623 99956.88990332196 8.420881517951193 0.21767278627740483
0.49771853459303267 13.172324203320095 84764.31205786252 8.845709992987342 0.22080603319206005
0.5162436109561069 13.136716361573994 72052.17780041494 9.288559659179812 0.22397281418688186
0.5351479794016992 13.1061271053967 61370.811747563195 9.75034988244333 0.22717657126871202
0.5544429745828267 13.080065553505912 52388.95520930227 10.231888511855594 0.2304186525846151
0.5741083259031223 13.05805469803632 44804.27253149062 10.733701243351307 0.23369645634032854
0.5941562315302426 13.039717172991683 38395.04879297046 11.25692298863368 0.23701479932016004
0.6145747669851485 13.024662349464208 32960.897097026864 11.80254088082552 0.24037595702389206
0.6353605240749565 13.012569299315548 28347.67472016458 12.371531683090048 0.24378155837853221
0.6565144729494446 13.003099189742393 24420.58269346075 12.964658753216666 0.24723040266593882
0.6780342398179944 12.996056273138757 21070.71337371998 13.583098855544327 0.2507256074959367
0.6999055145362872 12.991115929860083 18209.45236287968 14.228117858847588 0.25427061525604044
0.7221235765474237 12.98803601023936 15761.799367483327 14.900902524777651 0.2578674049747947
0.7446936337794707 12.986670495923617 13663.099449464456 15.602579638097199 0.2615168608157789
0.7675969720960552 12.986747611783528 11861.275477601297 16.334218872009235 0.2652189292057135
0.7908258718934017 12.9881121441876 10312.275605184806 17.097525849469363 0.268979242994716
0.8143848135623318 12.990610450668557 8977.403102468494 17.893951759485596 0.27280022716521246
0.8382471980811975 12.994070303186403 7825.204892444664 18.724984534530318 0.27668407830498337
0.8624107061002724 12.998322043294204 6830.814877275513 19.591719558547915 0.28062906880025595
0.8868675078715411 13.003253046390146 5970.099583033658 20.49635616357584 0.2846426267324596
0.9116099345359128 13.008737329788284 5193.194810313278 21.440683340028837 0.2887277552452702
0.9366064660321783 13.014644266702437 4576.854509341142 22.426341073665892 0.29288564896437624
0.9618727153707854 13.020815724568207 4014.8116338220216 23.455036843570234 0.29711757910790365
0.9873803077730828 13.02720059453677 3525.834056838132 24.52933768600363 0.30143086718294926
1.0131061523833382 13.033660119723171 3100.08713399908 25.651369737604718 0.3058285329552588
1.039049320218285 13.040115455099164 2728.87831200259 26.822717799737475 0.31030907275218406
1.0651867398992283 13.046446254699937 2404.738925538975 28.046649527815667 0.3148825546964727
1.0914982239338025 13.052570044141342 2121.6340105001846 29.325435105399038 0.3195509305340622
1.1179787178161564 13.05841579572954 1873.7940578378737 30.661387627184986 0.32431587964117425
1.1445930940341547 13.063865652555329 1656.8512629162292 32.058212937217014 0.32918759136723547
1.1713399620843665 13.068893503542101 1466.3492939686578 33.51778613661958 0.33416334549752225
1.1981835043661238 13.073370131515606 1299.2160853798991 35.04444546810182 0.33925547906658127
1.2251103660717437 13.077242160663825 1152.4875607487984 36.640634778959935 0.3444633996748428
1.252090088940232 13.080429192999587 1023.2301113099405 38.31083737908406 0.3497981355189313
1.2791169014408508 13.082879090491751 909.5396421492433 40.057846720535295 0.35525961168046605
1.3061455272827975 13.084493704794045 809.2206002036748 41.886858065847086 0.36086078226857893
1.3331694676891241 13.085224564159255 720.8282861772884 43.80097747468783 0.36660156293555884
1.360164766898872 13.085051519248973 642.6928596180273 45.80556823087103 0.37249350456234676
1.3870848482126497 13.083831923222284 573.5762036995156 47.90560635350027 0.3785446339096429
1.413921470394321 13.081547066804285 512.5173920633583 50.10542313851667 0.38475849386096683
1.4406492687985035 13.078166255434509 458.3047489162763 52.411013084865246 0.391146134844877
1.4672236246009471 13.073579354965146 410.37597734517254 54.82837861920017 0.3977171668908004
1.4936303407631293 13.067761554569932 367.7461341340027 57.3636843237624 0.40448060862017143
1.519833476683742 13.060669047950311 329.93125464335435 60.02353062691764 0.41144618526135557
1.5458116962787678 13.052226464888722 296.28756378767093 62.81499301667185 0.41862438677158853
1.5715226814373744 13.04239660897497 266.359318619766 65.74566500512431 0.42602653069536955
1.5969376063922442 13.031114209459766 239.7166075346475 68.8237052241345 0.43366483031367226
1.6220315991976373 13.018348493934012 215.96143701377585 72.05788907973634 0.4415524687062074
1.6467803777261765 13.004072570115316 194.75905952088308 75.45766544640053 0.4497036794241146
1.6711350670012286 12.988207065626485 175.84148075265534 79.03321894295979 0.4581338345540459
1.6950656643853927 12.970721643002014 158.91490780024665 82.794442538902 0.46685504201575373
1.7185547119667732 12.951581117406443 143.7776513129055 86.75366295165045 0.47588732524528443
1.741554414396047 12.930736034152208 130.24030839975174 90.92339511539849 0.48524895196910633
1.7640372203402972 12.908152725386831 118.09622804800307 95.31632052082651 0.4949563751523515
1.7859685062274204 12.88378595653009 107.20178024304911 99.94743278331384 0.5050324964789782
1.8073050104362132 12.857582917940583 97.42907447670582 104.83249418735711 0.5155001820224242
1.8280506801723793 12.829583996665884 88.64391444544881 109.98728138508899 0.5263793118921328
1.8481373773466578 12.799681071229676 80.74895767457784 115.43057008049426 0.5376977720556053
1.8675386850467846 12.767866601963158 73.64570730621587 121.18201571301731 0.5494830228713757
1.8862287788491507 12.73411445765911 67.24656096913189 127.26282716942934 0.5617643215136867
1.9041599343993183 12.698359995079878 61.47420198018155 133.69612125090705 0.5745736100232903
1.9213353031360152 12.660743924144976 56.27465571455431 140.4273642480592 0.5955444113730374
1.936567522006438 12.621354269448064 51.7884371513017 147.8727235345793 0.7396840301906877
1.9491978449442042 12.579220123220031 47.978367251315376 155.9056354421117 0.8735114846730836
1.959232439838675 12.53334219752789 44.70985408343355 164.65738747949055 1.0093643420302016
1.9668051897622758 12.483358963829268 41.869856681570255 174.18180427077164 1.1477791311765355
1.9720851309110599 12.429175232742056 39.37904107350164 184.5381195660478 1.2893381334739205
1.9752063877992871 12.370720744194214 37.174132251540755 195.79161957591117 1.4346350993051975
1.9763189271937687 12.308080206096891 35.20705332378533 208.01445281760562 1.5843440476214246
