M[M_sun], R[km], Lambda[1], P_c[MeV/fm^3], rho_c[fm^-3]
0.24162668629717493 15.618656898711224 2160425.4255784233 3.5677272577965504 0.1711233750220791
0.25364157429778283 15.27735165414029 1723215.4388413518 3.784792427441918 0.17388783428547241
0.2660374482135742 14.981309471642449 1383076.1227468054 4.011344351754011 0.17666597070681445
0.2788106303735461 14.723597093862354 1116460.5933977994 4.247639967654998 0.1794564906868826
0.29196277256859754 14.498514859236112 888773.5726321489 4.494304022199282 0.18226595251528283
0.30549694221749074 14.301333810962944 738774.2292136161 4.751489738212393 0.18509001581567616
0.3194109595299832 14.128255386856896 605202.3548322287 5.019883294766972 0.18793538498651724
0.3337083184940996 13.976009664384515 497786.3106004603 5.299703369306132 0.19079857797004374
0.34838538271984576 13.842109280697565 411078.01074581296 5.591684759385966 0.19368601671694852
0.3634456200230251 13.72410852846984 340737.8838203713 5.895986920528036 0.19659261987300877
0.37889728121309474 13.620110657531606 283373.564499033 6.213477110419144 0.1995261352474973
0.3947257514116792 13.528573485898123 236461.45880324545 6.5444183232517785 0.2024828407123697
0.4109484834256682 13.448011436177897 197923.7996505262 6.889501755748401 0.20546625853702788
0.4275527905155838 13.377185849040693 166131.3396376639 7.249437309037653 0.20847955170239393
0.4445462837750031 13.315043110534068 139845.9535053171 7.624491990784883 0.21151839600615438
0.46192424721573655 13.260664789603345 118016.56884946159 8.015598664454496 0.2145887047793674
0.4796864283147302 13.213243709940185 99846.7155966037 8.423469446698299 0.21769224388372502
0.4978392293301233 13.172078147272162 84674.0492861334 8.84855614208437 0.22082664052758846
0.5163745523454948 13.136481092071707 71964.06191214173 9.291710069805646 0.22399499327409295
0.5352893040379777 13.105915771832933 61299.91421996606 9.753825901742303 0.22720036993679701
0.5545925449081208 13.07989443002058 52321.80778274543 10.235712783515826 0.23044412074201903
0.5742707120507619 13.057916060192305 44749.953351611075 10.73785714896865 0.23372313854173032
0.5943255481266999 13.039567805337716 38346.1308177216 11.26147300048437 0.23704322787654156
0.6147585333173322 13.024549165234804 32917.0723511844 11.807511860854351 0.2404061888763644
0.6355555920511609 13.012484188034753 28308.093408127068 12.376952168351595 0.24381365347398193
0.6567245970089768 13.003055945468562 24383.46850065854 12.970503853132419 0.24726381086016125
0.6782517938484782 12.995999250437032 21038.274314598162 13.589451534031411 0.2507609775077684
0.7001358999213191 12.991077595561434 18181.79690894062 14.235012155447647 0.25430801715157203
0.7223661568185418 12.988008211871458 15737.208383489351 14.908374665199535 0.25790691299784985
0.7449495714064065 12.986658167652415 13544.913110508342 15.610595300671916 0.26155783156586176
0.7678659052611362 12.986757720094564 11842.256972797364 16.342886552256207 0.26526213541781535
0.7911052263428824 12.988131346127501 10294.55154548201 17.10688901928697 0.2690247729189037
0.8146764231812471 12.990642891122967 8961.630254260564 17.904056771682615 0.2728481747255443
0.8385546117961153 12.994111429713444 7811.770900948483 18.73578658093361 0.27673370811907755
0.8627297223308552 12.998390585672588 6818.749090851515 19.60335901755086 0.2806812877121795
0.8872014859714228 13.003322205024737 5959.29836018565 20.508889016699502 0.28469754763809707
0.911958748434049 13.00880999429773 5214.467941281662 21.454169400637525 0.28878549865140896
0.9369720920286176 13.014704231833619 4568.15348091444 22.440724182870866 0.29294538821151317
0.9622467788156038 13.020905966888234 4007.3129140318842 23.470497395880365 0.29718036900461275
0.9877668129872901 13.027299394532697 3518.8869386086835 24.54594840055345 0.30149685366637924
1.0135048856370368 13.033759061197866 3094.212965463234 25.66906634207541 0.3058968275600848
1.0394633954683017 13.040215064651932 2723.3898778516304 26.84171650761628 0.31038084644946146
1.0656135743936035 13.04654942806999 2399.8339987096238 28.067039205764072 0.31495798498131533
1.0919376616676792 13.05267263371771 2117.2508376927267 29.347143521355637 0.3196290675024706
1.1184314992676974 13.058508369285551 1869.951205462302 30.68467379141209 0.3243980230943912
1.145057988707276 13.063963005818106 1653.1745856377506 32.0831427583165 0.32927367816951997
1.1718169869665207 13.068980363282032 1463.1984875826558 33.544366434835695 0.334252923843054
1.1986671882859723 13.073440973748422 1296.372778492987 35.07294347182537 0.33934971423906873
1.2256101834530353 13.07730548607525 1149.896608372991 36.67096783357235 0.3445612494135665
1.2526023099925432 13.080478714283608 1020.9695973943022 38.34335423672475 0.34990114179553305
1.279639885146718 13.082925378728769 907.4181121817917 40.09246266452616 0.3553667018467341
1.3066805820770522 13.084512273263979 807.3833024740641 41.923716082852756 0.3609722096379522
1.3337137812842934 13.08523645850618 719.1785667743941 43.84049049675528 0.36671901607177354
1.3607182609859445 13.085036198821816 641.130453964197 45.847653516693185 0.37261588285666364
1.3876467708685 13.083788683928425 572.2731287826574 47.95044352851256 0.3786722549834829
1.414499945245566 13.08150589629053 511.22679127635564 50.15350347078668 0.3848932202505495
1.4412282719583902 13.078081783980414 457.2317197895962 52.46226029974454 0.3912868404962634
1.4678143369068914 13.073472746706182 409.36408330156604 54.88301945778782 0.3978642502013378
1.4942198431038147 13.067615974721532 366.83585132317245 57.42196388483667 0.40463449877062235
1.5204304032602862 13.06048758564879 329.11693691148014 60.08571400968616 0.4116073447423292
1.5464119407069492 13.052012017193592 295.5522658760608 62.88136712735218 0.41879331416024573
1.5721271916752877 13.042145747587975 265.6976017454899 65.81654054558751 0.42620376370923246
1.5975495823450072 13.030832038101373 239.1265856662575 68.8994188830671 0.43385094917153627
1.6226378610410408 13.018030967614125 215.42304388443708 72.13880594928347 0.44174809982971397
1.6473881560738357 13.003704573360883 194.26735057099512 75.54418169010422 0.44990949951759646
1.6717381782647425 12.987786182419535 175.38313090501717 79.12562433335081 0.4583499887042651
1.6956755206622138 12.970256645576484 158.499557816873 82.89301298286772 0.46708155660890327
1.719148879957373 12.951056558439037 143.41670948376097 86.85921630244849 0.47612635165160533
1.7421451081731008 12.930144506463277 129.90266677503323 91.03597532635403 0.4854994014991964
1.7646289868609273 12.907521481237834 117.77996510780429 95.43701108074909 0.49522119718971414
1.7865549367200109 12.883098451166443 106.91708056087786 100.07633874900435 0.5053106699605113
1.8078961814661507 12.856862788331377 97.17237316619648 104.97028340715562 0.5157927777194838
1.8286106509891775 12.828751328391604 88.41045777188302 110.1352646467858 0.5266896562371287
1.8486928503203257 12.798810243536185 80.53828048584079 115.5889793393147 0.5380249909214956
1.8680837983052831 12.76692779007043 73.44806318899604 121.35172134592169 0.5498284813497927
1.8867598247958468 12.73310402363531 67.06812655275868 127.4447810498466 0.5621295014998486
1.9046868659166143 12.697313700995753 61.31129944163938 133.8907952445173 0.574958110007358
1.9218348482503465 12.659526484876881 56.124301191788184 140.7149526343433 0.5883489259263156
1.938155953690552 12.619663350695744 51.4381087018548 147.9451215280076 0.6023409837469799
1.9536610454286043 12.57785836688935 47.206568772002385 155.61002690878746 0.61697090928457
1.9682839409553985 12.533953018889163 43.376652772462705 163.7429093712155 0.6322850003449784
1.9820103144942014 12.48798729283477 39.91497842894754 172.3775207958096 0.6483248626788843
1.9948088895901988 12.439938298806721 36.77653764141351 181.55333148175652 0.6651443896402252
2.006648387338955 12.389795740514467 33.93430796486757 191.31211128128808 0.6827973469056842
2.01751157576816 12.33757198471558 31.354685971550687 201.69982069892475 0.7013428715717741
2.0273600766547624 12.283222025835077 29.017015915913525 212.76663634978533 0.7208445453906879
2.036181050020259 12.22678803218786 26.893278791193534 224.5673432880658 0.741370577487946
2.043937674560604 12.168228814288407 24.963742490605878 237.16362925529234 0.7630000205564234
2.050609911117621 12.107559647304443 23.20750613312028 250.62169181417246 0.7858135159998343
2.0561904959379156 12.044826829195058 21.611641994566508 265.01492229355665 0.8099004289100918
2.0606581034009093 11.980036550378076 20.158779240464167 280.4251328863046 0.8353609769058041
2.063984761919133 11.913189635070905 18.837375858022885 296.9412338529091 0.862299784062701
2.0661544028475474 11.844313108478962 17.63299302203233 314.6636868651992 0.8908379798643781
2.0671627187460815 11.773457711806094 16.536469727951694 333.7020847377782 0.9211024700471047
