M[M_sun], R[km], Lambda[1], P_c[MeV/fm^3], rho_c[fm^-3]
0.24162668629717493 15.618656898711224 2160425.4255784233 3.5677272577965504 0.1711233750220791
0.25364535829256485 15.277252575808292 1723225.7752260503 3.784849293193015 0.1738885430896269
0.2660428370669132 14.981209555160115 1382867.894079577 4.011463895100737 0.17666741531760996
0.2788199210826202 14.723424789799383 1116336.7338639563 4.247826233128955 0.17945865108568443
0.2919763270272059 14.49831999953774 905796.3656299135 4.49456189774869 0.18226882401937525
0.3055133722899769 14.301136671063936 738599.0518492798 4.7518279801341485 0.18509366947397554
0.3194322932829538 14.128018347204186 605018.4890042264 5.020304394839665 0.18793975406230112
0.3337329894634322 13.975827165162546 497603.7201665101 5.300218414192934 0.1908037636174398
0.34841578662627715 13.84186033238462 410915.93393726216 5.592295035233429 0.1936919213036538
0.363481634028606 13.723840201726134 340601.49626544927 5.896706138313932 0.19659937491865662
0.37893650952112556 13.619890562840684 283252.0663645756 6.214313973962302 0.19953376643536158
0.39477140837305624 13.528331813874486 233239.5762230064 6.545371963879647 0.2024912028523707
0.41099908132074975 13.447752901210032 197808.7689716106 6.890590583775202 0.20547553145341307
0.4276088915323007 13.376967381933813 166037.4767731331 7.250671542183298 0.208489762196901
0.44460743235937195 13.314846635212819 139760.7537679789 7.62586821794773 0.2115293516592818
0.46199021291980374 13.26046815423333 117936.178465463 8.017140890743596 0.21460063514654998
0.4797597670756577 13.213085274543547 99777.72478505946 8.425189698493671 0.21770517777235832
0.4979195902137091 13.171931617387038 84610.79472343296 8.850448076709199 0.22084033894263372
0.5164620549814821 13.136326442240152 71916.23067445359 9.293804305192015 0.22400973682177333
0.5353829834472235 13.105781054035193 61253.703310753226 9.756136637738443 0.22721619045857044
0.5546922523295512 13.079771474895608 52282.421027463926 10.23824966350141 0.23046098178223715
0.5743790208860942 13.057809109436466 44711.004027583134 10.740619965395888 0.23374087667900662
0.5944395744636577 13.039486526028023 38312.42672583948 11.264497883527804 0.23706212740053612
0.6148804542668639 13.024482184770182 32888.60822992571 11.810816680566024 0.2404262876941813
0.6356872655336144 13.012404923137503 28278.95568214746 12.380555909671598 0.24383499149374596
0.6568616661000513 13.002990817993613 24359.852178033314 12.974389967078185 0.24728602229389923
0.6783966042353252 12.995961101388152 21017.995765531774 13.593675205310456 0.2507844937778609
0.7002893453122544 12.99104451232678 18163.36602297472 14.239596031326778 0.25433288490193245
0.7225264899998738 12.987993958498732 15721.546207018746 14.913342848101552 0.2579331816536235
0.7451192602870506 12.986651186850317 13627.129773447237 15.615924966441336 0.261585073281968
0.7680435996886696 12.986756831787046 11829.918272725901 16.34864987706105 0.26529086414647574
0.7912920792829624 12.988156174804319 10284.573552330514 17.11311492888325 0.26905504740900055
0.8148699584860056 12.99068645145374 8951.259259367122 17.910776109602537 0.2728800575035186
0.838757506355875 12.994150314990145 7803.476192270152 18.7429695439718 0.2767667101176732
0.8629426877055087 12.998416242489885 6810.321249328077 19.611099003432003 0.28071601214747455
0.8874276351867074 13.003375490209137 5952.041023573542 20.517223278834123 0.28473406966701875
0.912187350674045 13.008879595030661 5208.195937734981 21.46313774350535 0.2888238984984536
0.937211576377519 13.014764607173289 4562.9168636452905 22.450289247220578 0.29298511604330013
0.9624987669122642 13.020984988317652 4002.0078589654436 23.48077921867445 0.29722212654200675
0.988023617753457 13.027358056751746 3514.285783313207 24.55699537866688 0.30154073806617715
1.0137703251279149 13.033820728868683 3090.1387619641637 25.680835713629083 0.30594224783156343
1.039739099257735 13.040275672802062 2719.679747223605 26.854352158151514 0.31042858166188775
1.0658937751576152 13.046603478921893 2396.6200368028594 28.080600283810536 0.3150081533058179
1.0922301525834972 13.05273662453732 2114.377698565128 29.36158196343638 0.3196810370287127
1.1187319904250903 13.05856563538246 1867.1204482502972 30.700161980847028 0.3244526586862326
1.145368013780868 13.064029635954656 1650.9157900828775 32.099630144218494 0.32933032720353705
1.1721331233479035 13.069030885178844 1461.128062144096 33.562046415440946 0.3343125072005759
1.1989933065309712 13.073492845868952 1294.5283603842827 35.09189949452517 0.3394123966671476
1.2259413767170622 13.077356076514494 1148.2076561754577 36.69114488872582 0.3446263374701506
1.2529429785459116 13.080515094631574 1019.3936706372849 38.364902442341496 0.34996918046182535
1.2799886638204359 13.082945045204685 906.0636241048479 40.11548970058326 0.355437939803459
1.3070415391666026 13.084550910367888 806.191101647895 41.94823510188636 0.36104633434710587
1.3340746454827503 13.085238915518188 718.0336658573941 43.866776401796194 0.36679715137562413
1.361086608510686 13.085027371274297 640.1507525794298 45.875651229280486 0.37269729640166577
1.3880272117336574 13.083780361140112 571.3434599138486 47.98027263681373 0.3787571582547537
1.4148721166208673 13.081452309909938 510.4429159435538 50.18549106545225 0.38498285301590823
1.4416051445327398 13.078005066166241 456.52560903493224 52.49635560065926 0.39138045341816985
1.4682010001719255 13.073399826986686 408.69081669966977 54.91937343735754 0.39796210857621883
1.4946125493259195 13.067522050906556 366.24794270726915 57.460739744539026 0.40473688840385685
1.520825613597925 13.060366649848861 328.5907581642469 60.12708827498425 0.4117145736324963
1.5468106683601213 13.051871131183733 295.0509334556214 62.925530851861765 0.4189057143502944
1.5725284792932444 13.041978764994344 265.24790425861516 65.86370063666322 0.42632169332247805
1.5979415937282797 13.030634178493965 238.71792096203333 68.94979956245692 0.43397479465250544
1.6230509280378203 13.017817727625259 215.05130346782428 72.19265036417407 0.44187827841223404
1.6477928972743718 13.003453345900011 193.92702747582294 75.60175369178256 0.4500464619452298
1.672141238430919 12.987504965415424 175.09639858969655 79.18690981794302 0.4584929670386672
1.696077865326909 12.969943375865164 158.2346402628778 82.95860989397382 0.46723229811957584
1.7195563501159474 12.950715647341925 143.16088356813998 86.92946231957148 0.4762854243186909
1.7425399373406294 12.929763498645745 129.6763214292732 91.11089968872461 0.4856660806268045
1.7650186898138684 12.907095958139942 117.57633650791607 95.51733557074938 0.49539744705636185
1.7869303561105971 12.88261305964889 106.73561987213864 100.16213330773961 0.5054958108961705
1.8082803059111867 12.856367555085122 97.00356983951704 105.06199292782541 0.5159875230788569
1.8289857780212797 12.828207469828786 88.26322157375851 110.23347370162377 0.5268951472292694
1.8490640913101062 12.798228352451291 80.40064433412698 115.69441991961038 0.5382427947756395
1.8684360367529473 12.766270615979977 73.32228561409956 121.46468459669234 0.5500584331319486
1.8871119845914737 12.732429451576337 66.95201665600558 127.56571120855796 0.5623719099899732
1.9050291986802215 12.696596045259518 61.2054078024417 134.0203210558204 0.5752138341762777
1.9221667766908273 12.65875724728851 56.02787498042599 140.85407310303873 0.5886199855041748
1.9384758029238154 12.618858343160678 51.353759315441536 148.09466978230208 0.6026286472546049
1.9539647456759053 12.576980385771762 47.12327985619808 155.77042542535827 0.6172748805295896
1.968575259204509 12.533024655362981 43.3040945825696 163.91523257598635 0.63260705685541
1.9822855027206556 12.48700350732498 39.84725425836599 172.56314961685885 0.6486676060007164
1.9950661377440648 12.438899780883732 36.71522511797297 181.75304125204931 0.6655081637559463
2.006896060023788 12.388717480186278 33.87563098598463 191.52719889985343 0.6831840124971671
2.017735326592615 12.336418355284355 31.30279683650466 201.9317167973272 0.7017544642717746
2.027564103429784 12.28201205599323 28.968305515279873 213.0163360067167 0.7212813800014334
2.036364209874856 12.225517844509772 26.848574325127366 224.83715771573176 0.7418369581495371
2.0440988440251573 12.166897984803514 24.922822272906778 237.45487293317217 0.7634966177813084
2.0507492700817105 12.106163057895891 23.170141163396607 250.93671476146463 0.7863439666235464
