M[M_sun], R[km], Lambda[1], P_c[MeV/fm^3], rho_c[fm^-3]
0.24162668629717493 15.618656898711224 2160425.4255784233 3.5677272577965504 0.1711233750220791
0.2536439901133307 15.277298678683636 1723264.016345978 3.7848197877367857 0.1738881753183489
0.26603995628843186 14.981260576097815 1383017.0229462325 4.011401868327064 0.17666666576065582
0.27881486440630276 14.723530746619959 1116483.0485134476 4.247729586147389 0.17945753012634216
0.29196946805032725 14.498416180466352 905878.1691041201 4.494428094026187 0.18226733408387097
0.3055044846579734 14.301244920368523 738658.8867997453 4.7516524759039465 0.18509177369333452
0.3194210556621792 14.128146967642458 605112.9994753998 5.020085896831524 0.18793748706113417
0.33371839800916503 13.975963946405397 497669.30735317385 5.299951169359182 0.1908010729054033
0.34840000956443495 13.842034975671474 411010.514576637 5.591978375856223 0.19368885753706935
0.36346300263298537 13.723985334490067 340646.48255401273 5.896332949502482 0.1965958698503643
0.3789159840069558 13.620008384489694 283304.60364739137 6.213879738932683 0.1995298067347445
0.3947472916875236 13.528473913954032 236411.8091122403 6.5448771330075965 0.20248686385410658
0.41097262237128895 13.447884777547053 197874.3272782514 6.890025603476441 0.20547071984410406
0.4275807374091554 13.37706535750834 166084.83476493636 7.250031109957598 0.2084844640652265
0.4445756605550075 13.314950898138013 139805.5347245313 7.625154103448743 0.21152366684869575
0.4619568416855226 13.260574389354485 117980.1987528615 8.016340636927033 0.21459444453630147
0.47972149025308697 13.213155371043458 99812.11256361182 8.424297064154901 0.2176984664100107
0.49787805936214324 13.172017954443941 84647.12143238726 8.849466352771705 0.2208332308418679
0.516416613765193 13.136401464026653 71940.21651260083 9.292717602754745 0.22400208636886695
0.5353353360306248 13.105847724700634 61278.1842550356 9.754937587544594 0.2272079811262491
0.5546407806719149 13.079831555816188 52301.50232679335 10.236935867784998 0.230452266006125
0.5743236909607585 13.057854765151063 44731.72974962147 10.739186317307496 0.23373167221419053
0.5943812081502401 13.03954003056205 38329.55037036154 11.262928240186058 0.23705232024053213
0.6148164292980628 13.024506221996267 32625.611592914385 11.809101767816 0.24041585816339242
0.6356205259226012 13.01244742737096 28292.98179840312 12.378685874705546 0.24382391887794982
0.6567907287169225 13.003015122438608 24371.694363583054 12.972373397488244 0.2472744964090564
0.678322647742963 12.995973270192234 21028.591520486065 13.591483462220495 0.25077229073953905
0.7002095780520632 12.991055072048963 18172.631850866583 14.237217361087572 0.2543199804997937
0.7224445690958522 12.987993297458871 15730.517972727766 14.91076474179124 0.25791955023373636
0.7450318228330207 12.986652539434875 13634.476597269533 15.613159268434114 0.26157093686831506
0.7679517678985286 12.986759375389504 11837.053933145005 16.345659129654525 0.26527595602075954
0.7911955339285134 12.988141943193442 10289.106368411174 17.10988411967826 0.26903933707788047
0.8147687882009315 12.990664961964855 8956.712977170182 17.907289230794095 0.27286351251289637
0.8386525510207984 12.994127037616881 7807.665279558877 18.739242062187564 0.2767495842675255
0.8628323415543545 12.998406925914415 6814.880021424902 19.607082446332225 0.2806979923888778
0.8873118176232682 13.0033532943603 5955.700500491092 20.512898311599756 0.28471511699000096
0.9120677252121125 13.008851972976423 5211.358153587866 21.458483707178956 0.28880397126265234
0.9370879180772372 13.014729951557923 4565.440543232738 22.44532553033802 0.2929644995892818
0.9623661895392955 13.020935551450876 4004.641277691811 23.47544352190618 0.2972004566920408
0.9878901493249057 13.027328349229146 3516.6566010769216 24.551262583121172 0.3015179643909599
1.0136313202407568 13.033793933726955 3092.0844639216575 25.674728012194798 0.3059186770354516
1.0395963394410357 13.040244890776112 2721.588502569531 26.847794872647803 0.31040380941802215
1.0657469151283285 13.046570111632116 2398.478574918181 28.07356271453888 0.31498211827691236
1.0920781103599395 13.052705158860876 2115.887208579952 29.35408905532706 0.3196540671601882
1.118575987123794 13.058535983304743 1868.684145364923 30.692124263321585 0.32442430511683046
1.1452062683834667 13.063993626137803 1652.1970433898352 32.091073853573015 0.3293009286316399
1.1719687901485711 13.069006501685116 1462.118777221106 33.55287117259727 0.33428158568618566
1.1988251877696987 13.073457494147219 1295.5813870673294 35.08206198678665 0.3393798666960107
1.2257703320664766 13.077328045897888 1149.1374988822406 36.680673667171746 0.34459255893032736
1.2527654869645861 13.080496843415268 1020.2417140501866 38.3537550056783 0.3499340782524392
1.2798071722324966 13.082938389188579 906.7502793435848 40.10353932666718 0.3554009693389246
1.3068512742956508 13.084518695782709 806.8051093672973 41.935510379288615 0.3610078655829059
1.3338887312806298 13.085236324501302 718.6358957037903 43.85313464230612 0.36675660101142116
1.3608950717639077 13.085036277993005 640.6611255185026 45.8611210208043 0.3726550445291966
1.387826274738514 13.083778916309027 571.8312475797661 47.964791906668175 0.37871309509947104
1.414682870661692 13.08148480525094 510.8660419422782 50.16889003382914 0.3849363350958288
1.441405559412205 13.078034975600247 456.8978356942192 52.47866062508161 0.3913318696449681
1.4680005408035717 13.073435862504839 409.0409989067073 54.900506153409424 0.3979113212410375
1.49440870522248 13.06757417057555 366.5531427349553 57.44061543954257 0.404683749151149
1.5206206912078442 13.060427892845718 328.8543847108916 60.105615319558204 0.411658922585587
1.5466039140306072 13.051944684231476 295.3077420533644 62.90261007475284 0.4188473791502696
1.572319480911624 13.042066047253268 265.4813201543666 65.83922463653504 0.42626048807110817
1.5977439503285789 13.030740488215656 238.93844328386572 68.92365194954576 0.43391051874879794
1.6228317417017546 13.017918657403936 215.2540572032592 72.16470492385766 0.4418107152709931
1.6475825340220982 13.00358497408414 194.10448492793438 75.57187346111562 0.4499753775845843
1.6719319330421312 12.987649827321043 175.24406717384693 79.15510212120154 0.458418760046073
1.695869124936994 12.970104891125892 158.37447216991893 82.92456433847643 0.4671540615321996
1.7193494115510948 12.950894171558804 143.286651522618 86.89300361457204 0.4762028632898913
1.742335150518186 12.929956070689386 129.78497462609613 91.07201265980646 0.48557957130126245
1.764814892483674 12.907312136542568 117.68386032997641 95.4756455307694 0.4953059697997122
1.7867416160360803 12.88287833086258 106.82694549309385 100.11760395368911 0.5053997184819808
1.808081071163934 12.856625035608072 97.0916904843012 105.01439330992983 0.5158864451904829
1.8287915558332772 12.828494513292398 88.33464206518947 110.18255190709691 0.5267886833025064
1.8488714350551665 12.798531516099128 80.47068638546932 115.6396928470754 0.5381297475286431
1.8682584667626492 12.766626115971501 73.37927493299574 121.40605265952655 0.549939079994087
1.8869279135318802 12.732780942623124 67.01160172707414 127.50303514810034 0.5622464170102264
1.9048517981917226 12.696969266774172 61.25987441928032 133.95309176033354 0.5750811026724757
1.9219953999183845 12.659154801741147 56.078718768309436 140.7818632978202 0.588479293343608
1.9383095039466103 12.61928331823944 51.39555641168191 148.01704695001035 0.602479335874715
1.9538078732844897 12.577431214462713 47.165287261386574 155.68717024844767 0.6171171036353833
1.968425669614022 12.533508085194422 43.341976957032244 163.82584042879654 0.6324400715815589
1.9821417780496016 12.487512117616962 39.88247745266474 172.46679722880626 0.6484897018511294
1.9949303385382688 12.439442751920112 36.745910784232265 181.6493792755854 0.6653193420284625
2.006768752915429 12.389285972145357 33.90418973232335 191.41555402301188 0.6829833071630901
2.0176190421876017 12.337016861668952 31.330107087010703 201.81134626924208 0.701540818457997
2.027457087944073 12.2826359261317 28.99326215365748 212.88672322143492 0.7210546301880695
2.036268979657585 12.22617698551754 26.871819426805214 224.69710270215796 0.7415948697243379
2.044016301043482 12.167587594848966 24.942647091672686 237.30369324347265 0.7632388425227679
2.0506771475394046 12.106887423034395 23.189009027215988 250.77331791126048 0.7860690319609587
2.056253119351621 12.044147472944337 21.59553520293493 265.17905271748714 0.8101735514712888
2.060700902237014 11.97930403614066 20.14349103054978 280.6026641825821 0.8356522133227151
2.0640089316270935 11.912414850781245 18.82258191740563 297.13381109406026 0.8626117936995708
2.066172487344065 11.843518921604684 17.619753643252462 314.87288300279334 0.8911728617349528
2.06716783798812 11.772634667071376 16.524797375119427 333.9292792102847 0.9214613055682622
