M[M_sun], R[km], Lambda[1], P_c[MeV/fm^3], rho_c[fm^-3]
0.24162668629717493 15.618656898711224 2160425.4255784233 3.5677272577965504 0.1711233750220791
0.253646000076354 15.277224233078659 1723104.250146759 3.7848574572832208 0.17388864485107283
0.266043594339734 14.981203396102869 1382855.6984314064 4.011481057883994 0.17666762271971687
0.2788215022768245 14.723366866654954 1116357.0596741268 4.247852975492172 0.17945896125679786
0.29197865834307263 14.498281677512738 905772.2411508537 4.494598921683339 0.18226923628948039
0.3055159986460688 14.301084798873232 738531.8892420891 4.751876543065161 0.18509419404631422
0.319436291491407 14.127957931583596 604993.5220998643 5.020364854757365 0.18794038135728267
0.3337357863174693 13.975809379370409 497568.8871457751 5.300292363182038 0.1908045081610565
0.3484202724733396 13.841864958842823 410905.8862094973 5.592382658196867 0.19369276907992933
0.36348557967705764 13.72382695047161 340560.7178107387 5.896809404226394 0.19660034481395985
0.3789422917838595 13.619845064280998 283216.91522232466 6.2144341328763995 0.1995348621399774
0.3947775904869728 13.52832263323855 236334.43827978885 6.545508891308956 0.20249240352094586
0.4110064187678116 13.447741556819993 197801.79325044047 6.890746923623105 0.20547686290916328
0.42761819748570623 13.376909826443923 166012.2916171242 7.250848761988646 0.20849122829093308
0.4446167262170336 13.314796313287342 139751.5714235131 7.626065828141566 0.21153092476348767
0.4620000656309645 13.260445193990433 117929.5262918421 8.017362338813864 0.2146023482264066
0.4797703018607818 13.213046077849212 99768.3136168851 8.425436711815719 0.21770703496722182
0.49793104647614705 13.171884674529084 84604.69141743268 8.850719744710647 0.220842305935039
0.516474306650739 13.136304690738019 71908.86791918146 9.294105025220576 0.2240118539095221
0.5353968828918045 13.105754888739686 61245.74749175781 9.756468449421945 0.22721846221699385
0.5547077703507585 13.079727482448803 52277.59503758146 10.238611179855374 0.23046336733342174
0.5743940104014992 13.057777783039725 44707.14383859659 10.741016701464025 0.2337434238474575
0.5944558420059779 13.039456384770705 38308.75117986335 11.26493225637977 0.23706484136997574
0.6148971291883724 13.024454840932439 32884.01281226584 11.81129125712774 0.24042917391149005
0.6357062687912899 13.012392518692476 28275.101477293105 12.381073417049501 0.2438380556933311
0.6568813754609658 13.002998063623233 24356.07214910739 12.974948028739991 0.24728921194551415
0.6784170016066262 12.995958071258032 21014.892862600314 13.59428174771839 0.2507878708434858
0.7003117495256593 12.991048508965498 18160.21193220238 14.24025430777455 0.2543364560837888
0.7225504579991502 12.98800381725026 15718.836469547865 14.91405632095959 0.2579369540535696
0.7451436066299945 12.986650064481319 13625.052908587568 15.616690357715102 0.2615889854544554
0.7680688502655203 12.986755244716672 11827.667902780015 16.34947755435561 0.26529498991020045
0.7913198445548447 12.988145148039452 10282.52520909755 17.11400904759346 0.2690593952055143
0.814898573829879 12.990681552013084 8949.985039052368 17.911741100681436 0.27288463631718785
0.8387879677311475 12.994149723509867 7801.942194240638 18.74400112673952 0.27677144970673556
0.862973017815683 12.9984323935472 6809.398463702033 19.612210594584617 0.28072099915593246
0.8874584081134645 13.003385641082323 5950.895879728837 20.518420230349033 0.28473931489414733
0.9122215855596424 13.008880214670418 5207.267714752488 21.464425773931488 0.28882941347174146
0.9372457815309534 13.01477569501633 4562.121879534506 22.451662990174807 0.29299082178944136
0.9625346769853527 13.020986812609447 4001.3775254667144 23.482255918620453 0.2972281238592578
0.9880604579832097 13.027381669695925 3513.7063144916015 24.558581988843315 0.3015470409152089
1.0138087205582487 13.033827523637772 3089.6423209324685 25.682526091261778 0.30594877132439635
1.039776725242961 13.040298987157671 2719.1815614309403 26.856166974709335 0.31043543771205
1.0659348484649154 13.046615857551062 2396.3519526216173 28.082548037561708 0.3150153588938917
1.0922715654605524 13.052743935757247 2113.794953072506 29.36365574964839 0.3196885013857647
1.1187749275154228 13.058579989728452 1866.767654650458 30.702386566295147 0.3244605060555504
1.1454122586475788 13.064036966699842 1650.563985302306 32.1019982665688 0.32933846383868204
1.172179950411706 13.069034253098204 1460.8437910960113 33.564585861603675 0.33432106539597223
1.199039505010892 13.073491215881383 1294.3015820538085 35.094622254757006 0.3394214000970923
1.225991216527354 13.07735658985169 1147.9947828106967 36.69404305969972 0.34463568652108517
1.25299053721701 13.080516713531436 1019.2478653685081 38.367987789544046 0.3499788959243846
1.2800383218240063 13.082950437873663 905.8647323809697 40.11879730451443 0.35544817242502297
1.3070923393115723 13.084553066165663 806.0042069772995 41.95175704858767 0.3610569817255565
1.3341269878173094 13.085238895401977 717.8708487589058 43.87055219241943 0.3668083749780515
1.3611389065779418 13.085026487258576 640.0007528909912 45.87967294988206 0.3727089910188657
1.3880796204663888 13.083777419968737 571.2093156103722 47.98455747151549 0.37876935427748964
1.414926302903515 13.081446218353033 510.3226223713649 50.19008601671282 0.38499572857571446
1.4416596820405685 13.077997033281504 456.39748126314583 52.50125337172889 0.3913939008624909
1.468257090074005 13.07338900478764 408.5905664862977 54.92459572316123 0.39797616603039476
1.4946623893028086 13.06750653168036 366.16403550332194 57.64399261738754 0.40390535137595124
1.5046169431848466 13.053195501353382 348.380670930657 61.05075919686507 1.4607282140487705
