M[M_sun], R[km], Lambda[1], P_c[MeV/fm^3], rho_c[fm^-3]
0.24162668629717493 15.618656898711224 2160425.4255784233 3.5677272577965504 0.1711233750220791
0.2536438683196912 15.277271932248617 1723320.7362408126 3.7848164920009233 0.17388813423859129
0.26603956616847246 14.981282053265877 1383047.5515508743 4.011394940028667 0.1766665820362585
0.278814363884964 14.723542718020855 1116432.289987155 4.247718790887344 0.17945740491759374
0.29196793934658727 14.498457683645672 905887.1426756805 4.494413148524569 0.1822671676622418
0.3055049273692957 14.301185325750687 738666.9020663869 4.7516328726873 0.18509156194118143
0.31941849647793713 14.128188870375078 605132.484771251 5.0200614914937365 0.18793723384633504
0.3337178959092648 13.97595022647046 497681.3632368223 5.299921319370253 0.19080077236554488
0.348398236874335 13.842049986733153 411019.5814815592 5.591943006684273 0.19368851533060102
0.36345930738675125 13.724032461689943 340660.6228534924 5.8962912665257505 0.19659547835502578
0.37891386698747564 13.620016679716908 279404.03454352025 6.2138312377246265 0.19952936446212627
0.39474512847873694 13.528483522129514 236409.81769757796 6.544821863921035 0.20248637921888232
0.4109707349807072 13.447898168006901 197873.93706362034 6.889962499541501 0.20547018242451356
0.42757735408663994 13.377074759996349 166084.2534074734 7.249959579012111 0.2084838723080463
0.44457228602005777 13.314946492408632 139812.18582576307 7.625074343193224 0.21152303190577615
0.46195303062855775 13.260607165711482 117988.20588024553 8.016251256149197 0.21459375310372364
0.47971719465337104 13.21316764705166 99816.4020467639 8.424197365874871 0.2176977168183205
0.4978740199477624 13.171994704009235 84648.04569128226 8.849356704589486 0.22083243694217955
0.5164120248111778 13.136409797504339 71943.54206610745 9.292596230218319 0.22400123189864382
0.5353293640027195 13.105852147184612 61280.24053398671 9.754803667714803 0.22720706424020645
0.5546365606715434 13.079821281007513 52303.96646215577 10.236788527717438 0.2304512847787526
0.5743169190563747 13.057864023684052 44733.972256538094 10.73902619719277 0.233730644193455
0.5943735308024973 13.039529622923324 38331.29229589709 11.262752932047148 0.2370512249121078
0.6148094064862508 13.024510798714172 32903.99819002065 11.808910236014503 0.24041469333047555
0.6356139549343327 13.012434941146848 28294.839671328158 12.378477018992164 0.24382268222777317
0.6567820305699092 13.003024021831179 24373.01953841743 12.972148176961555 0.24727320914088188
0.6783131047719291 12.995982467965643 21029.431701035486 13.59123867869756 0.2507709278504648
0.7002005284472642 12.991069961617834 18173.15554522386 14.236951702077002 0.2543185392866959
0.7224348915207006 12.987992818121654 15731.346728788843 14.91047681047165 0.25791802783231316
0.7450210602806074 12.98665537562077 13635.351099421954 15.612850387572106 0.26156935807423726
0.7679412115731296 12.98675947940406 11837.538647104038 16.345325116360762 0.26527429104826356
0.7911847807686312 12.98813894335515 10289.792717386197 17.109523297606703 0.26903758252233106
0.8147569783576102 12.990664772815922 8957.118547613265 17.90689981245891 0.2728616647507407
0.8386425233830521 12.994118920186024 7808.365357884119 18.738825774811893 0.27674767164242714
0.8628210787825366 12.998400942180014 6815.3936130130905 19.60663387718085 0.28069597994199336
0.8872962849778551 13.003334001542973 5956.076784085051 20.512415301719315 0.28471300036581304
0.9120541725799397 13.008841826948284 5211.660906805788 21.457963949775973 0.2888017458119677
0.9370721871703166 13.014740716764493 4565.737424737446 22.444771190526804 0.2929621971772992
0.9623522375910687 13.020930702626492 4005.071216908319 23.47484764314561 0.2971980366513413
0.9878756079618942 13.02732393378739 3516.9574998821936 24.550622360670445 0.30151542109109103
1.0136174310074941 13.033778218802436 3092.10272261808 25.674045924259843 0.30591604472674794
1.0395800310048755 13.040242345095937 2721.787381714327 26.847062580614477 0.31040104295058374
1.0657305714063559 13.046568315976522 2398.643240482817 28.07277679058747 0.31497921080247016
1.0920616801190517 13.052702360286768 2115.938758118787 29.35325228489754 0.31965105530042154
1.1185584092940508 13.05852986055503 1868.850371142377 30.69122665630357 0.32442113874991096
1.1451886706097816 13.06398593293278 1652.3365901977647 32.09011833955144 0.32929764557957614
1.1719511928467083 13.069004893693943 1462.2459408672526 33.551846543615895 0.33427813258087474
1.1988052781852312 13.073457320420838 1295.5622911353155 35.080963406867546 0.3393762339900439
1.2257517646656404 13.077322956255388 1149.2309719654036 36.679504324284025 0.344588786811182
1.2527454470592827 13.080489095654938 1020.3216186722132 38.35250548517688 0.3499301309444763
1.279786951868881 13.0829332946223 906.8392796543321 40.10220481810643 0.3553968408152682
1.3068297813242455 13.084526046734982 806.8446839518908 41.93408940552535 0.36100356976394293
1.3338667588570217 13.085233602768765 718.7201168990982 43.851611272089414 0.36675207276730803
1.3608745406390719 13.08503233785481 640.7206426287694 45.8594984460671 0.37265032630227096
1.3878038204749144 13.083777301955639 571.8924342240691 47.96306319701848 0.3787081746337684
1.4146605117497797 13.081489218770841 510.8968432589818 50.16703623370719 0.38493114054359406
1.4413827699724913 13.078040254990201 456.93187117811635 52.47668467730658 0.3913264444327015
1.4679776845624164 13.073443498694065 409.0731965663104 54.898399308841114 0.3979056499943674
1.4943864607027861 13.067579177877267 366.5935470226541 57.43836824035586 0.4046778153071982
1.520597497351892 13.06043699735193 328.88896441729605 60.103217535792695 0.411652708295371
1.5465803339051274 13.051951950233668 295.33300601538457 62.90005063453255 0.41884086517142444
1.5722964291657062 13.04207459214396 265.508516416066 65.83649154925085 0.42625365364990503
1.5977206398248478 13.030750210155976 238.95611048065572 68.92073222121174 0.4339033414902892
1.6228074795460912 13.017934065882306 215.27149061115887 72.16158446375232 0.44180317099598987
1.6475597590598494 13.003596594304325 194.1278616011537 75.56853697870976 0.44996744017200974
1.6719086101668468 12.987665525530225 175.26379968590487 79.15155043376494 0.45841047399991736
1.6958469610492926 12.970120872239075 158.3894666524197 82.92076279450828 0.4671453255952327
1.7193262804950507 12.950915373844289 143.30148420181735 86.88893264519506 0.47619364454720753
1.7423125586810098 12.929977549112946 129.7982148233429 91.06767057049252 0.48556991175080455
1.7647921512022027 12.907335704237948 117.69639439982448 95.47099049363877 0.4952957556088283
1.7867192114713306 12.882905118162212 106.84245706319086 100.11263191549982 0.5053889890392741
1.8080590199874116 12.856653805317737 97.1021259085956 105.00907848874864 0.5158751591565643
1.8287700628913472 12.828523833107251 88.3447756950368 110.17686618110729 0.5267767959619094
1.8488501608894141 12.798565655777379 80.47827560166871 115.6335822880111 0.5381171252222081
1.868237787185783 12.766662511524922 73.39355168558197 121.39950614982834 0.5499257536993696
1.8869082172148728 12.732818988727573 67.02126656674788 127.49601593407523 0.5622323295036853
1.9048318489534473 12.697010312954948 61.26729586161548 133.9455854256877 0.5750662828371886
1.9219757258283627 12.659200470629319 56.083835874593184 140.77380094027885 0.5884635848051578
1.9382911337776083 12.6193200646423 51.40130777082791 148.00838028976045 0.6024626651225311
1.9537896000105504 12.577482619933976 47.16947469890811 155.67787480271195 0.6170994878352268
1.9684083594950772 12.533561831170617 43.34703376424699 163.81585986918225 0.6324214278132552
1.9821254509316772 12.487569795838478 39.88627280573403 172.45603966213648 0.6484698391804817
1.9949169042783805 12.439501391812838 36.75028993112467 181.63780570581832 0.6652982606106552
2.0067559878854713 12.38934853946359 33.9079294085004 191.40308929543525 0.6829608991728336
2.0176056127573223 12.337084603154027 31.332077901841014 201.79790747960283 0.7015169659320146
2.0274449381291126 12.282706908193637 28.995662298982925 212.87225270515592 0.7210293148855829
2.0362582300954273 12.226250166196008 26.874214285463978 224.68146652681907 0.74156784222302
2.044006300387776 12.167664965946495 24.945990465111482 237.2868152357756 0.7632100639692042
2.050669136952312 12.106968989068076 23.191578309922953 250.75507613629625 0.7860383380018124
2.056245258493907 12.044233001142658 21.596720819584597 265.1592743486384 0.8101406391164254
2.060695307431006 11.979392532219364 20.144640807860043 280.58127404376944 0.8356171285165511
2.0640045310275217 11.912506787170678 18.82382364757139 297.11060440847416 0.8625741947107215
2.066170458942263 11.843615017185638 17.621259093086998 314.84767342751843 0.8911325061632794
2.0671671985619 11.772733710021047 16.526065091433193 333.90190048125163 0.921418063052752
