M[M_sun], R[km], Lambda[1], P_c[MeV/fm^3], rho_c[fm^-3]
0.24162668629717493 15.618656898711224 2160425.4255784233 3.5677272577965504 0.1711233750220791
0.25364459681771134 15.277262509521899 1723204.1331905192 3.7848306570832424 0.17388831079950895
0.2660403534013785 14.981266440506127 1382966.5729432218 4.011424717936034 0.1766669418846953
0.2788170200854707 14.723462522601476 1116507.5796991738 4.247765189132286 0.1794579430673144
0.29197153432652495 14.498377874535365 905863.8482647053 4.494477384714518 0.18226788294712531
0.30550763781511137 14.301209074536459 738619.0617304277 4.751717128032477 0.18509247205971308
0.31942513782803394 14.128086214165352 605095.9354186885 5.020166386724858 0.18793832217484377
0.3337223831864579 13.975967447839823 497667.948535166 5.300049616198222 0.19080206410171957
0.3484058571321347 13.84198667244783 410981.412804691 5.592095025520931 0.19368998615466462
0.36346987613416293 13.723936709040213 340644.3203228021 5.896470422808443 0.19659716102874633
0.37892358500092915 13.619963537919537 283277.8844031715 6.214039699614897 0.19953126538356108
0.3947562551358835 13.528427289797243 236384.62896669706 6.545059415068097 0.20248846222152617
0.4109825449311787 13.44783013216034 197845.11134388097 6.890233726009783 0.2054724923029332
0.42759152130353173 13.377013520052872 166057.9280156786 7.250267026091307 0.20848641573894056
0.44458784072279184 13.314891310226185 139790.17048734712 7.625417161210973 0.21152576095762868
0.4619697435614336 13.260540268166062 117969.6550411484 8.016635424866942 0.21459672495934246
0.4797357908713921 13.213118142616159 99799.00945596432 8.424625881138704 0.21770093865405118
0.4978940941749059 13.171962976104204 84632.17040530275 8.849827986462818 0.22083584922430574
0.5164329071499617 13.136376440744332 71930.69227646105 9.293117905764587 0.22400490452701222
0.535352686041801 13.105820685331366 61268.20797345301 9.755379274215032 0.2272110051469933
0.5546606733088549 13.079803414272066 52298.42577993573 10.237421817400879 0.2304555022409972
0.5743442484097717 13.057839574462598 44322.48075938157 10.739714418450324 0.23373506278711276
0.594401979558206 13.039533945516709 38323.48922025234 11.263506435089738 0.23705593281275353
0.614840404310184 13.024485799706664 32898.078970058865 11.809733472413804 0.2404196999813229
0.6356461841734518 13.012416927041032 28287.93796856943 12.379374718052116 0.2438279975705191
0.6568170869737251 13.003005777774671 24367.31166158363 12.973116216290503 0.24727874205672293
0.6783497933445058 12.99597141380703 21024.54389767132 13.592290805172707 0.25077678580879686
0.7002388906132003 12.991048580739708 18169.46884534529 14.238093557333789 0.25432473390719224
0.7224750425272402 12.987995891852067 15726.449073617056 14.911714398643797 0.2579245714274917
0.7450636417452363 12.986639267969561 13631.867065816308 15.614178023062303 0.2615761440662077
0.7679850810773589 12.986758342452523 11834.330707510198 16.346760778814744 0.2652814474655201
0.7912322022819144 12.98814285106161 10218.532567743017 17.111074192714998 0.2690451240000656
0.8148060446575902 12.990676439334282 8954.540539882348 17.90857362365705 0.2728696068651926
0.838691376619298 12.994130775448276 7806.193821414627 18.74061507793895 0.2767558925644857
0.8628712935049737 12.998408175588597 6812.744219931359 19.60856193844764 0.28070462993693285
0.8873552324477281 13.003359906690827 5954.193310100803 20.514491401353947 0.28472209815631633
0.9121116561260081 13.008852200679176 5210.124331547397 21.460198003516204 0.28881131138313054
0.9371327460790277 13.014749357862264 4564.404441480586 22.44715389189397 0.292972093562274
0.962418256557369 13.020958318156117 4003.8018242210032 23.4774088945695 0.2972084386543957
0.9879394943237176 13.02733997739387 3515.8795761565702 24.553374218386757 0.30152635291542973
1.0136837348367767 13.033799423047556 3091.48965398636 25.67697773590395 0.30592735915251756
1.0396482053760852 13.040253129700885 2720.863757806491 26.850210189673984 0.310412934050822
1.0658015309301947 13.046580576755366 2397.716674789224 28.076154931709844 0.31499170801541015
1.0921341627695031 13.052715555107527 2115.2732417176526 29.356848984988048 0.31966400121236227
1.1186333120884981 13.058549473109046 1867.9928688261439 30.69508485812831 0.32443474880685297
1.1452648271474606 13.064001827965827 1651.735226222441 32.09422545033866 0.3293117572077069
1.172029311539533 13.069012460480812 1461.7284453400778 33.55625074132624 0.3342929751812504
1.1988856950888178 13.073472217546787 1295.080405634507 35.08568547941886 0.3393918486038144
1.225834306148902 13.077336948380115 1148.8220747183761 36.68453056811854 0.3446050006957463
1.2528307364269022 13.080503489822327 1019.9175746971058 38.35786096814058 0.34994700753460845
1.2798742324435424 13.082936104482304 906.516582090594 40.107941022040805 0.35541458671389925
1.306918076397827 13.084518915287163 806.618211671633 41.94019727834313 0.36102203478880973
1.3339565912817326 13.08523939969586 718.4476717656246 43.85815929619007 0.3667715368813239
1.3609652194625605 13.085031365809865 640.413133212617 45.866472900643394 0.3726706070687708
1.3878974930805719 13.083770427433413 571.66029220115 47.97049387329741 0.37872932473713267
1.4147483260394815 13.081462403911933 510.7230737095262 50.1750046151409 0.3849534688265051
1.4414784985848588 13.07802339200037 456.76927510618043 52.48517811380552 0.39134976422711193
1.4680755429223205 13.073421290743308 408.91952917358213 54.907455410076835 0.3979300273901896
1.494483257589339 13.067555613967453 366.4366779060352 57.448027662515074 0.40470332150357224
1.5206965198904567 13.060407071557247 328.75702798860203 60.11352425434895 0.4116794200202582
1.5466801434658421 13.051918476734608 295.21965491867894 62.91105224423568 0.41886886514278565
1.5723963177408824 13.04203480937716 265.4015430733395 65.84823959436595 0.4262830310829255
1.5978105550792372 13.030695908572651 238.85255650332448 68.933282559408 0.43393419265563804
1.6229081540523127 13.01787443320463 215.17739763402386 72.17499766745904 0.4418355998346938
1.6476608379288542 13.003533072161598 194.0485570886562 75.58287877823102 0.4500015589731943
1.6720098997401767 12.987595571943745 175.18666172034287 79.1668173152681 0.45844609145979975
1.6959449365400576 12.970043427265711 158.31841875274128 82.93710371746073 0.46718287698858496
1.7194263246695547 12.950827580977826 143.24259647451342 86.90643173229287 0.4762332713697694
1.7424045016044756 12.929871842401893 129.75129860108623 91.08633510545089 0.48561143347091856
1.7648904557623548 12.907230770035744 117.6492354652001 95.4910002875142 0.4953396615645609
1.7868162359602955 12.882790743363207 106.79745145240494 100.13400439166435 0.5054351099156185
1.8081542774481303 12.856529865730272 97.0599506528263 105.03192447934585 0.5159236726654846
1.8288637154217948 12.828390491012767 88.30775934375393 110.20130657747981 0.5268278943293891
1.848942512917127 12.798418574279342 80.44167898379007 115.65984892208922 0.5381713830242949
1.8683179533611256 12.766476675199211 73.36646216865292 121.42764681372338 0.549983037778657
1.8869969598029035 12.732651260270197 66.99329397321719 127.5261394974528 0.562292710343237
1.9049180698407981 12.696830195034849 61.2391860569467 133.97785212213205 0.57512998731469
1.922058396078754 12.65900840162901 56.060185439889786 140.80845784630276 0.5885311096374477
1.938370854792951 12.61911623750824 51.37800158655713 148.04563495774454 0.6025343263299339
1.9538650480153301 12.577267993128368 47.15127155923756 155.7178324808004 0.6171752116350244
1.96848115416248 12.53332967517047 43.32818227888542 163.85876271091993 0.6325015706781686
1.982194850521028 12.487321896553958 39.869891404965884 172.50228271791025 0.6485552219268569
1.9949817760775572 12.439242531190088 36.73570864322579 181.68755661746238 0.6653888825860503
2.0068163355016333 12.389076722892186 33.89427994227256 191.45667115457343 0.6830572239236241
2.0176617365587055 12.336796764769343 31.320339823459495 201.85567669499017 0.7016195005908639
2.027496110304399 12.282407047470997 28.984543078509127 212.93445717611235 0.7211381378859458
2.036303980773314 12.225934881852986 26.86335737348267 224.74868204248486 0.7416840258420228
2.0440468049062974 12.167333148995441 24.936400136915626 237.35936926833875 0.7633337752596514
2.050703686813531 12.106620219500492 23.181414200165214 250.83349289721374 0.7861702835422384
2.056274557064874 12.043867292520428 21.5877360309405 265.2442968482791 0.8102821214955307
2.0607186162233 11.979011967757746 20.137099461356613 280.67322546569426 0.8357679502500138
2.06402182282389 11.912111428708691 18.817275236584322 297.21036512911513 0.8627358249533971
2.0661801239254602 11.843202901874811 17.614588179297318 314.9560445731398 0.8913059870524555
2.0671704367048203 11.77230363729023 16.5204959065517 334.0195968519279 0.9216039550687154
