M[M_sun], R[km], Lambda[1], P_c[MeV/fm^3], rho_c[fm^-3]
0.24162668629717493 15.618656898711224 2160425.4255784233 3.5677272577965504 0.1711233750220791
0.2536419652431076 15.277369026697146 1723193.6890472795 3.784802869484461 0.1738879644404953
0.2660378597129947 14.981274589430956 1383053.3282233733 4.011366302855095 0.1766662359729164
0.27881145769660765 14.72360662383217 1116499.2596112015 4.247674170293551 0.17945688738594756
0.29196530245724256 14.498477946227199 905972.8477611454 4.494351373711998 0.18226647978536661
0.3054999097828695 14.30127586603877 738735.9146336763 4.751551846208516 0.1850906867005692
0.319413007378047 14.128253186734874 605218.9777603102 5.019960616573048 0.18793618723009875
0.33371099072291643 13.976030760563217 497720.8065037737 5.299797940361697 0.1907995301436515
0.3483910752409874 13.842105091614803 411058.9481733844 5.591796815629617 0.19368710089193145
0.36345204803342124 13.724073992684634 340697.5219922317 5.896118979180016 0.19659386019581476
0.37890409400487485 13.620079275357975 283351.2178134684 6.213630769304632 0.1995275364315156
0.39473468437656695 13.528534353440813 236445.68409306929 6.544593422652501 0.2024843760975663
0.4109573380199546 13.447953480551476 197910.41173165286 6.889701675572921 0.2054679611381466
0.42756479942795905 13.37714125960592 166110.97452330007 7.249663924976289 0.20848142643797757
0.44455779640353027 13.31500842280337 139835.68179142987 7.624744676328231 0.2115204075455557
0.46193699375148806 13.260632227506878 118002.78739038507 8.015881826540465 0.2145908952670291
0.47969970015377367 13.213217057066009 99833.01872231254 8.423785292978447 0.21769461860620673
0.4978542077956389 13.17204558071443 84662.22693337593 8.848903507848119 0.220829155604136
0.5163898285831896 13.136464292390015 71955.46590849591 9.292094575848267 0.22399770022060414
0.5353069755779979 13.105885432706797 61291.2649874974 9.754250154627213 0.22720327459661727
0.5546115465209054 13.079847130666607 52314.56540368979 10.236179548170501 0.2304472292125337
0.5742916586911397 13.057874085953886 44742.8181699668 10.73836439723394 0.23372639523271932
0.5943462943474564 13.039551924238074 38337.665318163075 11.262028359676314 0.23704669777082277
0.614781161303312 13.024533263978828 32911.81462536384 11.808118611139657 0.24040987893043955
0.6355796913257038 13.012468812939828 28303.363440380996 12.377613794511463 0.24381757101156915
0.6567497554106738 13.00304752259412 24378.849446141387 12.971217316916373 0.24726788872658073
0.6782795082661772 12.995985351719753 21034.80999734236 13.590226965406515 0.25076529490191446
0.7001647420243904 12.991057906004064 18042.43966718353 14.235853711333615 0.25431258263332557
0.7223954890285869 12.988011118836287 15735.062326267978 14.909286769572038 0.2579117356374876
0.7449813972867473 12.986646669705227 13639.369692583867 15.611573763495906 0.26156283281877796
0.7678984524456822 12.986746670256538 11758.252954701047 16.343944622009563 0.26526740963016276
0.7911403189761148 12.988127669338345 10292.49655485236 17.108032005134557 0.26903033087203304
0.8147112015441637 12.990661412706913 8959.617575984195 17.905290334735913 0.27285402789402824
0.8385913970813916 12.9941237273517 7810.048098263291 18.737105250276933 0.2767397667224123
0.8627687076245556 12.99838370269831 6817.071733789097 19.60477993634321 0.28068766247867416
0.8872413126452809 13.003333832772604 5958.1348176362735 20.51041902236903 0.2847042523601721
0.9119990718923809 13.008833714528581 5213.259078465222 21.455815798763517 0.28879254805140897
0.9370159241865387 13.014719916762557 4567.215274566828 22.442480115869714 0.2929526813575138
0.9622918234166038 13.020911988505597 4006.4689553849253 23.472384895624508 0.2971880347019045
0.9878136399071016 13.027310669791234 3517.96781501431 24.5479763494085 0.30150490974446786
1.0135530121736278 13.033770173805017 3093.519146010535 25.671226891076124 0.3059051655347768
1.0395129853954177 13.04022825530295 2722.6877193259415 26.84403606501426 0.3103896093196294
1.0656626753540837 13.04654808107828 2399.397647986272 28.069528626898236 0.31496719443257387
1.0919912608231366 13.052671474740283 2116.840894397234 29.349793984496365 0.3196386075423846
1.1184868736793725 13.058516627237777 1869.4472304194069 30.68751693415147 0.32440805246463544
1.1451145981824085 13.063970358810193 1652.8510636190674 32.08616930261796 0.3292840770776372
1.1718751257503355 13.068987348659887 1462.8717451961045 33.54761187437949 0.3342638613089354
1.1987277996330956 13.073450056397538 1296.0199100501902 35.07642312070568 0.339361220494581
1.2256711732608705 13.07732163156752 1149.516809745648 36.67467159579327 0.3445731971771611
1.2526654720599533 13.08048173052004 1020.6986033890103 38.3473247166887 0.3499137194056431
1.279703956764003 13.082926692005074 907.1780770544049 40.0966895138057 0.35537977830630585
1.3067450377376961 13.084521438487828 807.1565128318557 41.92821676965038 0.3609858158959925
1.3337799025491799 13.085233666521123 718.893135968441 43.84531546950751 0.36673335838608534
1.360785717723961 13.08503554110967 640.9693166495648 45.852792667438614 0.3726308268089305
1.3877152938756463 13.083781120875472 572.1098476995456 47.95591880298176 0.3786878393820793
1.4145701166429412 13.081498451693522 511.10462883927187 50.15937489235968 0.3849096726208411
1.4412919043559602 13.078051659267558 457.09619417117926 52.468518549667145 0.39130402330578723
1.467884575451047 13.073459363750768 409.24208022120564 54.88969224016294 0.3978822121314179
1.4942922147478275 13.067599210492483 366.7294520833517 57.429081147505066 0.40465329226533386
1.5205025228372835 13.060463990848692 329.01549854405476 60.093308145080954 0.4116270263174411
1.5464848233689164 13.051986428654766 295.44889201178984 62.889473193392575 0.4188139447427794
1.5722004290909553 13.04211640191436 265.61204308991137 65.82519650884105 0.426225409010916
1.597623094239623 13.03079719876971 239.0474720457804 68.90866588668474 0.433873680099829
1.6227042787486234 13.017956899474497 215.35261088962662 72.1486886085161 0.4417719929405045
1.6474626170791347 13.003658279834168 194.2088201178659 75.55474841856035 0.44993463751417995
1.6718109501506913 12.987735474556072 175.3318999582272 79.1368725449824 0.4583762306533136
1.6957494571942606 12.970195623570234 158.4523756743521 82.90505239012707 0.4671092231317208
1.7192140230450395 12.950961425586325 143.36548835556854 86.87210886302935 0.4761555469580605
1.7422178030925053 12.930073797573106 129.85816584622637 91.04972640736386 0.4855299925928523
1.764700385618169 12.907435493114157 117.74600176080155 95.45175311111208 0.495253544496066
1.7866262429252826 12.883014752626666 106.88108660957411 100.09208456378488 0.5053446487456948
1.8079676367312185 12.856772057560658 97.14042630511275 104.98711463330953 0.5158285188635013
1.8286795036153005 12.828654663295659 88.38158545036046 110.15334150993725 0.5267275662831028
1.848761766386792 12.798702574969015 80.51080045839575 115.60833018606837 0.5380649630934249
1.8681507858499453 12.766813137041241 73.42462028339493 121.37245256782522 0.549870682520443
1.8868243408731786 12.73298053506183 67.04734377745729 127.4670090042756 0.5621741128270278
1.9047500577465952 12.697181181737209 61.29261280884746 133.91456557664995 0.5750050400236104
1.921896840246869 12.659386311580597 56.10673821838232 140.74048347018757 0.5883986697034265
1.9382151857719703 12.61951422138062 51.42211355639943 147.9725657082119 0.602393773993036
1.953716764273134 12.577698525816905 47.192850393831854 155.63946194474306 0.6170266916241945
1.9683379880957261 12.533784038050557 43.364002915265026 163.7746060651126 0.632344350313262
1.982062074931916 12.4878095408899 39.90168726041035 172.41158507031574 0.6483877586372493
1.9948557949939825 12.43975052339866 36.76709195353257 181.58997927193826 0.6652111440981916
2.006692832191512 12.389597554300353 33.92504920268563 191.3515804911797 0.6828683011776683
2.0175526999833218 12.33735969444606 31.34529449333939 201.74237375921467 0.7014183990562755
2.0273957786897125 12.28299754443747 29.007680239558887 212.81245580422993 0.7209247037849478
2.036215026498897 12.226554274767489 26.88527419719561 224.616853072509 0.7414561563290168
2.0439673299787904 12.167984262377642 24.955676485611257 237.21707049357315 0.7630911427768878
2.0506359329030115 12.107303579901377 23.199770474070913 250.67956643866128 0.785911079534806
2.056211818457927 12.04455924088243 21.604467010813266 265.0775453718541 0.8100046373507029
2.0606758010846913 11.979755402901784 20.153534045074906 280.4928853048906 0.8354721504124911
2.0639965732662615 11.91289860882531 18.83207078199159 297.0147098546035 0.862418828350958
2.066161236169797 11.844009731439535 17.62798268455573 314.74350316819476 0.8909657500668154
2.067165528375253 11.773144640476106 16.531774647408568 333.78876757868017 0.9212393786701328
