M[M_sun], R[km], Lambda[1], P_c[MeV/fm^3], rho_c[fm^-3]
0.24162668629717493 15.618656898711224 2160425.4255784233 3.5677272577965504 0.1711233750220791
0.25363796139680805 15.277430526324302 1683844.5778761457 3.7847186012418317 0.17388691407750329
0.2660280095519233 14.981527766619058 1383310.9730159987 4.011189157904147 0.176664095280728
0.27879715296466107 14.723860747958751 1116712.5024809556 4.247398159367047 0.1794536860751397
0.29194538371605544 14.498770792235579 906254.5785712571 4.493969258027196 0.1822622248385319
0.30547324200394194 14.30166554112416 739007.6079746258 4.751050655757769 0.18508527288716478
0.31938395909242473 14.128540344364962 605372.9136032886 5.0193366636318695 0.1879297134775103
0.3336733490227343 13.976395155659683 498004.72474692354 5.299034803395936 0.19079184662067952
0.3483456586532228 13.842441146935196 411285.41513714223 5.590892593564965 0.19367835229471303
0.3633999626218333 13.72443717209688 340904.8015549501 5.8950533639081355 0.19658385171167303
0.3788451132710612 13.62043532916812 283544.40593260643 6.2123908716703955 0.1995162300580253
0.39466748220725867 13.528890221360827 236635.58121916297 6.543180534255033 0.20247198697503924
0.4108821547129326 13.448319024776469 198064.46491731494 6.88808852931944 0.2054542229077214
0.42748086965303916 13.37745326177968 166268.52400580188 7.247835390939968 0.2084662994445082
0.4444654818659008 13.315298994070893 139958.19800471907 7.622705812315467 0.21150417687702885
0.4618367835501853 13.260913031541705 118115.81478168792 8.013597081361958 0.2145732209159362
0.4795897429415672 13.213498140320194 98864.28318883337 8.421236859752627 0.21767545795099288
0.4977360817211783 13.172313987721667 84754.6178911614 8.846100786265353 0.22080886270236597
0.5162618483438245 13.136680592934416 72039.37362532242 9.28899222429815 0.22397585947228224
0.5351685025615197 13.106087256389184 61362.357027121085 9.750827149458884 0.22717983889133267
0.5544632046892376 13.080044333983812 52380.60562755115 10.232413588741254 0.23042214939184044
0.574130547338106 13.05802529142581 44797.23207751335 10.734271848233824 0.23370011980042557
0.5941795041898835 13.039723462051823 38387.968611281416 11.257547696975013 0.2370187025091816
0.6145995352429197 13.024648906413173 32955.29627227976 11.80322337943501 0.24038010775416155
0.6353872875046249 13.012548901741576 28342.618149637503 12.372275888631606 0.24378596487476603
0.6565417461837618 13.003103943120012 24219.56326445155 12.965461248423576 0.2472349893994629
0.6780640920498631 12.996048572682279 21066.689759399065 13.583971028037752 0.25073046351871114
0.6999374251056159 12.991102331114897 18205.69795247879 14.229064380320224 0.2542757501812245
0.7221563195697247 12.9880326023376 15758.77570518822 14.901928366889077 0.25787282898873193
0.7447285935242552 12.986660257954217 13659.944498155968 15.603680089277757 0.2615224855922558
0.7676346780448606 12.986745269214396 11858.729643743487 16.335408823412212 0.26522486081500724
0.7908637474915472 12.98811649500212 10240.43744197395 17.098811267000073 0.26898549354488893
0.814422888240486 12.990622017616738 8975.327238702808 17.895339004323038 0.27280680954277337
0.838289813315356 12.994074696126216 7823.564587844557 18.726467456133953 0.27669089156246784
0.8624539513809336 12.998333520942385 6829.154528408058 19.59331742279543 0.2806362374094143
0.8869138131800468 13.003268610753382 5968.745778862295 20.49807665272711 0.2846501661826865
0.9116582357655156 13.008745189703522 5222.797925935732 21.442534662060712 0.288735682070092
0.9366619413245864 13.014635946736805 4575.944391186713 22.428315520675618 0.292893849693175
0.9619234985238955 13.02082917934735 4013.7427841955973 23.457159171701278 0.29712619851304894
0.9874333953836133 13.027220527548405 3524.7409376387795 24.53161787383038 0.30143992528672897
1.0131611698124547 13.03367554628133 3099.3326740381785 25.65379896420224 0.30583790780854125
1.0391071223903212 13.040124095420108 2728.0954863086995 26.825325735295706 0.31031892506311326
1.0652457348556048 13.046457173668365 2404.0377845326657 28.049448366153985 0.3148929088165143
1.0915585070562055 13.052585153067128 2120.974742235379 29.328414933793468 0.3195616560866582
1.1180411445116871 13.05842234290277 1873.3177672403694 30.664583986808776 0.32432715500686615
1.1446571630601325 13.063885957583505 1656.3099170117132 32.0616408071509 0.3291994462749411
1.1714049600336294 13.068904777946246 1465.900392599641 33.52143457955284 0.33417564112637754
1.1982514523766343 13.073387623378618 1298.9017754547547 35.04835708691201 0.3392684137295443
1.2251782430594302 13.07725603622374 1152.1235225327912 36.64479823176158 0.3444768303290922
1.2521593612576767 13.080432530263044 1022.9204758889708 38.31530051702046 0.3498122737614967
1.2791887985691834 13.08289078792754 909.1961633983358 40.062597919246635 0.35527431030200596
1.3062203380906636 13.08449418595603 809.0956444987557 41.891916943544054 0.3608760760222735
1.3332444499149227 13.08522693199081 720.5840463022109 43.80640068526547 0.3666176835220736
1.3602406647748224 13.085048405544773 642.4858918842614 45.81134442173883 0.3725103009407541
1.387162006560555 13.083821214017506 573.4004922332176 47.91176016853196 0.3785621496537178
1.413999885323867 13.081542255083777 512.347523199241 50.11202197532183 0.3847769845289017
1.4407290879969366 13.078152338633588 458.19216088051365 52.41804647879332 0.3911654459094185
1.4673045257240727 13.073560945760693 410.2430039559439 54.8358776764573 0.39773735300426055
1.4937105077078958 13.067743804412574 367.6172229041848 57.37168266838524 0.40450172865667616
1.51991561848251 13.060645145419674 329.80595990074823 60.03206462602059 0.4114683026632213
1.5458941194857327 13.052195670648215 296.1767868242698 62.82410202815213 0.41864756993000435
1.571605619227851 13.042360999534047 266.26784875750405 65.75539165032237 0.4260508533690587
1.5970216328961069 13.031071345615329 239.63742164402214 68.83409568825478 0.4336903720896478
1.6221156101609622 13.018303494194644 215.88721545999297 72.06899344317235 0.441579315507214
1.6468638975136043 13.004023407507274 194.69402912038547 75.46953805050491 0.44973192406791823
1.671218261629155 12.988149457487307 175.7750856672493 79.04591879423552 0.45816357737034225
1.6951427648325845 12.970644700534883 158.8686486464554 82.80796896678449 0.4668861257076323
1.7186372859225136 12.951510353609834 143.7276693237491 86.76814739112255 0.47592012537420897
1.741636270004961 12.93065681275367 130.19412779063262 90.93884359917956 0.48528331915913675
1.7641188803065997 12.908066681722353 118.0520645137943 95.33288165273245 0.4949927139736742
1.7860497995854518 12.883693465178167 107.1659805965577 99.96512097692974 0.5050706668334207
1.8073927669321412 12.857494067695992 97.39016430484465 104.8514010405732 0.5155403307648588
1.828128479136491 12.829473820972897 88.61354866468967 110.00758666336182 0.5264218952776677
1.8482129981485609 12.799562157397416 80.72074068861168 115.45230560067871 0.537742670139955
1.8676141607193524 12.767736953803226 73.61835987292496 121.20530084125377 0.5495304228594177
1.8863007490392412 12.73397538216331 67.21913150984933 127.28779244506958 0.5618144266226953
1.9042410800251794 12.69824521774472 61.450265470222746 133.72290956784815 0.5746266411257573
1.9213935065849441 12.660489740101205 56.251558055235186 140.53464373708567 0.5879976156264496
1.937741215178939 12.620726660853167 51.5562295669355 147.75130394976563 0.6019681659922056
1.9532654741711044 12.578985193067021 47.31480897055618 155.40215348732877 0.616576968342483
1.9679113543052391 12.535167885968363 43.4770761973068 163.51906894649824 0.6318658739165034
1.9816534421758416 12.48926560178291 40.004962015208086 172.13696572056062 0.647880704034185
1.9944841521764878 12.441318216308499 36.85880885277127 181.29453781732872 0.6646729933920926
2.006333560251654 12.39121458298988 34.00913089162948 191.03340010588207 0.6822963044830189
2.017217569004746 12.339057039644707 31.42728050963447 201.39934007096429 0.7008095480971142
2.027089608532424 12.284783101350095 29.080507874029323 212.44278085638413 0.7202774950511718
2.0359413991001234 12.228440165481208 26.95214656881992 224.21775579876007 0.7407663071901832
2.043727179927925 12.16996157297795 25.016852240289328 236.78618422431174 0.7623562760114023
2.0504293014125006 12.109375270302928 23.256412781004148 250.21306156088946 0.7851246577591328
2.056041381096116 12.0467202662787 21.65554465312035 264.5727767759605 0.8091646730806987
2.0605340826219627 11.981996302280503 20.20137195330561 279.9461134307343 0.8345738730781995
2.0638941362078933 11.915237511628323 18.87503206981708 296.42249041699813 0.8614593267474981
2.066104518292213 11.84645731016062 17.668246718658825 314.1001974978987 0.8899359442171586
2.0671485083264067 11.775688523938033 16.568924151031904 333.09013681942787 0.9201359471921251
