M[M_sun], R[km], Lambda[1], P_c[MeV/fm^3], rho_c[fm^-3]
0.24162668629717493 15.618656898711224 2160425.4255784233 3.5677272577965504 0.1711233750220791
0.2536411018607614 15.277361803049606 1723185.4787084013 3.784784742257488 0.17388773849335595
0.2660364327070774 14.981302308666262 1383061.451189095 4.011328196132527 0.1766657754756632
0.2788080345756242 14.7236641399879 1116546.0852419387 4.247614795201598 0.17945619872435725
0.2919609200002047 14.498560328943203 906062.941541979 4.494269172550654 0.18226556445635717
0.3054937401771193 14.301386598658253 738778.1761106547 4.751444028272045 0.1850895220610817
0.3194074784534636 14.128308663553062 605220.0694410953 5.019826388015442 0.18793479455700612
0.33370256035684087 13.976154737153353 497805.4557612769 5.299633767794989 0.1907978771983163
0.34838205061147487 13.842173572589958 411106.25111600634 5.591602289534592 0.1936852187984498
0.36344134233758496 13.724144251699368 340743.42575089366 5.895889729837013 0.19659170703747095
0.37889188347641795 13.620148882783797 283395.07234089775 6.2133640230353 0.19952510402672272
0.3947199102310531 13.52860197899262 236475.71141933737 6.54428945678488 0.20248171072754506
0.4109416274082501 13.448042836197187 197937.6853699106 6.889354622840559 0.20546500549144278
0.4275462668341395 13.377193948772671 166146.21209869508 7.249270529367561 0.20847817197692523
0.44453824072104275 13.315051789775586 139858.89159554834 7.624306025494695 0.2115169156028692
0.4619148599322488 13.260698279822277 118030.32562399526 8.015390270400676 0.21458709268288176
0.47967567654971227 13.213282001958845 99851.65255812016 8.423236999286038 0.21769049620414035
0.49782857149749454 13.172097413288093 84682.78716507516 8.848300498531264 0.2208247895590359
0.5163634748652166 13.136501269050667 71973.16328039541 9.29142709371124 0.22399300110474682
0.5352773397885664 13.105926836619666 61307.48493188456 9.753513674974421 0.22719823226707284
0.5545798216405685 13.079882492542435 52329.03136150581 10.235369271411638 0.23044183308540964
0.5742571728476242 13.057910469506481 44754.506031255296 10.737483844161067 0.23372074180923028
0.5943081360225282 13.039599163928873 38350.12399530342 11.26106429003465 0.23704067424625555
0.614741393424104 13.024577052596086 32920.74892825836 11.807065330966823 0.24040347322962957
0.6355381728909405 13.012487813886791 28309.37912478188 12.37646525466868 0.24381077042193494
0.656704074792669 13.003075507456698 24385.99043391009 12.969978791594501 0.24726080982372212
0.6782326339289022 12.996002986651265 21041.36499264131 13.58888087011138 0.25075780020395166
0.7001154148902198 12.99107011086821 18183.87021804764 14.2343928302076 0.2543046572819186
0.7223437415387901 12.988013301454515 15739.984826606906 14.907703423195393 0.2579033638883474
0.744926019020633 12.9866603565355 13643.286402246282 15.609875225395836 0.2615541510186952
0.7678420578480395 12.986743740100483 11843.878211310137 16.342107894454497 0.26525825400396796
0.7910801527605617 12.988119838102547 10295.968391692566 17.106047872173708 0.2690206827053282
0.8146482746240947 12.990660075214874 8962.913770575627 17.903148969504066 0.2728438672691181
0.8385252880499606 12.994107645718477 7812.670864797829 18.73481614970219 0.2767292494896838
0.8627004584874046 12.998384046135252 6819.7145138621745 19.602313342205353 0.28067659642637716
0.8871712659559373 13.003316111212344 5960.314358906874 20.50776306593732 0.28469261354727576
0.911925730385308 13.00882025993603 5215.330651938488 21.452957798688058 0.2887803109227255
0.9369399085422017 13.0147054364511 4568.990493435147 22.439431976077525 0.29294002112016465
0.9622134622977748 13.02089386351644 4008.091511419203 23.469108372010083 0.2971747277659563
0.9877323894144778 13.027287220722943 3519.5593201978627 24.54445602363289 0.30149092516133846
1.0134693299014756 13.033742992858212 3094.5667245680065 25.66747638789354 0.3058906916206891
1.0394259135799113 13.040199628294443 2723.862796742848 26.84000954380894 0.31037439784756954
1.0655750838682214 13.046535609932512 2400.3000985723625 28.06520724465636 0.31495120776058017
1.0918969645384038 13.052663476570142 2117.5465910987987 29.345193054461568 0.31962204701924474
1.1183907754658216 13.058496523078714 1870.2972942386343 30.682581538685895 0.32439064253732497
1.1450161443978655 13.063950543769732 1653.5814899868026 32.08091554697889 0.3292660256907355
1.1717745499419985 13.068967207293815 1463.4951717672875 33.5419781476233 0.3342448750689055
1.1986235522348572 13.073433687818202 1296.6458705635832 35.070382840392455 0.33934124692510886
1.2255655833797678 13.077298261910515 1150.119131868907 36.66824228692021 0.34455245722197225
1.252555919310378 13.080469160115825 1021.1937621300792 38.34043242574242 0.3498918861388657
1.2795932726323822 13.08292017111039 907.6077079259549 40.08935220388535 0.3553570791206491
1.3066323228110808 13.084516698387285 807.5402424494288 41.920404119210275 0.3609621970701007
1.3336651842478418 13.085236396385916 719.2937482330815 43.83693990972317 0.3667084618908857
1.3606690865227618 13.085036773230842 641.2873951854671 45.843871743885906 0.3726048859750551
1.3875953912811407 13.08379368222053 572.3845680074473 47.946414422167386 0.3786607868462007
1.4144478849651232 13.081512717368174 511.3518205612773 50.14918286582073 0.3848811134392944
1.4411764407477181 13.078089473236616 457.34330331911497 52.457655052951374 0.3912741962140062
1.4677603076630672 13.073488503845493 409.43972699171945 54.8781091846499 0.3978510326291439
1.494166702273151 13.067631987650719 366.92261326491456 57.4167265500084 0.404620669321158
1.5203770473386045 13.060501431733162 329.1909945796142 60.08012577922474 0.411592861832577
1.5463578455819735 13.052032960220343 295.6135305447153 62.875402206207866 0.4187781329617012
1.5720725163453304 13.042165335710019 265.7457633499093 65.81017099871123 0.4261878358731631
1.597495370608705 13.030858754833442 239.18520864903056 68.89261443829469 0.43383422252660464
1.6225818295254772 13.018059128118068 215.4732936115853 72.13153377993015 0.44173051804894464
1.6473342601025969 13.003736695227397 194.31945730920933 75.53640617494482 0.44989100175129887
1.6716830211764773 12.987824904310637 175.4295460243012 79.11734737458724 0.4583306786541642
1.6956219801297319 12.970298346658744 158.53912859683436 82.88415385840499 0.46706119836668986
1.719086615808492 12.951072714999302 143.44613352863578 86.84972942647008 0.476104868545146
1.7420912666292312 12.930195143889941 129.9301387446799 91.02585674931923 0.48547689138980826
1.7645768212294901 12.907580304989047 117.80922461307023 95.4261633683529 0.49519739488654047
1.7865022634735213 12.883160095251341 106.94118104626932 100.06475245711886 0.5052856672452795
1.807844141560026 12.856931040104334 97.19382325466225 104.95789847884947 0.5157664782982659
1.8285689405486498 12.828846702551326 88.43227474561371 110.1219631985011 0.5266617609927067
1.8486430767875623 12.798887910855886 80.5567005627722 115.57474051454045 0.5379955784229528
1.8680351719791812 12.767011375620616 73.4645627186941 121.33646686870622 0.5497974288243243
1.886711614230436 12.733196357179773 67.08258715342204 127.42842531259186 0.5620966756656831
1.9046414221738137 12.697409763369638 61.327982035748235 133.87330466304599 0.5749235781687563
1.9217891658533461 12.659631124286701 56.135670375796096 140.69616672994522 0.5883123238406298
1.9381192953038593 12.619804302284898 51.45106438464756 147.9249278534996 0.6023021402093658
1.9536148646331035 12.577962948451743 47.21715520580087 155.58836843602828 0.6169298643106477
1.968245692694893 12.53407827938495 43.38837649514219 163.71958687093993 0.6322413305018034
1.981973002720283 12.488119557776496 39.92360527160981 172.352456338247 0.6482785838984861
1.9947728642166067 12.440080768822419 36.78622879954393 181.5263662034517 0.6650952720118982
2.0066157106533633 12.389946175415016 33.94277816607882 191.2830701575707 0.6827451393292815
2.0174815712721323 12.337727028375891 31.362805435867863 201.66851066253298 0.7012872993456591
2.0273312980074585 12.283386860807383 29.023152165805755 212.73292310261317 0.7207855660817597
2.036156495220655 12.226959780146291 26.899304453601303 224.53091495278315 0.7413076102431743
2.043916680401336 12.168411629235075 24.970503483394285 237.1243084399144 0.7629329749541323
2.0505916476485613 12.107748731610327 23.212592264728425 250.57910926766672 0.7857417314517376
2.056175051822941 12.045024417709595 21.61613862280124 264.968846229181 0.8098237556620078
2.060645652607081 11.980241789376215 20.162917832169768 280.3752131009018 0.8352789508968251
2.06397620723387 11.913404808896185 18.840984450461747 296.88717318897517 0.8622121961004781
2.066149645722519 11.844536150283584 17.63656761434126 314.60496164238504 0.8907439723330149
2.067161855225395 11.773694968121395 16.539938914147253 333.63830783156016 0.9210017395181966
