M[M_sun], R[km], Lambda[1], P_c[MeV/fm^3], rho_c[fm^-3]
0.24162668629717493 15.618656898711224 2160425.4255784233 3.5677272577965504 0.1711233750220791
0.2536434841744665 15.277287963673034 1723250.7500454835 3.784809353529605 0.17388804526099003
0.2660381844149686 14.981312063899836 1383126.0006260767 4.011379933558229 0.17666640069191947
0.2788124041852849 14.723574634983853 1116466.227950436 4.247695408747144 0.17945713372000358
0.2919665917357716 14.49847208876033 905995.2042721196 4.494380777171828 0.182266807199716
0.30550121990687 14.301288022123094 738711.511974483 4.751590412991196 0.18509110329542794
0.31941709213093283 14.128188541639073 605132.723981599 5.02000863070995 0.18793668539530087
0.3337149292385847 13.976029825278534 489759.41663360276 5.299856665852551 0.1908001214119012
0.3483944154140273 13.84208194510118 411039.6480507223 5.591866399034252 0.19368777413051302
0.3634563104952421 13.724025190031076 340683.94616577594 5.896200983687988 0.19659463039950764
0.37890902420595557 13.620042501169372 283347.7640823241 6.213726187190505 0.19952840652774415
0.39473982103022054 13.528508950206485 236431.83848402873 6.544702154785206 0.2024853295314802
0.4109635288246307 13.44793019618207 197883.5057275216 6.8898258208859495 0.2054690184117279
0.4275699885793737 13.37710949532976 166101.69115181666 7.249804648314815 0.2084825906060929
0.444563848742176 13.314983613361797 139816.02924712168 7.624901588689749 0.2115216566688477
0.461945193003471 13.260603352690312 117995.81374615687 8.016057664670958 0.21459225551712746
0.47970800060475727 13.213204876297533 99824.462029586 8.423981427891665 0.21769609326656256
0.497864091313904 13.172040890590054 84657.72120227944 8.849119216316943 0.2208307174256154
0.516400101328731 13.136442372210889 71948.71323733973 9.292333348467631 0.2239993811947302
0.5353177305015528 13.105870596227627 61285.6144370306 9.754513610161307 0.2272050783526588
0.5546233174968341 13.0798248496479 52307.9979467459 10.236469403738573 0.23044915953754402
0.5743035213119304 13.05786936136248 44737.65195146188 10.738679393390752 0.23372841760561966
0.5943586949047452 13.039551146840967 38335.80644477386 11.262373233158776 0.23704885254658212
0.6147942672592803 13.024521270864925 32908.532482234645 11.808495399067173 0.24041217042969562
0.6355938770495466 13.012445266791813 28065.508501996148 12.378024661084467 0.24382000378303542
0.656765310264324 13.003031026444104 24375.6705904925 12.971660375385564 0.24727042106710595
0.6782959629762777 12.995980257472109 21032.68486555829 13.5907085067998 0.25076797599537964
0.7001822659436207 12.991070302136222 18040.662998546373 14.236376317301287 0.254315417796206
0.7224140749739719 12.988016107582265 15733.489822413894 14.909853187627853 0.25791473050326164
0.7450003025670209 12.986646947186205 13540.992970061407 15.612181391569969 0.2615659386104369
0.7679189736007268 12.986745846469 11838.175993048631 16.34460168794127 0.26527068493903455
0.7911620263745822 12.988129254963157 10291.617312981314 17.10874180621437 0.26903378239432535
0.8147341188256296 12.990661286044627 8958.2677155522 17.90605638684441 0.2728576627565077
0.838614729207384 12.994122871484507 7809.468009478883 18.737924155825738 0.27674352916969597
0.8627930826302469 12.998401587637787 6816.3908516604 19.60566234208314 0.2806916212767251
0.8872668047144628 13.003349114184022 5956.813897171064 20.511369174780796 0.2847084160753639
0.9120262901732336 13.008827917091049 5212.665201024619 21.456838235094956 0.28879692582769595
0.9370427157954091 13.01472937108371 4566.487185402455 22.443570577287442 0.29295721051342843
0.9623200804706958 13.020922741767704 4005.8859715654694 23.473557065221005 0.29719279523092146
0.9878432561466904 13.027317094424996 3517.6406369775473 24.5492357437729 0.301509912720415
1.0135848568478854 13.03377684778852 3093.1264740319934 25.67256863561654 0.3059103435853637
1.039545278492735 13.04022796815015 2722.2794192451665 26.845476561004276 0.3103950512540902
1.0656951007378561 13.046554394353997 2399.030004655706 28.071074616352888 0.3149729137198144
1.0920239162813632 13.052689093651297 2116.2897865794157 29.351439988611002 0.3196445321465456
1.1185203467346152 13.05852568236914 1869.1258396488397 30.689282602202603 0.3244142809730982
1.1451506712813866 13.063989047420637 1652.5723174628672 32.08804887235351 0.3292905350941184
1.1719116271896173 13.06899196845281 1462.6258153183364 33.54962739016939 0.33427065380495574
1.1987649834333758 13.073450414713244 1295.8355153303946 35.07858409396781 0.3393683662473177
1.2257092802104437 13.077321707881532 1149.4020250333656 36.67697175618142 0.3445806171385161
1.25270276688453 13.080485036337244 1020.4866580489814 38.349790525226354 0.3499215305465314
1.2797429273852698 13.082928925923643 907.0189166304991 40.099314543307365 0.3553878992706183
1.306785726603936 13.084518057681613 807.0189621591369 41.93101186944911 0.36099426590613976
1.333821573484826 13.085235253478883 718.8091850039926 43.848311972852315 0.3667422655437035
1.3608272436122313 13.085035237623845 640.8454679032162 45.855984296401566 0.37264010763240474
1.387757860797277 13.083781665060977 572.0080944572369 47.959319188008806 0.3786975179755344
1.4146126679055282 13.081492287004554 510.99617030602644 50.163021314141716 0.38491989029651835
1.441335288342082 13.078044562649858 457.0471640530002 52.47240522035681 0.3913146946472914
1.467928084269736 13.073451468551049 409.1588809784237 54.89383636694052 0.39789336737539815
1.4943368369650678 13.067589397529726 366.66244388730564 57.43350133122898 0.4046649639856721
1.520547510973568 13.060451066796373 328.95191848814716 60.09802450505458 0.41163924961716514
1.5465302957973976 13.051970346285378 295.39355034409084 62.894507504579984 0.4188267574649968
1.5722461941587778 13.042095808054972 265.5541150449172 65.83057235291713 0.42623885197080646
1.597669706050466 13.030773995199871 239.007100690192 68.91440881847322 0.43388779733997207
1.622756883633682 13.01796051425946 215.31402618247049 72.15482633956404 0.44178683201210245
1.6475085264446934 13.003629156134394 194.16965124838885 75.56131101980878 0.44995024978702736
1.6718573324993886 12.987702482512688 175.29764482661048 79.1438584097517 0.45839252859589696
1.6957953031532584 12.970162012799271 158.4259156290994 82.91252966436862 0.4671264058861505
1.7192604492114119 12.950922037138982 143.33699219048248 86.88011603083604 0.47617367925354115
1.742263002379451 12.93002865708332 129.8268500900791 91.05826680191946 0.48554899182713224
1.7647431392712036 12.907388919703918 117.72529316631852 95.46090898962305 0.4952736345379274
1.7866706358382969 12.882963072288858 106.8575145982977 100.10186389805672 0.5053657521247891
1.8080102507529812 12.85671558760963 97.12136578081972 104.99756812524345 0.5158507168755343
1.8287226062117938 12.82859337510691 88.36241142941576 110.16455257193438 0.5267510514806445
1.848803408042416 12.798637592319912 80.49463040497866 115.62034864931704 0.5380897890912437
1.8681916333265032 12.76674320446604 73.40630027738574 121.38532840555143 0.5498968930075854
1.8868645920725202 12.73290289929014 67.03384513623244 127.48081449262071 0.5622018203319804
1.9047893424769984 12.697100122489262 61.280006872513134 133.92932906710962 0.5750341877378009
1.9219346145014098 12.659298011617512 56.095764955594085 140.7563404556056 0.5884295651411277
1.9382516678229214 12.619420718232446 51.41147626735591 147.98961112832623 0.6024265617066884
1.9537524678256473 12.577593069119855 47.18053345025112 155.65774394571207 0.6170613378460849
1.968371048992294 12.533678790103426 43.35515138149937 163.79424533699006 0.6323810516874909
1.9820915035678892 12.487693845014913 39.894350512316855 172.43274246180454 0.6484268234473319
1.994885128753716 12.439631093100855 36.755479004394374 181.61274139078066 0.6652526056132777
2.0067189954508398 12.389470123667376 33.91769082570863 191.376095119669 0.6829123714193123
2.017578218046278 12.33722812805308 31.338367738915753 201.76880391642712 0.7014653099782074
2.027258307760699 12.283480629388968 29.03433016691341 212.93214294196048 0.8999823425702105
2.0307107687610313 12.233787349488104 27.54947411628425 226.46707523907654 1.5253109351921406
