M[M_sun], R[km], Lambda[1], P_c[MeV/fm^3], rho_c[fm^-3]
0.24162668629717493 15.618656898711224 2160425.4255784233 3.5677272577965504 0.1711233750220791
0.2536438929565179 15.277282719576775 1723210.3750660801 3.78481716570105 0.17388814263593838
0.26603957660735333 14.981262833726037 1383025.7105027344 4.011396356280866 0.17666659915083052
0.27881449321754886 14.72351700137026 1116439.1266741117 4.247720997605756 0.17945743051220187
0.29196821238020426 14.498454804577596 905918.2634087884 4.494416203615233 0.18226720168138538
0.30550471640844906 14.301193429239941 738666.56002084 4.751636879884754 0.1850916052265618
0.3194205114128108 14.12812848953393 605101.7541396677 5.020066480316029 0.18793728560729184
0.33371884843868627 13.975932899457437 497673.1020838993 5.299927421159272 0.1908008338004356
0.348398599159183 13.84204692801773 411017.71028204 5.59195023667466 0.1936885852827469
0.3634598377188244 13.72403371022577 340655.16460696136 5.896299787148924 0.19659555838252177
0.3789143283678628 13.620014150556162 279400.49333241093 6.213841152091755 0.1995294548692168
0.3947460555936105 13.528472404528303 236407.47688719048 6.544833161738454 0.20248647828547847
0.41097061589860795 13.4479098648551 197876.92176055396 6.889975398912009 0.2054702922809658
0.4275786524297009 13.37706897179547 166085.30325103994 7.249974200980946 0.20848399327184716
0.44457274230915866 13.31495762504117 139809.80893106147 7.625090647346767 0.21152316169732188
0.4619531300389447 13.260586626322324 117985.01859549615 8.016269526869333 0.21459389444251514
0.47971816973513354 13.21319675104409 99818.90428334137 8.424217745632639 0.21769787004560853
0.49787510759540216 13.171993965556517 84648.82867640273 8.849379118241574 0.2208325992265973
0.5164126980307497 13.1364078491945 71226.21859424743 9.292621040485235 0.22400140656446965
0.5353311900687149 13.105860410209159 61280.53883959186 9.75483104281497 0.22720725166463268
0.5546365865863208 13.079827754184334 52302.86040718559 10.236818646090779 0.23045148535536983
0.5743186536270676 13.057846577985968 44733.72338494467 10.739058927975073 0.2337308543352161
0.5943749639678607 13.039525728036653 38331.386223418725 11.262788767458442 0.23705144881240606
0.6148102344164641 13.024514968686844 32903.98778252012 11.808949387751012 0.24041493143835677
0.6356141781292807 13.01244032392485 28293.915370668663 12.378519711957185 0.243822935015987
0.6567835677679051 13.003024924127576 24371.642238387056 12.972194215102407 0.24727347227601615
0.6783160038032032 12.995990694935104 21029.89908819655 13.591288715760609 0.25077120644342615
0.7002031167708843 12.991068737331961 18174.2309640157 14.2370060063499 0.2543188338900267
0.722436876328021 12.988003881463738 15731.018095992966 14.910535667479783 0.2579183390315015
0.7450222862350366 12.98664638639255 13634.61678512872 15.61291352692515 0.261569680800728
0.7679432328436583 12.986757347837601 11837.295221872357 16.345393393088898 0.26527463139062896
0.7911869543632852 12.98813812871337 10289.915816015902 17.109597054372735 0.26903794117650814
0.8147595266471477 12.9906740798891 8957.02083280959 17.90697941464361 0.27286204245741524
0.8386454657064601 12.994108764454914 7808.405298600503 18.738910869350097 0.2767480626078011
0.8628222799334602 12.998403076618951 6815.1864288959805 19.606725570494618 0.2806963913120643
0.8872927181647984 13.003360824600033 5955.589655700593 20.512514035120642 0.2847134330308865
0.912057403489732 13.008837920121177 5211.7451706872325 21.458070194796694 0.2888022007223793
0.9370765816729029 13.014728422821944 4565.665336261312 22.44488450459287 0.29296266781941843
0.9623545052287076 13.020927381965217 4005.0064600049186 23.474969448246526 0.29719853133804797
0.9878789104106355 13.027323992861628 3516.8370054280285 24.550753230122513 0.3015159409732974
1.013621444188451 13.033780162757317 3092.139680099832 25.674185351490813 0.3059165828032844
1.0395836509841863 13.040238272817588 2721.690706327541 26.847212270120792 0.31040160845058407
1.0657339092059246 13.046566394620404 2398.617381432008 28.07293744304788 0.3149798051257783
1.0920648118602283 13.052696803953182 2115.870443514243 29.353423330938917 0.3196516709611477
1.1185615484168838 13.058534549041818 1868.7729464656225 30.691410138001057 0.32442178599348814
1.1451923865302824 13.063986542628347 1652.3105293131457 32.09031365806797 0.32929831667476084
1.171954143409724 13.069000377513573 1462.228897409397 33.55205598996341 0.3342788384366607
1.1988093722164568 13.073457858178044 1295.5644732435585 35.08118796956283 0.33937697655799814
1.2257546711367013 13.07732458283562 1149.2161858864126 36.67974335167517 0.34458955787654516
1.2527497507209409 13.080491409300615 1020.2851542571426 38.352761727330474 0.349930942663445
1.2797913175294775 13.082936123238875 906.8373384321906 40.10247760706295 0.35539768473316674
1.3068339128648994 13.08451996599815 806.8337378758908 41.93437986885333 0.3610044478785884
1.3338709173751389 13.08523407510831 718.7036758388408 43.85192266627386 0.3667529983918654
1.3608807239956144 13.08503401656193 640.6997080883225 45.85983011864817 0.3726512907610824
1.3878086265615222 13.083776395072274 571.8849822433959 47.96341656462677 0.3787091804320511
1.4146649468633237 13.081486322546679 510.8890139302545 50.16741517101427 0.38493220236768827
1.4413876560560817 13.078037888001392 456.9314783720436 52.47708858277523 0.3913275534057881
1.4679826783599879 13.073439246058369 409.0661018997911 54.89882997086575 0.39790680925908484
1.4943905040168268 13.06757809264761 366.58369516073947 57.438827592190805 0.4046790282491231
1.520602828139491 13.060432927690208 328.87993189528305 60.103707668521 0.41165397856296637
1.5465850790763622 13.051950167965494 295.3299174953829 62.90057381133017 0.4188421966979688
1.5723014940774085 13.042072411595484 265.4971453928602 65.83705022108781 0.42625505067760705
1.597725374486535 13.030748183032754 238.95759258686834 68.92132904415384 0.4339048085968311
1.6228122807481224 13.01792955774016 215.2661299780669 72.16222231804399 0.44180471312376135
1.6475644970596666 13.003593839122928 194.12805296433694 75.5692189898426 0.44996906266033226
1.6719139313270146 12.98766267809037 175.26055429870374 79.15227643469004 0.45841216775176963
1.6958506610664228 12.970118611656117 158.38585882872465 82.9215398682238 0.4671471113083678
1.7193310711118694 12.950911666388293 143.30103741304157 86.88976479170745 0.4761955289496342
1.7423170392450456 12.929973663937481 129.79667011365373 91.06855813618274 0.4855718862577641
1.7647968670038543 12.90733016356762 117.69338895454355 95.4719420283837 0.49529784348852607
1.7867241212403833 12.882897976645383 106.83530155331546 100.11364824781676 0.5053911822403216
1.8080638769022195 12.856647959446667 97.09875973072234 105.01016488862443 0.5158774661289777
1.8287750513889431 12.828518184780265 88.34441027300188 110.17802839681117 0.5267792258457878
1.8488551334256709 12.798558770927215 80.47546347541397 115.63483134277489 0.5381197053383344
1.8682431159703807 12.766654606356692 73.39052807978948 121.40084431615466 0.5499284777156267
1.886913424966769 12.732809474306045 67.019115769018 127.49745072461928 0.5622352091168588
1.9048360652632959 12.697001411338771 61.26556314610882 133.94711978723944 0.5750693121433067
1.9219798679118436 12.659190795007772 56.08188883642764 140.77544895679875 0.5884667957680476
1.9382950225809734 12.619309469208542 51.39998990861498 148.01015182987712 0.6024660727680852
1.9537929229378725 12.577472289655244 47.16828761292361 155.67977487084696 0.6171030886545422
1.9684112288835098 12.533551084058253 43.34573062608328 163.81789997912406 0.632425238755581
1.9821286102624598 12.487557349179307 39.884962036437166 172.45823859722304 0.6484738992736925
1.9949195776419268 12.439489861648035 36.74919736831445 181.64017143703063 0.6653025698228612
2.006759165124305 12.38933623244586 33.908835470855976 191.40563718469926 0.682965479543921
2.0176082524983263 12.337070957345468 31.331444315856693 201.80065447286137 0.7015218415740799
2.0274474626628427 12.282692612482851 28.995786317669126 212.8752105893021 0.721034489526932
2.036260222584028 12.226235361209106 26.873846799376825 224.68466267805238 0.7415733668465163
2.0440085525041596 12.167649217445083 24.945933625135794 237.29026522420583 0.7632159465163991
2.0506710803026147 12.106952037831412 23.19133018627058 250.75880488578494 0.7860446120669567
2.0562476645172416 12.04421420755972 21.59696602210223 265.1633171853522 0.810147366631601
2.060697469986165 11.979373528766377 20.144696580833525 280.5856463339996 0.8356243000901703
2.064006593340887 11.91248512789394 18.823920934256428 297.11534800900296 0.8625818801935418
2.066170771682045 11.84359574239099 17.62129419101339 314.85282642719295 0.8911407551022413
2.0671672959001812 11.772713933807866 16.525209864993663 333.90749686480154 0.9214269020935332
