M[M_sun], R[km], Lambda[1], P_c[MeV/fm^3], rho_c[fm^-3]
0.24162668629717493 15.618656898711224 2160425.4255784233 3.5677272577965504 0.1711233750220791
0.25363548839053013 15.277487613614865 1723410.8141883519 3.7846611624868167 0.17388619813113138
0.2660227642809655 14.981620605550983 1383385.4451362803 4.011068415915722 0.17666263618505493
0.27878609282335914 14.724094041704985 1116990.7706661918 4.247210035161964 0.17945150411785787
0.2919311412671315 14.499009891405287 906446.7994382539 4.493708821192339 0.18225932481393156
0.3054550471298326 14.301888844936773 739185.108628585 4.750709070341321 0.18508158311274156
0.31936059603908756 14.12884329783739 605560.8200233757 5.01891141986337 0.1879253014092831
0.3336459146247983 13.976704886311186 498153.6182695641 5.298514714143968 0.19078661018489632
0.3483149022323679 13.842749168605822 411448.3911614351 5.590276366909659 0.19367239013230483
0.3633641411040577 13.72470517331736 341050.5439974141 5.894327165442318 0.1965770311020021
0.37880395424910057 13.620720468383753 283674.83018825005 6.211545923029497 0.1995085251438047
0.39462192077376906 13.529121178035497 236755.1416169582 6.54221771929198 0.20246354438851258
0.410831273394031 13.448530183504852 198172.6830433418 6.886989274166878 0.20544486118955765
0.427423204544953 13.377688643609142 166354.02412145073 7.246589392008233 0.20845599161466813
0.4444041053898647 13.315518528185372 140051.31002485697 7.621316519472544 0.21149311721268682
0.46176726794920503 13.26112581109692 118197.85555333074 8.012040279544667 0.21456117779525924
0.47951508945194476 13.21369346203346 100004.50160022637 8.419500423328872 0.21766240237657986
0.49765405455607703 13.172462841742476 84811.71272313785 8.844191122714106 0.22079503592231847
0.5161722505110276 13.136840661950853 72096.79722409103 9.28687845244486 0.22396097838665677
0.535074724208797 13.106217100415783 61412.258407924804 9.748494954313292 0.2271638714488631
0.5543610007535269 13.080176965087063 52417.49106463225 10.229847786226527 0.23040506214801515
0.5740221486081172 13.058136566919265 44432.29246351478 10.731483589230802 0.23368221831393163
0.5940629437023273 13.039802564712502 38421.240274255346 11.254495083461324 0.23699962972470706
0.6144763357868294 13.024729309970407 32981.931862069076 11.799888399846104 0.24035982551397042
0.6352569378791938 13.012610954338758 28368.878965972555 12.368639408635543 0.24376443300687173
0.6564034200601183 13.003154039389775 24436.93885756712 12.961539965865784 0.24721257695636012
0.6779185028936354 12.996083461440653 21088.23685068774 13.579709307333506 0.2507067353996132
0.6997823806451334 12.991149116633945 18224.49219954476 14.224439399085407 0.25425065943230335
0.7219931609536185 12.988051674150979 15775.740808747036 14.896915837536394 0.25784632585655703
0.7445583058142108 12.986653765471484 13577.534399724807 15.59830303249655 0.261495001644733
0.7674545259048583 12.98673604127694 11872.832348160866 16.329594489513287 0.2651958778188064
0.7906758589127091 12.988095877217182 10252.48873282593 17.092530511994703 0.26895495236013994
0.8142241787530778 12.990594069700586 8985.603260156962 17.888560753548585 0.2727746472275167
0.8380830697866791 12.994035584798922 7833.486640515709 18.719212609865387 0.2766575202177201
0.8622436171342864 12.998299167949913 6837.352131885642 19.585510161588857 0.2806012111521624
0.8866893992897434 13.003223649213579 5975.794282605305 20.489670299847177 0.28461332824094104
0.9114248991431871 13.00870042357457 5229.343387482416 21.433489122500845 0.28869695168916715
0.9364234222499063 13.014579631929221 4581.422802234701 22.418668450918208 0.2928537812576113
0.9616730851422126 13.020766352100654 4018.869769189259 23.44678963712875 0.297084084752061
0.9871735184096657 13.02715245254446 3529.408481807453 24.520477131529056 0.3013956684063245
1.0128911776427667 13.03360788856869 3103.527310619154 25.641930106564036 0.3057921036011025
1.0388293279173815 13.040053899718343 2731.7831014609233 26.812583826983836 0.31027078842794065
1.0649596089726736 13.046393904978583 2407.595332795934 28.035773844923774 0.3148423208163462
1.0912632247993375 13.052516131912046 2123.933790347177 29.313856223870825 0.31950925367003014
1.117737829675891 13.058358363398787 1875.9606436520355 30.648967479430283 0.32427206676516407
1.1443495391907037 13.063832716427447 1658.5622889818287 32.044893337181186 0.3291415270088596
1.1710852215160021 13.06884586538764 1468.0361097758307 33.50360957433192 0.3341155690209481
1.19791710948359 13.073318220299956 1300.8445530411334 35.029246450164884 0.33920522003472686
1.2248427693880757 13.0772059789715 1153.8372148973822 36.624457365708004 0.3444112138439018
1.2518216217016804 13.080407293800494 1024.462210608911 38.29349569520591 0.3497432008660804
1.2788372753406356 13.082865576012983 910.6292410464401 40.0393859222488 0.3552025001379218
1.3058617188398203 13.08447527592432 810.2296397587598 41.86720194879614 0.3608013588488453
1.332877873822717 13.08522725521634 721.6929762401585 43.7799059792781 0.36653892755382617
1.3598703539813541 13.08505917933802 643.5153604910487 45.78312545542394 0.37242824401996727
1.3867839312898855 13.083839022489848 574.3005514684796 47.88169657602475 0.3784765789647035
1.413617274064556 13.081579550188485 513.1287102367316 50.07978457964523 0.3846866517935814
1.4403432038044615 13.078211067803032 458.94571109039924 52.3836863917337 0.3910711059839649
1.46691167452199 13.073635488927524 410.8985841830187 54.79924297402251 0.39763873897391366
1.4933141711621651 13.067841765208902 368.2283261516457 57.332609131287455 0.40439855299111194
1.5195169713951784 13.06076347695012 330.3820088082545 59.990374639916745 0.41136025552549477
1.5454902224110685 13.052336506955147 296.6699758307214 62.77960337425699 0.41853431731804136
1.5712006571258956 13.04252728584903 266.7169394889925 65.70787617419705 0.42593203507174787
1.5966196072911478 13.031273204749123 240.02978193087188 68.78333783308973 0.43356559943747214
1.6217152224475408 13.018538788384669 216.2538692306215 72.01474863220848 0.4414481688949852
1.646446151682731 13.004269982342981 195.02979607982303 75.41154090132724 0.4495939502244593
1.6708106430294623 12.98843235846401 176.08143123076118 78.98388114552031 0.4580182863469174
1.6947418195821586 12.970970609095708 159.131347799826 82.7418940825629 0.4667342858161324
1.718232414501123 12.95185982970002 143.9789387753817 86.69739342067244 0.47575990244275523
1.741234369862294 12.931041993038459 130.40959571003873 90.86338106983408 0.4851154428081016
1.7637204318040498 12.908489058235103 118.2608303990499 95.25198489230232 0.49481520841792165
1.785655974009559 12.884147745654353 107.35066011168652 99.87871958571615 0.5048842163796001
1.8069980774378673 12.857976174518884 97.56783531376767 104.75892556979831 0.5153437565686139
1.8277466879939832 12.830012392761148 88.77115687039384 109.90840361060947 0.5262138927023211
1.8478272583776854 12.800120133591395 80.85748157732672 115.34613743473882 0.5375233633449408
1.8672477272092272 12.768370148847053 73.74901798154094 121.09156469163446 0.5492988977384418
1.8859433047796645 12.734651603337948 67.33943471736953 127.16585089241316 0.5615696908995026
1.9038837345617465 12.698935311973509 61.56341965178125 133.59206487765465 0.5743676163356528
1.9210578982622697 12.661265964057204 56.35124385687906 140.3945963412159 0.5877247500419622
1.9374258480708604 12.621582117724321 51.64954862403564 147.600769230308 0.6016786049697596
1.9529630858528002 12.579894203791985 47.39364682118771 155.2407067658264 0.6162710106441913
1.9676125575898251 12.536096549082094 43.55398172901101 163.3452274450607 0.6315403671734284
1.9813780240312782 12.490264186502628 40.074622552167696 171.9501492438335 0.6475357678359993
1.9942205561653041 12.442362534976125 36.921925460588746 181.093564016183 0.6643069168266461
2.006087922421852 12.392317875459636 34.068504515208176 190.81696646049372 0.681907219122973
2.0169878864732578 12.340209279209692 31.480172421056945 201.16600991396538 0.7003954100845632
2.0268830965798625 12.286003947826082 29.13124621430505 212.19096758023588 0.7198360649854469
2.035749072883668 12.229702356505737 26.995871583812512 223.9463133087135 0.7402971123840086
2.043563077566757 12.17130805089287 25.058028182147268 236.49258505341436 0.7618546974869911
2.0502947523577624 12.110801895471779 23.295585944838745 249.8958000434802 0.7845898265542256
2.055919323667821 12.048180298353033 21.693072869459176 264.229508103326 0.8085934540659454
2.060441523570626 11.983538474102243 20.23282626888374 279.5742329131255 0.8339628152695497
2.0638343635050314 11.916852406072497 18.905175500580313 296.01935367561765 0.8608054540285294
2.066065352657334 11.848125222630827 17.69537105894182 313.6627786276866 0.8892357226396193
2.0671378502982822 11.777423554702148 16.594148325450853 332.6151229099735 0.9193857006659852
