M[M_sun], R[km], Lambda[1], P_c[MeV/fm^3], rho_c[fm^-3]
0.24162668629717493 15.618656898711224 2160425.4255784233 3.5677272577965504 0.1711233750220791
0.2536416195357245 15.27738967897245 1723297.401776897 3.7847968272723627 0.17388788912723635
0.26603811602024524 14.981267184408125 1353399.7637323653 4.01135360099936 0.17666608247848595
0.2788118377552631 14.72355328711197 1116485.178272113 4.247654379152995 0.17945665783854173
0.29196470246613365 14.49847046764484 905949.0860815165 4.494323974037266 0.18226617468362935
0.3054975313155461 14.301307138238057 738712.0523806425 4.751515907753046 0.18509029849666056
0.31941212041807787 14.12825197870589 605181.1619780245 5.019915874695564 0.18793572301585107
0.3337085610335791 13.976036337725388 497768.13300153625 5.299743217250013 0.1907989791727189
0.3483877933673918 13.842136776137753 411070.4104943446 5.591731974746896 0.193686473538554
0.3634486103733184 13.72409365190189 340728.0202247095 5.896042563929005 0.19659314248760607
0.3789003392827373 13.62008812070369 283362.8881211687 6.213541855092131 0.19952672564095728
0.39472859916064235 13.528575902665121 236457.67847535954 6.544492101886973 0.20248348765133029
0.4109524052249498 13.447993578567436 197915.79320800284 6.889585992456004 0.2054669759321784
0.4275585731274492 13.37713973023676 166121.7151269849 7.249532794123198 0.2084803416260359
0.444551204383768 13.315014763071487 139835.28175599748 7.6245984602563 0.2115192435716065
0.46192936571725907 13.260652843963996 118007.30511618787 8.015717975150631 0.21458962774406057
0.47969254670399075 13.213243840576235 99839.97729184387 8.423602528790406 0.21769324447501232
0.4978461999226781 13.172076982018394 84670.89277375156 8.848702504811605 0.22082770025626963
0.5163810866334386 13.136471648956427 71960.59997317992 9.291872081450872 0.2239961338461756
0.5352967255928345 13.105902664261833 60705.581351253386 9.754004660550565 0.22720159381422095
0.554600119685461 13.07988532784194 52318.76924967711 10.235909454455609 0.2304454304937564
0.5742782198487059 13.057898994738386 44746.28180919974 10.738070877472097 0.23372451074492726
0.5943341904989526 13.039587854345513 38343.55587325921 11.26170700025243 0.2370446899113269
0.6147677797855355 13.024532675910153 32637.40217164786 11.807767513940943 0.24040774367367862
0.6355654378340387 13.012459056106586 28305.742180107853 12.37723094302048 0.2438153041194823
0.656734314504657 13.003056619791865 24380.60410009919 12.970804469226277 0.24726552905848032
0.6782640132950746 12.995990164020007 21037.164481884414 13.589778259699512 0.25076279662875334
0.7001477890054276 12.991071078695459 18180.32815372035 14.235366742144436 0.2543099408017077
0.722378886059513 12.98800409884548 15736.26005266275 14.908758976897207 0.25790894499866285
0.744961253840452 12.986653510226617 13640.245455730676 15.611007571927919 0.2615599388230521
0.7678796827851088 12.986759734479032 11841.431787149706 16.343332365141052 0.2652643576832326
0.7911208983560525 12.988130335463955 10225.214297977824 17.107370610726296 0.2690271147349926
0.8146915043935872 12.99064576738207 8960.645601451692 17.904576526885982 0.27285064092682
0.8385688188015181 12.994119717419142 7810.650736119827 18.736342194786054 0.27673626087724723
0.8627471861847144 12.998385539634674 6818.09602443831 19.603957713057014 0.28068397368133813
0.8872186842093208 13.003330807171238 5958.268857299827 20.509533674679865 0.28470037262932285
0.9119752227747834 13.00882393412294 5213.8962876631695 21.454863099155403 0.2887884688675765
0.9369906438143248 13.01471491107141 4567.759812923707 22.441464032573705 0.2929484611259722
0.9622652604036182 13.020914407501508 4006.8613876818986 23.471292679506064 0.2971835988877185
0.9877868396625702 13.027312517502162 3499.2752548685057 24.54680286050079 0.3015002480301188
1.0135258176143283 13.033764289183239 3093.844561542125 25.669976671303303 0.3059003406958948
1.03948551588023 13.04021507551441 2723.1203097160533 26.84269383272577 0.3103845386077386
1.0656351547433478 13.046552535372564 2399.6253704358487 28.068088100408666 0.3149618652987
1.0919590310183034 13.052674423282324 2116.9765560141623 29.348260268653924 0.3196330871070581
1.1184550564680553 13.058510133796712 1869.7295015732145 30.68587172118851 0.3244022488693014
1.1450811009623179 13.063965805294604 1652.9895385851307 32.084417961445936 0.3292780596418703
1.1718425191963717 13.068981398665333 1463.0982508160898 33.54573386577972 0.3342575322263234
1.1986930992764 13.073439475788573 1296.2667116470707 35.07440958279349 0.33935456227057675
1.2256356877681358 13.077309472244414 1149.7777141797533 36.672528370829454 0.3445662834651919
1.252628104548586 13.08047864324707 1020.8287946882667 38.345027150593715 0.34990644121993075
1.2796665949033639 13.082920855852322 907.3380337444501 40.09424359492959 0.35537221145043185
1.30670832749365 13.084518337689948 807.2825619395878 41.92561238957457 0.36097794246046144
1.33374258759019 13.085224342137803 719.0259138472451 43.842523434913105 0.36672505901533675
1.360746493250097 13.085039601410944 641.0465847672406 45.84981882754691 0.37262217928649105
1.3876752144425637 13.083789093563052 572.1929329295987 47.95275045829901 0.37867882125034824
1.4145292291074136 13.08150095594182 511.16665956964744 50.15597730865314 0.3849001522168739
1.4412503113499062 13.078058881590744 457.17334799654407 52.46489711948459 0.39129408021533857
1.4678439804303356 13.07346708098875 409.3023185850562 54.885830931718445 0.39787181818352646
1.494250202858995 13.067613161071908 366.7995627546398 57.42496263058926 0.40464241711157284
1.5204607137182828 13.060478504311138 329.07200816148594 60.08891367482723 0.411615637253133
1.546443301525365 13.052000698166221 295.50945772566683 62.88478248244573 0.4188020065104916
1.5721583970154192 13.042131541893378 265.6576774562832 65.82018758664013 0.4262128835843433
1.597580415283704 13.030817636184954 239.09438350593234 68.90331494440854 0.4338605264459311
1.6226618247505875 13.017986352160179 215.39428156633016 72.14296982806805 0.4417581667575293
1.6474195791760144 13.003683446750935 194.2459975551115 75.54863378376227 0.44992009094290186
1.6717690067290247 12.987766014052957 175.35964468283618 79.13036355244006 0.45836104524818005
1.6957063831704224 12.970232191794318 158.47965215134408 82.89808555083145 0.4670932133553102
1.7191703424188745 12.950999828272947 143.4039921031997 86.8646483229191 0.47613865250536636
1.742175493939311 12.93011447923398 129.88245210817885 91.04176906069272 0.485512290425503
1.7646561364183995 12.907481269381295 117.7686931747299 95.4432223228575 0.49523482604180297
1.7865857814832413 12.88306422086724 106.90442373421412 100.08297290659422 0.5053249861847755
1.8079262682721025 12.856825398310361 97.15908257591045 104.97737487066024 0.5158078364571002
1.8286394284304097 12.82871011841194 88.39670634829206 110.14288092078851 0.5267056287703705
1.8487222385802358 12.798763277269 80.52617802927708 115.59713236668824 0.5380418322626559
1.8681116805054794 12.76688030010626 73.43865348879395 121.36045595043792 0.5498462618037122
1.886787061754302 12.733051491412892 67.05885779137012 127.45414625387002 0.5621482973895974
1.9047140981686008 12.697256523839725 61.3023735030718 133.90081027907024 0.5749778827952061
1.9218617325922926 12.659467527307818 56.117529850842025 140.72570939719685 0.5883698841909446
1.9381813379376154 12.619599605108773 51.43223254797874 147.95668441181377 0.6023632255292704
1.9536847259380037 12.57778997608556 47.20099823811079 155.6224285698949 0.6169944116737924
1.9683078205471003 12.533881796435843 43.37272531732357 163.7562638993918 0.6323100058179869
1.9820323091078198 12.487912871096528 39.910097813202725 172.39187281705242 0.6483513621168917
1.9948279199934238 12.439859176776539 36.773874679405196 181.56877197014177 0.6651725147039135
2.0066679275213235 12.38971290497243 33.93110571681758 191.3287404662231 0.6828272413908789
2.01752868309245 12.337483225487755 31.350217202366597 201.71774914264898 0.7013746927908895
2.027374648371995 12.283129504514493 29.01272806226684 212.78594095864037 0.7208783176489216
2.0361948003558434 12.22668962808147 26.889388086925997 224.58820266511205 0.7414066334177618
2.0439501100694257 12.168125218766898 24.95971928706213 237.1861449861641 0.76303841194589
2.0506210218525216 12.107451218190395 23.204338518454126 250.64607536050067 0.7858546211473136
2.056199675270487 12.044714372890136 21.60868621670173 265.0413063926158 0.8099443335838101
2.0606656977326128 11.979917614280089 20.156143548368284 280.45369359511847 0.8354078668866742
2.063988457887762 11.913066669040244 18.834524535460186 296.9721903399363 0.862349939118503
2.066157438336848 11.844184896390393 17.63080086791159 314.6973145394301 0.8908918111567673
2.067163488283041 11.773326968706694 16.503971394542386 333.73860529892573 0.9211601513561953
