M[M_sun], R[km], Lambda[1], P_c[MeV/fm^3], rho_c[fm^-3]
0.24162668629717493 15.618656898711224 2160425.4255784233 3.5677272577965504 0.1711233750220791
0.25364466524356083 15.277250564532558 1723230.2124872387 3.784833198214331 0.1738883424734821
0.2660404186775185 14.98126355759401 1382941.5647662722 4.01143005993135 0.17666700643955607
0.278816866943559 14.72348176127732 1116381.841959606 4.247773512751317 0.17945803960875176
0.2919723204779547 14.498376481366561 905795.2265233757 4.494488908407925 0.1822680112661259
0.30550880299691835 14.301186679263873 738621.2815920375 4.751732243120551 0.18509263533151185
0.3194260073002355 14.128093397806422 605064.3247215289 5.0201852045830675 0.1879385174173857
0.33372605224075014 13.975871218693403 497665.6543852185 5.300072632292724 0.19080229583560063
0.34840722340113156 13.841975142220651 410974.2369137997 5.592122297351998 0.19369025001713241
0.3634705635524038 13.723946240560878 340638.11904689466 5.8965025631266625 0.19659746289741667
0.37892549963319094 13.619948689175503 283274.71616949246 6.21407709741265 0.1995316064064467
0.39475941321211255 13.528390155932582 236380.493321392 6.5451020315515 0.20248883591051356
0.4109847940230872 13.447821084639122 197838.63580443824 6.890282383953371 0.20547290669439933
0.4275932677492761 13.377043859099773 166066.10142646034 7.250322182153067 0.20848687203090419
0.44458966977377407 13.314890012628625 139788.42461898885 7.6254786629771925 0.2115262505512333
0.46197297014521566 13.260545612378815 117967.36532673902 8.016704345161253 0.21459725811353864
0.47973859792200724 13.213122926383907 99809.87811249182 8.424702757459896 0.2177015166565154
0.49789687586752385 13.171975606730612 84628.26654501364 8.849912535382243 0.22083646139460736
0.5164374549116904 13.136372039089279 71927.7398912874 9.2932114956597 0.22400556340570846
0.5353568524192298 13.105821886173366 61267.08992055586 9.755482539731755 0.2272117121573824
0.5546647244394478 13.079785639305971 52296.76998504098 10.237535431752672 0.23045625886825905
0.5743489136122178 13.057816734113233 44722.46866655516 10.73983788799623 0.23373585549984355
0.5944078889611312 13.039508982594135 38321.736927894526 11.26364161679383 0.23705677743048698
0.6148452646568568 13.024484738105663 32896.54221568026 11.809881164970333 0.24042059819848619
0.6356514701813085 13.012442844040763 28287.26958052305 12.37953576998834 0.24382895117098402
0.6568232240114139 13.003016616420812 24366.22560707298 12.973289888023492 0.24727973469313125
0.6783563984982679 12.99598371292907 21024.298680498112 13.592479563107176 0.2507778367624047
0.7002457970858611 12.991062820394715 18168.917831686533 14.238298413695365 0.25432584526295177
0.7224821231480144 12.988001673100785 15725.519469740348 14.911936430701202 0.25792574539467483
0.7450711748255677 12.986639214046244 13631.135867943949 15.614416210758879 0.26157736152371647
0.7679935842226963 12.986761451776367 11834.039551547528 16.347018348025838 0.26528273138343683
0.7912405246049539 12.98814406108152 10286.652937888959 17.111352436305353 0.2690464770044243
0.814815041614355 12.990678740565066 8954.381213985627 17.908873920214134 0.27287103175088373
0.8387002968872661 12.994136064199068 7806.123906186424 18.74093609546074 0.27675736747389934
0.8628820214869639 12.998410288603756 6812.482292249957 19.608907851376298 0.2807061818300879
0.887365482134442 13.003360650913452 5953.856232686783 20.51486387479368 0.2847237303926822
0.9121228706617016 13.00885520330966 5210.013636390747 21.460598816603582 0.2888130275487004
0.9371443844043656 13.014751478191503 4564.107684004547 22.447581374878666 0.29297386908322054
0.9624294830960605 13.020967983625388 4003.5634862345537 23.47786841264984 0.2972103048938561
0.9879511716307626 13.027342085707726 3496.3325771588406 24.55386793477964 0.30152831421628046
1.0136948905019123 13.033798866394923 3091.2484102736425 25.677503739355398 0.30592938910113926
1.0396603569669158 13.04025690708615 2720.6140034490877 26.850774911421944 0.3104150674678966
1.0658133220131283 13.046585531640755 2397.548456016229 28.07676101557708 0.31499395018318055
1.0921466309778944 13.05271690700993 2115.0601433692314 29.357494282723984 0.3196663238879968
1.1186468697387206 13.058548546514016 1867.8714329846805 30.69577707485427 0.3244371906462083
1.1452782276152633 13.064005010334226 1651.6205751981145 32.094962326598505 0.3293142890419563
1.172043636207457 13.069018255271288 1461.6316902996841 33.55704092164928 0.33429563817041
1.1989017223376421 13.073473254115227 1295.0249012765223 35.08653269382475 0.3393946501121743
1.2258485488169444 13.077339966546386 1148.719032535532 36.68543235781404 0.34460790972970995
1.252845417670368 13.080497287690319 1019.8548447165108 38.358820993274996 0.34995003056172247
1.2798895060478477 13.082944383324302 906.4068607100272 40.108970195721156 0.35541777063344154
1.306934083050947 13.084525629431816 806.5422794759746 41.941293138558144 0.36102534774026185
1.3339729054242802 13.085242317726955 718.3735262611947 43.85933413098567 0.36677502909791626
1.360981936526174 13.085034515331454 640.4217277088879 45.86772424807319 0.37267424581711395
1.387914745486573 13.083768729782872 571.6410947218574 47.97182707893746 0.37873311947075244
1.4147651082272834 13.08146162944418 510.6693108672504 50.17643430005544 0.3849574749611902
1.4414956844970037 13.078022000599086 456.73777059150484 52.48670200813557 0.39135394826998837
1.468091652642976 13.073420131548096 408.886299686092 54.9090802623836 0.39793440120037615
1.494501351738011 13.067550513601846 366.39922920049696 57.449760768047696 0.40470789785703554
1.520714103787502 13.06040247661874 328.7350655895366 60.11537350399535 0.4116842126851139
1.5466980560628998 13.051910751561232 295.19686449946397 62.913026178358834 0.41887388896206385
1.5724141976347206 13.04202682541052 265.377995183735 65.85034746206853 0.4262883020655989
1.5978280606432587 13.030687985431408 238.83552265911914 68.9355343838364 0.4339397280768108
1.6229254479838766 13.017865303151918 215.16627171188344 72.17740431783119 0.4418414183459489
1.6476782092053122 13.003523100007017 194.0337619311971 75.58545204936017 0.45000768072422836
1.6720275309090415 12.98758770973736 175.17943547018754 79.16955657646157 0.458452482124825
1.6959639704026679 12.970028818592207 158.3137652824383 82.94003569866175 0.46718961467284553
1.7194441879668643 12.950812207073719 143.23160249353035 86.90957152891343 0.47624038146430564
1.7424206282345671 12.929834998143146 129.7452480704182 91.0896840243199 0.4856188835827094
1.764908180294351 12.907213005680337 117.6397542117042 95.49459059523163 0.49534753950136967
1.7868348619833718 12.882772648443714 106.79186875061055 100.13783921457596 0.5054433852970927
1.8081716342297143 12.856508001016623 97.05511444919695 105.03602370595446 0.5159323773817802
1.8288805907650598 12.828367200249936 88.29953559110234 110.2056919015041 0.5268370628753938
1.848960150379233 12.79839171876219 80.4348277745355 115.66456194605271 0.5381811185054639
1.868334727583494 12.766448354363169 73.36177503612456 121.43269611367465 0.5499933163029957
1.8870122673494185 12.732621747285588 66.98518251281952 127.53153422635393 0.5623035074660117
1.904933505244616 12.696798126218717 61.23547555781079 133.98364180128792 0.5751414179390232
1.9220726433555915 12.658973918229892 56.05517231856955 140.81467643102454 0.588543225805294
1.9383852922809928 12.61907829714081 51.37419734666298 148.05231969426504 0.6025471847532173
1.953881872699862 12.577227361660547 47.149413059089525 155.72500225582573 0.617188799076402
1.968494067567146 12.533288374891498 43.32724593765683 163.86646098022675 0.6325159511092109
1.9822078084579449 12.487280282856684 39.867059558229265 172.510580376892 0.6485705426469194
1.9949931090368345 12.439194282329478 36.73350354247522 181.6964837501931 0.665405143482101
2.006827678055911 12.389027324212979 33.89184380178977 191.46628574284375 0.6830745081842673
2.0176713011247385 12.336745475604944 31.317171098538402 201.86604270012705 0.7016378992274598
2.027505123108874 12.282354506172101 28.981788372425555 212.94561908543722 0.7211576649785139
2.036311795787279 12.225876372831658 26.860111137883727 224.76074318972587 0.7417048738221641
2.0440531778204947 12.167274512298423 24.934379195075323 237.37238842187355 0.763355974112388
2.0507100692627875 12.106557840832982 23.180206977504337 250.84756413463796 0.7861939600752228
2.0562800786720348 12.043801886839606 21.58743345946985 265.259553516664 0.8103075094781169
2.0607228010260568 11.978944050792892 20.13617434248332 280.68972556335206 0.8357950142505367
2.0640248626010878 11.912043065582566 18.816048659589377 297.2282666579157 0.8627648286376698
2.066181045220007 11.843129395558739 17.6133094957964 314.9754913120892 0.8913371174566342
2.0671699015428096 11.772227532717062 16.51822517728336 334.04071708611457 0.9216373127915408
