M[M_sun], R[km], Lambda[1], P_c[MeV/fm^3], rho_c[fm^-3]
0.24162668629717493 15.618656898711224 2160425.4255784233 3.5677272577965504 0.1711233750220791
0.2536417922654812 15.277380848314593 1723200.9081128815 3.7847998935582003 0.1738879273470101
0.2660379588086556 14.981287309537413 1382997.6953819683 4.011360046899958 0.17666616037339058
0.2788115604581873 14.723575427334163 1116627.7548172416 4.247664422697722 0.17945677432852525
0.2919646674356795 14.498517351406862 906013.474098946 4.494337878729288 0.18226632951560212
0.3054983590077484 14.301309090465478 738694.953613344 4.751534145666221 0.1850904955009304
0.31941336735327436 14.128234060611778 605192.6324405919 5.019938580125038 0.18793595859344536
0.3337101329609268 13.976053474303555 497735.4824509119 5.299770987901974 0.19079925877710432
0.34838938883804704 13.842124172333325 411066.6241950726 5.591764879906344 0.19368679190502355
0.3634494218106139 13.724104590599202 340699.88694522576 5.89608134277714 0.19659350670675424
0.3789024743721762 13.620114005364904 283365.6467736687 6.213586976831075 0.19952713709688633
0.39473236964602004 13.528541233341176 236452.48432583341 6.544543519617633 0.20248393851536622
0.41095504919640125 13.447956828936537 197905.08934512179 6.889644698688445 0.20546747589908898
0.4275618869302891 13.377125402841646 166116.80760042736 7.24959933965523 0.20848089214016827
0.44455452934908685 13.315020806385956 139839.4117817721 7.6246726611159525 0.21151983425816034
0.46193286207334755 13.260646339226746 118011.01742871339 8.015801125436036 0.21459027097874228
0.47969478710310887 13.213236438548545 99844.46054815878 8.42369527678061 0.21769394181023935
0.49785000395060336 13.17205274819122 84662.40231640218 8.848804508491837 0.22082843880649733
0.5163861177843448 13.136455458193778 71958.9320440303 9.291984991370045 0.22399692873904567
0.5353022658599785 13.105891377679338 61294.60916347755 9.754129242129142 0.22720244676565274
0.5546057536107392 13.079856468775986 52316.97993338365 10.236046519618142 0.23044634329426958
0.5742862148506404 13.057901827358705 44743.48783892616 10.738219830651548 0.23372546707047925
0.5943405763963079 13.039554559096068 38340.85992236832 11.261870081216008 0.2370457088441385
0.6141311102606273 13.024463222592283 33058.37742653015 11.794095178905385 0.2839208061837022
0.6304166773842484 13.008789973221916 29254.345470216424 12.438505268080913 0.37498271173161346
0.6439757374216859 12.988636611178707 26340.307473883255 13.128601275657676 0.45430728372603474
0.65555313372493 12.962949604255156 23978.398994981373 13.889664797952147 0.5294022986240515
0.665717635595221 12.93161945168318 21977.49351275523 14.721591107323157 0.5995461374798001
0.6748481093317916 12.894642454534356 20223.796163804625 15.623925747527299 0.6660700276255143
0.6832794761370826 12.85238500349767 18641.85481872311 16.597702431432694 0.729270475558629
0.6912499003995098 12.805151537203399 17189.88609651691 17.641614432854357 0.7883746094271548
0.6989857650009753 12.753267586490047 15837.485894551957 18.757110710291702 0.844147015759281
0.7066476022669514 12.697161587148027 14567.047463973375 19.94627679058128 0.8968071820751377
0.7144037258001491 12.637366132504974 13360.909717410841 21.20554026195698 0.9468043584163769
0.722344545917571 12.574245133481245 12221.510187324653 22.54233392834669 0.9957272889296869
0.7305515242223198 12.508244301448062 11143.98502904311 23.95232702240086 1.0428964154846307
0.7390986534223994 12.439777458394012 10060.376779065658 25.442518040640003 1.0891590465409213
0.7480719503742205 12.369585209948108 9172.786121398398 27.014010275119976 1.1345105549903893
0.7575130661947673 12.297832500664592 8279.717489046458 28.666120142669676 1.1788781883732258
0.7674109475532362 12.224865477062687 7450.867003721245 30.405662429609244 1.2227623129306662
0.7778458031559798 12.151335690478518 6682.225840237913 32.23497799066724 1.2662372341416528
0.7888268567705757 12.077415857520759 5974.426932367164 34.15679956897289 1.3094041597963284
0.8003425316336815 12.003391031693317 5327.43826353422 36.174077247493756 1.3523688394863826
0.8124372996297956 11.92990911679306 4738.305299595236 38.2904583542058 1.3952604354616676
0.8250766427539025 11.856872626834715 4204.493063451695 40.51130815353301 1.4382653229324627
0.8382749214850281 11.784797576521829 3723.2253292138817 42.83954965295694 1.4814411313079512
0.8520040946620924 11.713660942336046 3291.078126640212 45.280950322362386 1.5249572194813659
0.8662544513175473 11.643769771267053 2905.08581452606 47.841185687898395 1.5689615147634057
0.8810027292427524 11.575134597797405 2560.841341417495 50.52650438273501 1.6136173747894547
0.8962311714941178 11.507943638180171 2255.3172631960892 53.34200315135433 1.659069934287017
0.9119117541444431 11.44234755027023 1984.910526986748 56.29196090098854 1.705523993917444
0.9280028596109359 11.37823299623506 1745.727188226346 59.388356521554265 1.7535908657945039
0.9444717876675008 11.31568726401639 1535.2009379008607 62.63251247150444 1.8044632788453476
0.9612469419939306 11.254675214253712 1350.5350589903246 66.03961866129548 1.8631942499176959
0.9782378684568972 11.195352382205888 1188.873270788358 69.62226846533743 1.9364422444612808
0.9954973727710174 11.137140348963978 1046.6279493945367 73.37758300810128 1.9651754322618873
1.01317457947474 11.079899529595671 920.7510063989799 77.30737633664403 1.994422641449571
1.0312080528866556 11.02410713224245 809.9356131630809 81.42119894496045 2.0248950311043243
1.0495577201057606 10.969612648018046 712.4968041921644 85.72979871349685 2.0566563875435446
1.068159440531203 10.916566749719362 627.1223105632743 90.24508213572874 2.0897769081632207
1.0869758318256604 10.864786366932789 552.263709491769 94.97912587127544 2.124325322350109
1.1059245141563459 10.814225224865199 486.78541330921513 99.94390983295915 2.1603662267783594
1.1249502194175498 10.764759421609051 429.47865201065815 105.15753397756548 2.1980134399761173
1.1440067195132135 10.716378836703187 379.42023799348584 110.63144198699875 2.237319261592783
1.1630311243974065 10.668893098411324 335.59223764176375 116.38593597618025 2.278408327837198
1.181968630441531 10.622126327827427 297.2800435018716 122.43782620553272 2.3213701209283384
1.2007638992010237 10.576013521460203 263.7263474901732 128.80564442915986 2.3663034973585497
1.219351076654221 10.530378739777053 234.36875894336274 135.51118989720266 2.4133298023334415
1.2376895721636887 10.485037132385443 208.60729532190192 142.57668415559056 2.4625672563335983
1.2557298159935841 10.439946750830115 186.00065845211708 150.02786402297227 2.514157534672349
1.2734014150806672 10.394985858400139 166.14723647268653 157.89187380549052 2.5682463395158655
1.2906774362670197 10.349907242370596 148.67977682215982 166.19564051456442 2.6249676607045367
1.307502744256418 10.304653741773375 133.28993937173314 174.97199212220266 2.684497539168938
1.3238281971548798 10.259085401326752 119.73133264547481 184.25505936001696 2.7470117456626353
1.3396217881473713 10.213114639223713 107.7496945147641 194.0818511519577 2.812698425743124
1.3548240608884559 10.166695806410747 97.17157293497606 204.49332369391496 2.8817663576199513
1.3694144111784947 10.119618563517754 87.79089091930396 215.53170533702794 2.954418263271632
1.3833350863141212 10.071811147709823 79.31962722593276 227.24758211478118 3.0309146973178662
1.3965551744607017 10.023262251476408 72.09375608708957 239.692246566613 3.1115003842024307
1.4090558208283903 9.973810246010787 65.52653651813304 252.922796099329 3.1964488901039427
1.4207905708958415 9.923393434640538 59.67938690102251 267.002615590007 3.2860644634140272
1.43170351456016 9.871998950888544 54.4665032938609 282.00195582106187 3.38068438357876
1.4418034983172932 9.819547959713296 49.80695745641014 297.9947283309181 3.4806431555642527
1.4510536242283663 9.765977181215217 45.64363753100925 315.065663711941 3.586337942408659
1.4594100529185716 9.711242847343351 41.93154443934459 333.306543919331 3.698186235814673
1.4668781515602036 9.655334661067482 38.58963491162289 352.816905775606 3.816625522836293
1.4734105519475256 9.598153530290935 35.593290525949456 373.7100931033663 3.942167966314742
1.4789953236174194 9.539726724625945 32.898447042396086 396.10865872143114 4.075344526101585
1.4836293878502367 9.48007532387744 30.484399745914697 420.149525839123 4.2167483302411055
1.487285329234245 9.419099757361595 28.30551189635829 445.9829360414689 4.367011349137765
1.4899447189771462 9.356869214211706 26.337115399644194 473.7776741213409 4.526847182845708
1.491613026743534 9.293408070972456 24.572969309043426 503.72007304987943 4.697023877196527
1.4922763011164148 9.22865024005579 22.945487477944322 536.0175502510685 4.8783835062382215
