M[M_sun], R[km], Lambda[1], P_c[MeV/fm^3], rho_c[fm^-3]
0.24162668629717493 15.618656898711224 2160425.4255784233 3.5677272577965504 0.1711233750220791
0.25364117784195095 15.27738222750087 1723270.354809779 3.784785295593964 0.1738877453904282
0.2660358467213514 14.981328379697699 1383130.7292475225 4.011329359342453 0.17666578953236867
0.2788087800851274 14.723676174480739 1116560.5747173964 4.247616607623973 0.17945621974572554
0.2919608108266082 14.498562647619433 906018.9622987822 4.494271681730135 0.18226559239665302
0.305493874058637 14.30138698466963 738803.377001708 4.751447319389823 0.1850895576114349
0.31940754892192474 14.128307235854814 605209.9307583879 5.0198304852991935 0.18793483706790645
0.3337011369868148 13.976188050510947 497807.8027428843 5.299638779094675 0.1907979276537889
0.3483823414721766 13.84216475992566 411098.26955570356 5.591608227346198 0.19368527624841053
0.3634409074832939 13.724147642000416 340723.9830854151 5.895896727537418 0.196591772761354
0.3788921802742216 13.620149025858325 283397.5820165851 6.213372165282953 0.1995251782742174
0.3947203954125518 13.528616607246965 236477.95248103252 6.54429873511014 0.20248179208592318
0.4109421209165296 13.448040524249395 197936.58424116863 6.889365216328491 0.20546509571003138
0.4275458415213517 13.377232362051332 166145.14641067854 7.249282537397377 0.2084782713162785
0.44453894770707425 13.315050233962381 139860.7252652992 7.624319414862817 0.21151702219084878
0.461915631661403 13.260693089011983 118031.04703062553 8.015405274606417 0.21458720875254353
0.4796764719806901 13.213273540127384 99850.7895502461 8.423253735295164 0.21769062203553247
0.49782889867360086 13.172097943487813 84676.36445547493 8.848318904623461 0.22082492282700772
0.5163645404197075 13.136494766919855 71973.89181202714 9.29144746769725 0.2239931445388785
0.5352771154862915 13.105943876782367 61307.424510557285 9.75353615495321 0.227198386176907
0.5545805333775047 13.079897372971574 52329.776116810855 10.235394003871786 0.23044199779394606
0.5742582427952915 13.05792233434497 44352.45056864027 10.737510721634125 0.2337209143709329
0.5943106548228362 13.039583911670475 38349.60374307133 11.261093716636138 0.23704085810419415
0.6147427239231693 13.024576142291947 32921.02753350691 11.807097480480943 0.2404036687523157
0.6355395861067934 13.012488786388246 28307.776638430238 12.376500311719234 0.24381097799733262
0.6567056004398724 13.003067460846628 24386.111962986335 12.970016595197539 0.24726102589361498
0.6782341399447385 12.996018174301843 21041.487984800522 13.588921956968324 0.25075802896456334
0.7001170607624808 12.991084830872467 18184.379709359793 14.234437420549376 0.25430489918669896
0.7223455870539944 12.988014696967353 15739.713604676239 14.907751751400193 0.2579036194177836
0.7449274555818479 12.98665536143484 13643.364741870624 15.609927069459706 0.2615544160111602
0.767843806588294 12.986749830762651 11843.805441507293 16.342163956287408 0.2652585334581442
0.7910832201771724 12.988126591176716 10296.124904797764 17.106108433046654 0.26902097719234574
0.8146506397899167 12.990646024229136 8962.822016973976 17.903214329332144 0.2728441773968288
0.8385271821873327 12.994120023782894 7812.700447066163 18.73488601862495 0.27672957050123276
0.8627038471966288 12.998372176630838 6819.659320962778 19.602388628454612 0.28067693418829703
0.887173591934524 13.003318100539495 5960.0446871888 20.50784413174228 0.28469296879020256
0.9119280086566135 13.008810041539357 5215.199395449248 21.45304503107747 0.2887806844265556
0.9369421861575699 13.014705271273098 4568.858843933863 22.439525011733323 0.2929404075373123
0.962209763959164 13.02091826373908 4007.623795288952 23.469208378138 0.29717513392055656
0.9877354062102888 13.027290152221795 3519.5132632612494 24.544563470788457 0.30149135199787996
1.0134718516445165 13.033753262858653 3094.5658855002457 25.667590860243948 0.30589113339153545
1.039428908311005 13.040210419080706 2723.835251098374 26.84013244038751 0.31037486212871346
1.0655768962578758 13.046540910308641 2400.1956965461663 28.065339140531172 0.3149516957007738
1.0919000923665716 13.052659240112845 2117.546369875876 29.34533348227329 0.31962255247314386
1.118392849550155 13.058496844010447 1870.2191950791366 30.682732174473376 0.32439117391482625
1.1450194877214892 13.063950666412214 1653.543315576795 32.08107589921524 0.3292665766452255
1.171776822100905 13.068969874667575 1463.4808510073533 33.54215009660541 0.3342454545547039
1.1986275215078686 13.073435461452675 1296.6443670683175 35.07056719737256 0.3393418565436628
1.2255694559570203 13.077299569851599 1150.1180086764095 36.66843851704938 0.3445530902299932
1.2525592386247337 13.080468156043974 1021.1776779555927 38.34064278596926 0.34989255251394874
1.2795968022889193 13.082920065025789 907.5855464966758 40.08957614599609 0.35535777192272555
1.306635665897325 13.084516614748313 807.5157962400136 41.92064256856622 0.3609629179386286
1.3336680627876536 13.0852373172151 719.2724348144336 43.837195538755836 0.36670922175257237
1.3606731336873152 13.085035558156358 641.2637678843347 45.84414401713188 0.37260567770866887
1.3875991152885692 13.083795026812217 572.3702468544848 47.946704502160216 0.37866161250750013
1.4144515358439125 13.081512014892926 511.33018942065166 50.14949393214728 0.38488198508142163
1.4411799645180325 13.078088523507459 457.32870155694155 52.45798661196679 0.39127510655083814
1.4677637749166137 13.073484140676081 409.42526134856155 54.87846270389834 0.3978519842393817
1.49417106058259 13.067631879454517 366.9092665357073 57.41710361587939 0.4046216649828024
1.5203803571423444 13.060500374194074 329.18309284913374 60.0805281075911 0.41159390453929084
1.5463616772727118 13.05203021572207 295.60686526766733 62.87583165412433 0.4187792259407912
1.572076406106082 13.042165110804637 265.75179530998247 65.81062957729299 0.4261889826053588
1.5975012854874244 13.030857026078037 239.1764016774529 68.8931043269076 0.4338354267678261
1.6225862593144056 13.018056707858957 215.46554842119622 72.1320573418412 0.4417317838542762
1.6473380631418792 13.00373386287907 194.31160637645564 75.53696597460106 0.4498923335014148
1.6716867411432035 12.987822672951602 175.425129584624 79.11794327506 0.4583320688831496
1.695625763689572 12.970295326476466 158.5361785861129 82.8847916710224 0.46706266405822705
1.7190897005371102 12.951069479345033 143.43815188367407 86.8504124330301 0.47610641521895886
1.7420944906045108 12.93019190102141 129.9273105605549 91.02658523417453 0.48547851200046566
1.764580438508074 12.907575974939327 117.80366982677319 95.42694434592592 0.49519910852571947
1.7865069146013655 12.883156770209649 106.94024597893475 100.06558660732576 0.5052874673052373
1.8078476781248205 12.856925526138122 97.19326089217763 104.95879012526876 0.5157683717113063
1.8285729389437746 12.828841424065448 88.433587313633 110.1229208276637 0.5266637692927792
1.8486469327535662 12.798881595062912 80.55354583704529 115.57576562794902 0.5379976959535154
1.8680386694210518 12.767005687860726 73.46266392835176 121.33756510150884 0.549799664423853
1.8867150523699219 12.733189455730065 67.08216067374096 127.42960282773107 0.562099038929172
1.9046446802210821 12.697402881287205 61.32680692287851 133.87456387831415 0.5749260642506785
1.921794025341676 12.659623307718311 56.13574565122396 140.6975191982134 0.5883149589631339
1.9381225272225568 12.619796448389291 51.450839746222606 147.92638166984494 0.6023049366974379
1.9536180562012353 12.577945671414692 47.215303795315364 155.58992770596055 0.6169328192832545
1.9682483626849043 12.534068473655799 43.3865494109009 163.72126593686835 0.6322444744419861
1.981976342477742 12.488111121160461 39.92361506999832 172.35426081036297 0.6482819156589514
1.9947766745610802 12.440068697869194 36.7863406624707 181.52830751824956 0.6650988081437204
2.0066182856332886 12.38993485576552 33.94111183773615 191.2851609149433 0.682748897908885
2.0174835625735317 12.337715720246756 31.362033212257142 201.67076476120246 0.701291300148449
2.0273335748801937 12.28337472217766 29.02302597768613 212.73535021064583 0.7207898121620535
2.0361583700316257 12.226947280199182 26.89820114982388 224.53353752171017 0.7413121434159992
2.0439175213285425 12.168399491905806 24.969095019460752 237.12713924000832 0.7629378017283341
2.0505929767666142 12.107734946763719 23.211920595187564 250.5821748805245 0.7857468993820681
2.0561763046651436 12.045010189192803 21.6159518350658 264.9721633407629 0.8098292755284002
2.060646553650914 11.980227242864476 20.162504356289926 280.37880692154425 0.83528485610579
2.0639767808771383 11.913388832766202 18.840695876160606 296.8910651104669 0.8622185017106535
2.0661495975736686 11.844520261788714 17.636560297862516 314.6091893629056 0.8907507400820398
2.0671618086048094 11.7736783716613 16.54036124458494 333.64289921920755 0.9210089912482282
