M[M_sun], R[km], Lambda[1], P_c[MeV/fm^3], rho_c[fm^-3]
0.24162668629717493 15.618656898711224 2160425.4255784233 3.5677272577965504 0.1711233750220791
0.25364520809932184 15.277246517869346 1723108.3665391866 3.784844454243034 0.17388848277444977
0.26604241330979367 14.98121841630407 1382937.3273254898 4.0114537225468565 0.17666729238829976
0.27881950216702334 14.723458252561917 1116393.705729417 4.2478103826992335 0.17945846724458575
0.2919750870105518 14.498342059533758 905847.2889923007 4.494539953393089 0.18226857966388263
0.3055123554702998 14.301139548443722 738587.1880442243 4.751799196598364 0.18509335855685488
0.31943015716561984 14.128048333618366 605040.2697305544 5.02026855996849 0.1879393822616817
0.3337321177288439 13.97578057592556 497624.3827499164 5.300174584386549 0.1908033223240163
0.3484132912302283 13.841923732279668 410944.19485341094 5.592243100927813 0.19369141882496035
0.3634786704221151 13.723861539113392 340613.44936883246 5.896644932536803 0.1965988000610453
0.37893232680447364 13.619930908999574 283246.7555260714 6.214242755848199 0.19953311701191317
0.3947676709448114 13.528353050586665 236363.29288212242 6.545290807239995 0.2024904912182782
0.41099478862071825 13.447795981532613 197824.3702482514 6.89049792163003 0.20547474230370064
0.4276051284217726 13.37696204471965 166038.89794311943 7.250566504776974 0.20848889324935727
0.4446023870144806 13.314841277824819 139770.77177982507 7.62575109547185 0.2115284192890643
0.461984077930871 13.26048458412878 117936.8666007644 8.017009639966089 0.21459961981567427
0.47975371799347005 13.21307857288069 99794.9892112856 8.425043295671173 0.21770407702780054
0.4979134806801217 13.171911631201603 84619.49308219488 8.850287061552203 0.2208391731241006
0.516455037718048 13.136328004759426 71919.22934889859 9.29362607153153 0.22400848204569193
0.5353752781146386 13.105789175365286 61255.51051644142 9.75593997678069 0.22721484401355493
0.5546851712007451 13.079751309591062 52287.146996470816 10.23803539731011 0.23045956789608546
0.5743696180007153 13.057801218049578 44313.32225788009 10.740384825404055 0.2337393670074218
0.5944296147784263 13.039485909197241 38315.79426582869 11.264240437258989 0.23706051887158971
0.6148698721941956 13.024479258920312 32890.33033664387 11.81053540673522 0.24042457707999498
0.6356777768702251 13.012400532606048 28281.273397790075 12.380249192067048 0.24383317539605007
0.656850144889984 13.002994659958619 24361.185715845375 12.974059214223017 0.24728413184621068
0.6783848296124892 12.995963233580003 21019.989457289597 13.593315719540014 0.25078249225740307
0.7002764835739272 12.991048712588974 18165.327097824258 14.239205884598883 0.2543307683368925
0.7225140895356286 12.98798913104492 15722.964493765832 14.91291998847119 0.25793094583535964
0.7451048725469771 12.986642357279353 13628.542809835346 15.615471336673593 0.2615827546274998
0.7680289246373933 12.986757909939767 11831.289976741951 16.348159332801323 0.2652884189063737
0.7912772348231644 12.988137841437926 10285.633044772798 17.112585007488068 0.2690524705807022
0.8148534943953318 12.99068486835941 8952.171732723584 17.910204185129015 0.27287734376278633
0.8387405188485797 12.994145316982094 7804.095476263066 18.74235815340287 0.2767639010943509
0.8629229807002032 12.998427155896493 6810.823421649342 19.610440195461535 0.2807130564915995
0.8874076961114591 13.003375930783703 5952.485027261655 20.516513881708978 0.2847309609788226
0.9121680750905369 13.008862553271047 5208.76988540108 21.46237436823919 0.28882062994662744
0.93719214315704 13.014760153281932 4562.96184922733 22.449475074198755 0.2929817344320873
0.962478380728821 13.020974990341301 4002.4765047590354 23.479904028212157 0.29721857213349495
0.9880021924932247 13.027357025059336 3514.777344988319 24.55605505009317 0.3015370025871488
1.0137472625318218 13.033812099898068 3090.5894250292376 25.679833887416468 0.3059383815912681
1.0397148970402017 13.040275833621438 2720.0257250369186 26.853276583759452 0.3104245183355127
1.0658704347672967 13.046600429969175 2396.8829266372936 28.07944592498204 0.3150038828305576
1.0922063340842225 13.052735727427072 2114.6237805396236 29.36035291216816 0.31967661319878843
1.1187061202762143 13.05856334432276 1867.3517432257388 30.698843559731028 0.32444800787031436
1.1453406136301354 13.064021288427572 1651.137209976547 32.098226657147876 0.3293255049602003
1.1721071399416716 13.069024533693824 1461.2525781023512 33.56054139530316 0.3343074351275375
1.198965679032412 13.073480995253453 1294.6656842194293 35.090285835731 0.33940706073497917
1.2259153090973944 13.077347744393212 1148.3781917887798 36.68942727499058 0.3446207967141216
1.2529138571854357 13.080505473570657 1019.5739249789312 38.36307390124732 0.3499634225612157
1.2799582442075057 13.082949462990392 906.1563904345466 40.11352944294941 0.3554318754212196
1.3070108824440656 13.084546842203844 806.2876074664356 41.94614781767662 0.3610400241707176
1.3340449792549898 13.08524271525855 718.1153575615682 43.86453868224781 0.366790499715863
1.3610547817211345 13.08503220023651 640.2226464871907 45.87326776431399 0.3726903656093124
1.3879948705043188 13.083779756154525 571.4220221393986 47.977733242994645 0.3787499303202104
1.414839944437812 13.081456242787885 510.5037653590916 50.18276788895617 0.384975222375266
1.441572493261567 13.078010718818902 456.58427675542424 52.49345296559949 0.3913724838698191
1.4681680821603367 13.073404481490577 408.7482530946554 54.91627848729236 0.397953777527258
1.4945795003614077 13.06753143619466 366.3019653023422 57.45743858144648 0.40472817151451157
1.520791969382488 13.060376895348877 328.6363146659911 60.12356586598711 0.4117054446726282
1.5467763778217265 13.051881932959942 295.09750277612847 62.92177092664364 0.418896145041687
1.5724943801161015 13.041992071527302 265.28704946926496 65.85968557453982 0.4263116531653755
1.5979078527189385 13.030648915356462 238.74863865963394 68.945510267936 0.4339642507346902
1.623016781954842 13.01783461679121 215.08356545765238 72.18806612970286 0.44186719519874545
1.6477582627071505 13.003472601142052 193.95605491980413 75.59685204621107 0.45003480104657595
1.6721066635035646 12.987529328037418 175.12068514212362 79.18169196340037 0.4584807938437153
1.696042859214048 12.969967776435755 158.2510879606735 82.95302490436949 0.46721946382973123
1.7195231874754615 12.95074370505265 143.1826496334775 86.92348143479127 0.47627188055731506
1.7425041559947971 12.92979472864211 129.6896457568526 91.10452041964722 0.48565188910123186
1.764986599869272 12.907130413603658 117.59491771900596 95.51049644106145 0.4953824404787231
1.7868964008696029 12.882650468400215 106.75045055582562 100.15482836171861 0.5054800471395733
1.8082472314879736 12.85641046823657 97.02033836474622 105.05418427274032 0.515970941383416
1.8289528766565293 12.828256722829138 88.27657289290474 110.22512000492685 0.5268776818716244
1.849032197192388 12.798276366902932 80.40994163621127 115.6854419144707 0.5382242493150923
1.8684039756258513 12.76632531054459 73.33458417023819 121.4550659438841 0.550038853079674
1.8870795189332912 12.732491384096534 66.95924484633153 127.55543447043294 0.5623513419122639
1.9050002825583994 12.696656681841965 61.21401476798644 134.00929187554985 0.5751920591498936
1.9221387904747138 12.658821353709438 56.03593586640258 140.84222678286378 0.5885969043675461
1.9384491059383535 12.61891610425981 51.355477689618816 148.08193535319322 0.6026041519466366
1.953940490890682 12.577054164235442 47.132236568242355 155.75676690246033 0.6172489962614606
1.9685502789249898 12.533106526158651 43.311033729356865 163.90056715789504 0.6325796617325373
1.982261582438712 12.487087815293373 39.85328398783984 172.5473422133213 0.64863841935843
1.9950437084708328 12.438986767559827 36.72044044308651 181.73603454091466 0.6654771857958032
2.006876084335167 12.388810085231881 33.88093198301952 191.50888239738705 0.6831510847010098
2.0177156978813695 12.336517170082082 31.307270028971026 201.9119686242529 0.7017194132125643
2.0275464730441874 12.282116730410404 28.971943245446447 212.9950713946222 0.7212441788347953
2.036348647198625 12.225625839377937 26.85187659692178 224.81417975290464 0.7417972401937627
2.044085245497616 12.167011081009862 24.92570856722685 237.43006963549638 0.7634543258803015
2.0507373251240293 12.106281873150063 23.172797771316702 250.90990685482328 0.7862988591275457
2.0563017641145316 12.043512529822854 21.579754725143935 265.3270425741008 0.8104196461563693
2.0607404859598706 11.97864203943677 20.12885838470235 280.76283001639564 0.8359149225684407
2.0640371271391063 11.911722866295365 18.809612860321646 297.30758059100714 0.8628933314208369
2.0661859763765493 11.842796899920852 17.60903595221763 315.0616518253312 0.891475043491866
2.067173080611737 11.771889009380951 16.51417304798285 334.13429262126584 0.9217851078745513
