M[M_sun], R[km], Lambda[1], P_c[MeV/fm^3], rho_c[fm^-3]
0.24162668629717493 15.618656898711224 2160425.4255784233 3.5677272577965504 0.1711233750220791
0.2536350345132758 15.277493833640952 1723432.6300548345 3.7846548552827897 0.1738861195148759
0.26602201931939234 14.98163582276106 1383439.798546124 4.011055157702587 0.17666247596737364
0.2787857330125788 14.724056735829407 1116933.3084216665 4.247189378205306 0.17945126452829
0.29192876873802015 14.49907478479026 906455.6341428001 4.493680224277347 0.18225900638064613
0.3054543650698414 14.301885794314552 739222.614345742 4.7506715634436745 0.18508117796666398
0.31935837857127297 14.128849431460734 605590.4705898461 5.018864727581639 0.1879248169588386
0.3336443187358973 13.976674103976947 498168.5340370399 5.298457608347967 0.19078603522428625
0.34831185333199915 13.84271617701926 411455.6165931481 5.590208705928883 0.19367173549370292
0.3633605148430132 13.724729525352004 341063.2615912656 5.8942474305489725 0.19657628221501008
0.37879954179623126 13.620726615720146 283689.2883815106 6.21145315064497 0.19950767917136303
0.3946167126266118 13.529153412107348 236760.55190609614 6.5421120066415295 0.20246261743137892
0.4108261766338773 13.448569324350917 198179.4985669815 6.886868582287584 0.20544383332686722
0.4274180126870868 13.377697963217006 166371.23254067881 7.246452589945296 0.20845485988626083
0.4443963540915223 13.315537785811614 140046.31450773295 7.621163986164463 0.2114919029494759
0.46175999380601584 13.261141385796645 118204.46066294183 8.0118693568494 0.2145598555700263
0.47950698146450266 13.213707830138173 100010.76451786711 8.419309780346987 0.21766096900787008
0.4976452282783375 13.172483432763432 84821.377557861 8.843981463058212 0.22079351789682913
0.5161616016549404 13.136858129347308 72102.79925334126 9.286646386340314 0.22395934462681313
0.5350636821892059 13.106241141608335 61419.7633860843 9.748238910613216 0.22716211843816056
0.5543507155408888 13.080174582739852 52423.90643561246 10.22956609841761 0.23040318621709455
0.5740094643066448 13.058165433572096 44840.28926869099 10.731177481585735 0.23368025300803
0.5940511974547428 13.039805839719108 38426.02696494894 11.254159957137176 0.23699753584936925
0.6144615898101495 13.024745662686406 32987.16324661379 11.799522278067649 0.2403575988826967
0.6352424384152119 13.01263041616797 28370.29998216377 12.368240191428718 0.24376206921216703
0.6563879449281481 13.003162038793144 24440.16553000565 12.961109486300682 0.24721011651169247
0.6779003233923615 12.996097835068076 21089.775659622333 13.579241459015229 0.2507041305455211
0.6997659284221704 12.9911461281572 18225.931559081302 14.223931677362453 0.254247905017177
0.7219753396573819 12.98806367574972 15777.656730151528 14.896365576990014 0.25784341642162606
0.7445393827537442 12.986668460808966 13676.493976699907 15.59771276007701 0.26149198456366746
0.7674348668656028 12.986734637801714 11874.096218748758 16.328956220865045 0.26519269620967817
0.7906547958327097 12.988092507539067 10322.49700597298 17.091841048844213 0.2689515997343109
0.8142055251650547 12.990595504547299 8986.914585291408 17.88781668579135 0.27277111667921206
0.8380608711746768 12.99403844766882 7834.385971051255 18.718410299786747 0.2766538043911109
0.8622190874174419 12.9982978959211 6838.141528797198 19.584653152100877 0.2805973662910774
0.8866643619314993 13.003211708076137 5976.622601665293 20.488747536919142 0.2846092845507137
0.9113992010892702 13.008684810328939 5230.153764085102 21.43249620635103 0.28869270030974925
0.9363970978610655 13.014572432144108 4581.98486165313 22.417609514394933 0.29284938303816066
0.9616449596744109 13.020758031769798 4019.4704485156776 23.445651409029278 0.2970794620695485
0.9871445570910852 13.0271423220377 3530.0117751370744 24.519254263295334 0.3013908105313547
1.0128616885356068 13.033603573961468 3103.965929686763 25.640627327383303 0.30578707592534293
1.038798750404809 13.04004893774969 2732.18385385073 26.811185232546364 0.31026550479000015
1.064927623184515 13.046386855087826 2407.898898824067 28.034272899712235 0.31483676816734774
1.0912307650340642 13.052508723511115 2124.2110511714077 29.312258241929126 0.3195035019162059
1.117703082165165 13.058354911742605 1876.121434694897 30.647253410865574 0.32426602027723317
1.1443167030855381 13.06381760862531 1658.7989768027621 32.04305515420434 0.3291351698570549
1.1710495702044568 13.06884133266154 1468.264605787826 33.50165313971129 0.3341089756345597
1.1978815264502898 13.07331038287996 1301.0944703718737 35.02714893079678 0.33919828410681535
1.2248054229448204 13.077204522587216 1154.0363280782626 36.62222484085455 0.344404012064312
1.2517839826032342 13.080405594552019 1024.650634493939 38.29110252033358 0.34973561981272094
1.2787992248839604 13.082860534153074 910.7583700668615 40.03683832764296 0.35519461873130775
1.305822384569541 13.084469614403657 810.386689177853 41.864489421018604 0.3607931584664276
1.3328384498844588 13.085220265359565 721.8148233220646 43.77699815870877 0.36653028400728005
1.3598296892505164 13.085058369482663 643.6252556065294 45.78002842611645 0.3724192382794407
1.3867444495324883 13.08384529323693 574.4118073990718 47.87839713230101 0.3784671876827821
1.4135748630337177 13.081585615329542 513.2050758560883 50.07624660766441 0.3846767380061986
1.4403010715810511 13.078218402856647 459.0224368045383 52.37991549914831 0.3910607525257568
1.4668683498407984 13.073647194530125 410.96616255728145 54.795222493629545 0.3976279165637634
1.4932704178938168 13.06785401777032 368.29242606084483 57.32832104728725 0.4043872300868248
1.5194664291091728 13.060761728377253 330.4330586901562 59.98579946731621 0.4113483981383788
1.5454459530924691 13.052353260992906 296.7235329224565 62.77472002625381 0.4185218888091299
1.5711555428891377 13.042545420019383 266.7626678511369 65.70266181620848 0.4259189959276985
1.5965739736067377 13.03129689225759 240.06956380139752 68.77776772192705 0.43355190702394475
1.6216695046648841 13.018563290076774 216.29270414794877 72.00879593871245 0.44143377718503607
1.6464010899642518 13.004298278459947 195.066938894935 75.40517651457408 0.44957880949919876
1.67076560850781 12.988461760796225 176.11006848957487 78.97707345646914 0.45800234286533986
1.6946977180283984 12.971006059593059 159.16307423907222 82.7346434476105 0.4667176238781291
1.7181877264567247 12.951898330322557 144.00618706046527 86.68962943670803 0.4757423208390286
1.7411908190687146 12.931083054425235 130.43251656547707 90.85510050216288 0.48509702159300055
1.763676249681152 12.908533145109741 118.2805865190881 95.2431081468424 0.49479573085630163
1.7856127457810336 12.884198552523976 107.36998263749574 99.86923893860548 0.5048637575544415
1.8069617341005297 12.858052121157135 97.57668772494888 104.74875049233168 0.515322081067156
1.8277063198349073 12.83007557058285 88.78637164654988 109.89752076325254 0.5261910696472272
1.8477862190514323 12.800183543280736 80.87527193695408 115.33448830583794 0.5374993002644368
1.8672073532746665 12.768440505775722 73.75835016862135 121.0790853540875 0.5492734943803631
1.8859045838409196 12.73472439246494 67.34595095430535 127.15247143799776 0.5615428384412474
1.903845428049302 12.699016042824582 61.57372938565696 133.57770878494688 0.574339196505281
1.9210217340947136 12.661350516876714 56.36195305046923 140.37923075124604 0.5876948120294624
1.9373895707120703 12.6216723532956 51.65734446851609 147.58425326713964 0.6016468356928848
1.9529289597410886 12.579989640704483 47.40352621675459 155.22299385131512 0.6162374428981047
1.9675802058880525 12.536200693719396 43.56055685301098 163.32615498026726 0.631504655241318
1.9813432975681147 12.490358389664992 40.08149317487514 171.92965359847898 0.6474979248677997
1.9941911028077646 12.442477904225163 36.92907225150026 181.07151553594264 0.6642667552141689
2.006060179465721 12.39243803753706 34.074328190901866 190.79322231722963 0.6818645339918591
2.0169630916985706 12.34033733450575 31.485554411468385 201.1404125739475 0.7003499773310008
2.0268603433025714 12.28613719694536 29.135469454685055 212.16334307342402 0.7197876390722303
2.0357285677815486 12.229842138862944 27.001131526491758 223.9165359588674 0.7402456415259014
2.043545478786362 12.171455743099761 25.06267405198581 236.46037774952762 0.7617996752200364
2.0502798950291177 12.110955810693081 23.29980019029578 249.86099769223705 0.784531157656715
2.0559060422006166 12.048342262925926 21.69624854004956 264.1918536235098 0.808530794823852
2.0604318094666767 11.983707397972847 20.236441479976467 279.5334407397314 0.8338957873535822
2.063827221452912 11.917028863645148 18.908577012203835 295.9751061303022 0.8607336402114786
2.0660605389281583 11.848308606199572 17.698903980575835 313.6147995107663 0.8891589175101959
2.067136169871547 11.777614021567569 16.59702612627734 332.56302127033894 0.9193034102880321
