M[M_sun], R[km], Lambda[1], P_c[MeV/fm^3], rho_c[fm^-3]
0.24162668629717493 15.618656898711224 2160425.4255784233 3.5677272577965504 0.1711233750220791
0.25364370775623246 15.277275653646674 1723180.0623831162 3.7848143992698486 0.173888108153708
0.26603942896416016 14.981278449327577 1383027.8216012956 4.011390540692249 0.1766665288728742
0.278814214001768 14.723529704141432 1116527.8675945955 4.24771193611125 0.179457325412521
0.2919679809801886 14.498444511879994 905898.2779409349 4.494403658436383 0.1822670619879073
0.3055038888035157 14.301227882531835 738651.5534880495 4.7516204250571965 0.18509142748301965
0.31941953269038803 14.12815614762455 605136.0056773446 5.020045994631886 0.1879370730604121
0.3337171098098035 13.975953934808622 497690.99719004263 5.299902365290461 0.19080058152941187
0.3483971115141363 13.842059487836282 411025.39401456714 5.591920548065569 0.1936882980372869
0.36345924739398816 13.724014789664336 340670.00243882893 5.896264798809112 0.19659522976462995
0.37891226925970367 13.620031207739487 283323.9548835696 6.213800440618406 0.19952908362959965
0.3947436209205866 13.528471548787978 236399.97782985118 6.5447867694031965 0.20248607148737124
0.41096860910089517 13.44789458630828 197872.22432005557 6.889922430122418 0.20546984117652617
0.4275753645646557 13.377081995093073 166096.25089067366 7.249914158692627 0.20848349655738344
0.44456976034637363 13.314969689242313 139815.5582182041 7.6250236975127885 0.21152262873359481
0.4619504872902394 13.260598593821076 117991.67432122401 8.016194501737786 0.2145933140624674
0.47971346645161766 13.213185841319017 99815.26594616302 8.424134060179643 0.21769724084799214
0.4978710858355385 13.17199942484234 84652.5180709007 8.849287081030273 0.220831932837863
0.5164076678674665 13.136423705007829 71944.54922382043 9.29251916208504 0.22400068933418088
0.5353259368741728 13.105859389094299 61282.39605890056 9.75471863247733 0.22720648204395893
0.5546311331457453 13.079842811349996 52304.22895883878 10.236694971095032 0.23045066172814394
0.5743130195038629 13.05787792338638 44734.370804300015 10.73892452568969 0.23372999143091133
0.5943680993154898 13.039545854191832 37998.03999049676 11.262641616695213 0.2370505294117745
0.6148051091104766 13.024512173861693 32905.97008454669 11.808788619231509 0.24041395369752183
0.6356057972369632 13.012439135615926 28295.425413763238 12.37834440217171 0.2438218969937387
0.6567767721555644 13.003026561751895 24373.408394168124 12.972005169100012 0.2472723917665884
0.6783081794041995 12.99598119559894 21030.622583196102 13.591083249086974 0.25077006246003514
0.7001962330300509 12.99106985632165 18175.221686903416 14.236783017349662 0.2543176241638174
0.722428675506755 12.98800585350586 15731.983607781041 14.910293983715091 0.2579170611583342
0.7450153346437866 12.986653487456309 13635.994858552454 15.612654258693524 0.2615683555935074
0.7679343235931244 12.98676095573471 11838.006484891124 16.345113029418453 0.2652732338480494
0.7911778058068873 12.988134818829385 10290.333670745202 17.109294188206913 0.26903646844090284
0.8147524520899023 12.99066411129188 8957.686336805877 17.906652545641172 0.2728604914873709
0.8386318844730049 12.994133430976246 7808.696432007868 18.73856144729053 0.2767464571942332
0.8628130244393132 12.998400235692408 6815.799458839924 19.60634905213487 0.2806947021116418
0.8872867176513505 13.003338309455119 5956.377929769266 20.512108608329534 0.2847116563878255
0.9120459151765399 13.00883759648228 5212.029488442694 21.457633923354457 0.28880033273440214
0.9370652950423753 13.014736575964703 4565.917075191662 22.444419205821465 0.2929607352332229
0.9623415615065632 13.020928801104509 4005.0468734338556 23.47446928311593 0.29719650001883907
0.9878665661408247 13.027320982797221 3497.8294671983886 24.550215844464468 0.301513806195187
1.0136073204421951 13.033786169939356 3092.3872362097754 25.673612825417045 0.30591437331490345
1.0395697299401718 13.040239070588688 2721.900117649006 26.84659760456997 0.3103992863548156
1.065719880195945 13.046558775018157 2398.7404104306515 28.072277760876073 0.314977364674573
1.0920500574481036 13.052693892230751 2105.5722254007956 29.3527209701293 0.31964914289348484
1.1185476138250086 13.058530946341552 1868.9457938989037 30.690656713327844 0.3244191282391327
1.1451776413313683 13.063990714888654 1652.4183664037635 32.08951162849696 0.32929556098015156
1.1719390353761427 13.069001934703072 1462.3455817157405 33.551195948087965 0.3342759400068664
1.198794367084494 13.073461813446658 1295.6609030477625 35.08026585631991 0.3393739273794893
1.225738403387973 13.07732313766609 1149.2845798966855 36.67876184289664 0.34458639168115995
1.252733013443053 13.080487739331032 1020.3764107795341 38.351709530645195 0.3499276095350105
1.279773823574554 13.082932930510221 906.897139198468 40.10135746526256 0.35539421938865157
1.3068165446619677 13.084519061024745 803.5213944783019 41.9331871518995 0.36100084211454114
1.3338534290971311 13.08523612382488 718.7513484227222 43.850644002353576 0.3667491975414181
1.360861175776608 13.085031744669026 640.7664755388912 45.85846818690248 0.37264733044857035
1.3877900212087098 13.083779051912696 571.905684955431 47.96196554807544 0.3787050503705477
1.4146468238110539 13.0814898744646 510.9183611500708 50.16585915946536 0.3849278422518522
1.441369496406047 13.078041411953118 456.97621322524463 52.475430046266474 0.391322999685935
1.4679625802471825 13.073444269686522 409.09691611106535 54.89706156588906 0.3979020490309283
1.4943696529968498 13.06758520977776 366.60519349149655 57.43694138041893 0.40467404761083403
1.5205831106198124 13.0604410145185 328.9134305545306 60.10169506355421 0.41164876253325855
1.5465657335009517 13.051957643605306 295.3501715968154 62.89842552012739 0.418836729126061
1.5722824244043743 13.042081187918384 265.5289778860349 65.83475617949406 0.4262493141442003
1.5977056035962984 13.03075662279245 238.97481962286665 68.91887834585756 0.4338987843051207
1.6227925638937328 13.017942865739032 215.2870962012841 72.1596031362208 0.4417983807793985
1.647544804839738 13.003606308415543 194.13925986187883 75.56641849064572 0.44996240033911
1.6718940189925415 12.987675503957998 175.27390207592595 79.14929530403104 0.4584052128080485
1.695830159005289 12.970134136507312 158.39980294687618 82.91834902203803 0.4671397787531261
1.7192954659351845 12.950894749850525 143.31577552330367 86.88634780525699 0.4761877911565132
1.742297053647548 12.929993107011077 129.80789662627865 91.06491358713923 0.48556377847765253
1.7647769050131994 12.907352124857873 117.70424681961624 95.46803480948411 0.4952892701778208
1.7867055743796307 12.882921282595385 106.84662110100415 100.10947495699604 0.5053821764597837
1.808044497816809 12.856672033595835 97.10711852567078 105.00570388640713 0.5158679931814186
1.8287571564888845 12.828544562087451 88.35195111074495 110.17325607983176 0.5267692482004572
1.8488371106886838 12.79858572743602 80.4825519623158 115.62970244787516 0.5381091108113171
1.8682243548734014 12.766684204017372 73.39434528007978 121.39534951203291 0.5499172923080559
1.8868956032527402 12.7328427063459 67.02405851620442 127.49155916311078 0.5622233847999207
1.9048208324290912 12.69703554649264 61.27260937043996 133.9408193682844 0.5750568731600267
1.9219642669285795 12.659228334616259 56.088223147759734 140.76868184952818 0.5884536108696837
1.9382790464088582 12.619348603360635 51.40283792896886 148.00287751221657 0.6024520802561452
1.9537790623509448 12.577514152415963 47.17318128688767 155.67197279381097 0.61708830293756
1.9683977799276917 12.53359599734847 43.34893858241234 163.80952286539076 0.6324095902375085
1.9821149917829968 12.48760605437987 39.88905809658456 172.44920931982006 0.6484572277002086
1.9949079327166919 12.439539881897158 36.753355061741686 181.63045726590482 0.6652848753254609
2.006746835335304 12.38938870762884 33.90939390149065 191.3951750416756 0.6829466716239327
2.0175976488786334 12.3371266856903 31.335052243512788 201.78937477563423 0.7015018212241522
2.027438029656566 12.282750689238286 28.998227713672307 212.8630649392025 0.7210132414387339
2.0362521882276527 12.22629641651612 26.876023114081086 224.67153866505825 0.7415506816776175
2.0440006717443673 12.167713477906208 24.947747604513882 237.2760989153715 0.7631917916584973
2.05066380469749 12.107020310032066 23.19275160983702 250.74349220571898 0.7860188439283551
2.0562404635387415 12.044286303552095 21.597947745991128 265.1467165509189 0.8101197422114275
2.0606921704558925 11.979448529198494 20.145775765108947 280.56769291409654 0.8355948523029074
2.0640032905466126 11.91256342715765 18.82529106144255 297.09586993532247 0.8625503222240765
2.0661688640428526 11.843676106190893 17.622293724153177 314.83166730298655 0.8911068835060664
2.0671664141424677 11.772795791592758 16.52697294780837 333.88451714513957 0.9213906074619341
