M[M_sun], R[km], Lambda[1], P_c[MeV/fm^3], rho_c[fm^-3]
0.24162668629717493 15.618656898711224 2160425.4255784233 3.5677272577965504 0.1711233750220791
0.25364364865998024 15.277303812708313 1723309.1023672181 3.784813245489271 0.1738880937723897
0.2660384655907752 14.981315002063523 1382885.5325018784 4.011388115217794 0.17666649956244684
0.2788139732399898 14.723532848796559 1116498.0530191527 4.247708156887981 0.17945728157922625
0.2919672835219499 14.498464426432825 905905.4054412664 4.4943984262973595 0.18226700372682494
0.3055036402928753 14.301227757017196 738703.2932446902 4.751613562350351 0.18509135335268803
0.31941911214540875 14.12816649596778 605102.6224292892 5.020037450807823 0.18793698441493983
0.3337158488735696 13.975972875565812 497713.3023648189 5.299891915417906 0.1908004763165347
0.3483964910803181 13.842064725903203 411028.59869611345 5.591908166056932 0.19368817823794718
0.36345800758818847 13.724032170978331 340667.24373863393 5.896250206490735 0.1965950927104877
0.37891148454292417 13.620031100946871 283311.86365501804 6.213783461407923 0.19952892879964435
0.39474200793788244 13.528504983353589 236413.46544871017 6.5447674209325015 0.20248590182742177
0.410966224776417 13.447933691390416 197883.62169346854 6.889900338878241 0.20546965303822054
0.4275751885668959 13.377073311357918 166097.675787398 7.24988911738047 0.20848328939702548
0.44456845829618474 13.314953615935709 139813.95858521637 7.624995775347124 0.21152240645520223
0.46194939720206885 13.260590337596277 117993.89334547202 8.016163211700219 0.2145930720087299
0.4797134689479556 13.213178721177798 99828.47379156589 8.424099158284013 0.21769697843452895
0.49786902266825916 13.172005385978395 84651.38878600961 8.8492486959676 0.22083165491360857
0.5164060526561549 13.136428428100999 71946.28149321041 9.292476672680149 0.22400039020612156
0.5353238189052861 13.10586413566044 61282.81545721367 9.754671750651879 0.2272061610661659
0.5546279938967683 13.07985357922978 52305.259764808376 10.236643391266268 0.23045031822660572
0.5743107989439961 13.057856548972033 44735.4209805747 10.738868471973003 0.23372963154868692
0.5943664306078248 13.039541215023872 38329.96513471507 11.262580246145623 0.2370501459674701
0.614802409537826 13.024515836007907 32905.433137047134 11.808721569315386 0.2404135459221615
0.6356039242213435 13.012435285092122 28297.759280627524 12.378271287738407 0.24382146407775382
0.6567743603778754 13.003038790606817 24374.669026654647 12.97192632590169 0.247271941131198
0.6783055097676982 12.9959818403179 21030.64519038067 13.590997557564299 0.250769585352595
0.7001926127670197 12.991054732451696 18175.35675896294 14.23669001805711 0.2543171196381165
0.722425567829768 12.987992069314481 15732.30145504238 14.910193187687753 0.25791652821174227
0.7450118655853768 12.986647011652103 13636.18424549904 15.612546128987107 0.26156780290617343
0.7679313367534164 12.986759722008971 11837.343593594702 16.344996101777095 0.2652726509930837
0.7911740114348286 12.988138607311697 10290.416274799118 17.109167875819235 0.26903585422653453
0.814748189269669 12.99066491664533 8957.93788480404 17.906516222791815 0.2728598446451983
0.8386295116138747 12.994124840126833 7808.911405029386 18.738415718615034 0.27674578764637137
0.8628090163187728 12.998389798148194 6815.884068886107 19.606192022873635 0.28069399762037983
0.8872833813592707 13.003334706248515 5956.533180189479 20.511939522737443 0.28471091542854376
0.9120406899522977 13.008840771775272 5212.053346074478 21.457451973935953 0.2887995536796823
0.9370598664276382 13.014737240383003 4566.061374601649 22.44422515049337 0.2929599292378684
0.9623365604164131 13.02093067780975 4005.226207773588 23.47426068671943 0.29719565284689287
0.9878615975949707 13.027334310516036 3517.206474284481 24.549991725201807 0.30151291587575085
1.0136023201302873 13.03378583222304 3092.4312034806762 25.673374050799094 0.3059134518376674
1.0395644075765935 13.04023143051131 2721.9630540883136 26.846341255656192 0.31039831791477995
1.0657149149367575 13.046558393312777 2398.806953532369 28.072002637766563 0.31497634687455817
1.0920449835278483 13.05268772677576 2116.1152656235695 29.352428047876856 0.3196480885532312
1.118541812341722 13.058533093227126 1868.984138258452 30.69034249490548 0.32441801981328694
1.1451713803539656 13.063989570562692 1652.4321552219328 32.089177139410985 0.329294411708598
1.1719339118769247 13.068997412486913 1462.4484402207163 33.55083726502215 0.33427473120795287
1.1987870352430965 13.073458331494995 1295.6658863295424 35.079881286466865 0.33937265571124237
1.2257319054823597 13.077326867775673 1149.3291389174967 36.67835250220249 0.3445850712114452
1.2527262222533169 13.080487438568625 1020.4089975559574 38.351270709691484 0.34992621944642827
1.2797679263256183 13.08293079349137 906.9308094733335 40.10089030791847 0.3553927741598961
1.3068103984131345 13.084521912296315 806.9478353220849 41.93268972723674 0.36099933832442616
1.3338464571793254 13.085234868471318 718.7780141716399 43.85011073375118 0.36674761239134557
1.3608535826861439 13.08503387068415 640.761128752367 45.85790019168022 0.3726456787956204
1.3877835161950987 13.083779725873246 571.9526143511504 47.96136040030552 0.37870332792464856
1.4146391907995424 13.08149093365521 510.9489285447798 50.16521022393397 0.3849260238629791
1.4413620844212083 13.078040062886249 456.9801425514774 52.4747383530848 0.39132110055561314
1.4679546724023815 13.073446740720035 409.1097434500758 54.89632405251128 0.39790006377755416
1.494363935673757 13.06758488390058 366.6276173037199 57.43615473623832 0.40467197043679437
1.5205743929256939 13.060443497958886 328.9165156130638 60.10085570769501 0.41164658719076996
1.5465576811031867 13.051961337039415 295.3589984211641 62.897529577019846 0.4188344488796217
1.5722732025068609 13.042086097237268 265.52870551621487 65.83379945198772 0.42624692172929546
1.5976974263986623 13.030760594820148 238.98047445614077 68.91785628559438 0.43389627188277136
1.6227853794222975 13.017946095810412 215.2935769788185 72.15851081095786 0.4417957398861012
1.6475358028037927 13.003611307179403 194.1397880304227 75.56525054817943 0.44995962183166094
1.6718854293490133 12.987681708996005 175.2805522949952 79.14805203039569 0.4584023122648812
1.695822764947949 12.970141357904582 158.40616787365283 82.91701828809866 0.4671367207304092
1.7192882127222389 12.950900988864108 143.32289694803595 86.88492276129458 0.47618456413307336
1.7422897809159705 12.930000138980713 129.81106590213574 91.06339363996955 0.4855603971546725
1.7647699752955426 12.907359609020315 117.71012990756942 95.46640531812946 0.49528569470994094
1.7866983210583163 12.88292974326861 106.84969912774095 100.10773450264965 0.5053784206348116
1.808034785258931 12.85668455431686 97.10448903678002 105.00384344463538 0.5158640425294168
1.828748704853687 12.828555806929973 88.35430401507976 110.17126580720216 0.5267650870698167
1.8488291038017493 12.798598715015993 80.48279092163904 115.62756346813791 0.5381046924172851
1.8682174251993602 12.766698383351935 73.39990530041604 121.39305793369118 0.5499126274943219
1.8868873123233172 12.732858157839434 67.0243514201417 127.48910212145046 0.5622184535369136
1.904813359629217 12.697050068687979 61.27353596288903 133.93819181712277 0.5750516855581863
1.9219572662109787 12.659243530075488 56.090029686006176 140.7658596715646 0.5884481121937907
1.9382726141688504 12.619365984928576 51.40543241213252 147.99984380846655 0.6024462447760459
1.953773707402413 12.577531949952377 47.174448760895764 155.6687189946394 0.6170821366624201
1.9683912327573148 12.533615351751004 43.34864923190219 163.80602925468372 0.6324030641436739
1.9821100692541889 12.487626085784413 39.88944683198734 172.44544373338528 0.6484502749565775
1.994903412895561 12.43956032610026 36.755802580707304 181.62640605427353 0.6652774959873012
2.0067427150251813 12.389411003655173 33.912835071610616 191.39081189941822 0.6829388279507687
2.0175934348659594 12.337149949387232 31.336467580989407 201.78467068495965 0.7014934719272251
2.0274337247783527 12.282776140617496 28.99866050021054 212.85799971640674 0.7210043801344954
2.0362476278945967 12.226322375867591 26.87642734925944 224.66606543222076 0.7415412210643587
2.0439974609384413 12.167740840093456 24.94831410014668 237.27019101064798 0.7631817181382343
2.0506613871291868 12.107048500473214 23.193750180660547 250.73709412486753 0.7860080582102547
2.056237798613563 12.044316551087276 21.59852543044236 265.13979345460456 0.8101082217769371
2.0606916810775955 11.979478925421404 20.147299453891975 280.5602056637699 0.8355825714697295
2.0640019454595233 11.912595950704379 18.826072931533428 297.08774685799216 0.8625371613832993
2.066168340612254 11.843709091843285 17.62283223325954 314.82284317767625 0.8910927578170164
2.067163444416716 11.77283133963244 16.52636138584238 333.8749337783705 0.9213754712996363
