M[M_sun], R[km], Lambda[1], P_c[MeV/fm^3], rho_c[fm^-3]
0.24162668629717493 15.618656898711224 2160425.4255784233 3.5677272577965504 0.1711233750220791
0.2536453219713138 15.277261894445061 1723051.2927961543 3.7848558981609237 0.17388862541736555
0.2660434589138062 14.981187069153615 1382856.1682842744 4.011477780248579 0.1766675831114272
0.2788214648470939 14.72339559861864 1116341.8484894326 4.247847868405499 0.17945890202228867
0.2919782749832028 14.498277691107118 905760.3645508385 4.494591851079232 0.18226915755666265
0.30551556478286335 14.301089525552477 738538.1084774052 4.751867268803286 0.1850940938665858
0.3194350087108446 14.127980225493356 604991.2239576024 5.020353308466303 0.18794026156005642
0.3337360461744835 13.975769955406541 497561.921254123 5.300278240808596 0.19080436597218922
0.34841943361384115 13.841872042505221 410910.27708032064 5.59236592442463 0.19369260717607964
0.36348472172768737 13.723834265396038 340583.90923519334 5.896789683023906 0.19660015958825264
0.37894049048429457 13.619867307479925 283206.8401281858 6.21441118550813 0.19953465288760922
0.39477805941206023 13.528279622929821 236339.57962484396 6.545482741544063 0.20249217422283433
0.4110050846665161 13.447746703439066 197808.9749155984 6.890717066531892 0.20547660863364547
0.427616311911264 13.376921968358172 166029.92600214208 7.250814917298856 0.2084909483024881
0.44461486061287986 13.314799406909229 139753.83686410735 7.626028089344719 0.2115306243383988
0.46199750538274537 13.260446962284819 117928.82291727082 8.017320047510344 0.21460202106898282
0.4797688264951477 13.21304278180015 99769.76180675095 8.425389538108131 0.21770668028688842
0.49792887676809605 13.171897424835628 84606.6232945622 8.850667862493257 0.22084193028561752
0.5164719096947159 13.136312380781703 71909.85992940603 9.294047594686903 0.22401144959498467
0.5353942112039527 13.105758909007067 61248.1432199321 9.756405081038613 0.22721802836349872
0.5547050078508263 13.079749069733618 52278.89395790639 10.238542138502122 0.23046291174771938
0.5743913400666886 13.057776712292888 44708.174276316626 10.740940933872436 0.23374293739604962
0.5944519869757643 13.039466822192926 38307.407452445215 11.264849300930022 0.23706432306282452
0.6148936047297603 13.024461997433315 32883.68971483372 11.811200623579404 0.24042862270829743
0.6357014545707431 13.012402236336955 28276.41363409423 12.380974584569666 0.24383747049888435
0.6568776331388642 13.002998922589313 24357.14512079364 12.97484145119482 0.24728860279197012
0.6784145352131037 12.99595415810765 21015.595295695486 13.594165911294063 0.2507872258973096
0.70030753845004 12.991046295758496 18161.722261678387 14.240128591142838 0.2543357740649262
0.7225464579627446 12.987988577255328 15719.022388057256 14.91392006286102 0.2579362336056396
0.7451388992906055 12.986637273841874 13625.441745044327 15.616544184181615 0.2615882383123129
0.7680639300621441 12.98675977433605 11828.037102806315 16.34931948534728 0.26529420197583903
0.791315388444082 12.988148823708721 10282.881001162226 17.11383828949108 0.26905856486668595
0.8148926874629614 12.990687099543326 8949.847910198065 17.911556807237137 0.27288376185797225
0.8387823156342735 12.994154851650238 7802.368509318695 18.743804115485272 0.27677054454195865
0.8629671871843523 12.998427983149059 6809.3648743327585 19.611998303140002 0.2807200467381057
0.8874529473854443 13.003383154527793 5951.001805132792 20.518191636560335 0.28473831316072123
0.9122145438689198 13.00887303150565 5207.482687396285 21.464179785633338 0.28882836022108377
0.9372398128483883 13.014778561170582 4562.1574656475905 22.451400632256828 0.292989732104014
0.96252749759925 13.020987264059878 4001.4754305993642 23.48197389763849 0.2972269784882534
0.9880539743906042 13.027372156543986 3514.0010449621595 24.55827897681827 0.30154583719227995
1.013801615563493 13.033831812573473 3089.723514696792 25.682203261367533 0.30594752546166093
1.0397708320351267 13.040293824322118 2719.276475184567 26.85582037897517 0.31043412833577766
1.065926368439921 13.046617589332062 2396.4200855628796 28.08217605292132 0.3150139827609556
1.092263947864887 13.052738327472587 2113.9081749380216 29.36325969480522 0.3196870758315082
1.1187667191637116 13.058575457272468 1866.8185221661467 30.701961711108318 0.3244590073513489
1.1454030787142702 13.064033533828079 1650.599749902583 32.10154599804351 0.3293369098885758
1.1721706056039176 13.069038719654387 1460.881389657031 33.56410087277482 0.33431943093361455
1.199031312402917 13.073493137098948 1294.3947097219236 35.094102255614864 0.33941968060090133
1.2259819360492177 13.077353881200471 1148.0122510298431 36.69348955967879 0.3446339010156976
1.2529820430401668 13.080518762472972 1019.3268598715625 38.36739854156832 0.3499770404389982
1.2800288372845174 13.082953176862343 905.8733850600587 40.11816560858714 0.3554462181688599
1.3070828986401368 13.084551679548008 806.0440145128638 41.95108441618205 0.36105494825589096
1.334117265673953 13.085236413569717 717.8928145505506 43.86983107921619 0.36680623145667923
1.361128355930937 13.085027879904416 640.0181444245626 45.878904867357505 0.3727067575392204
1.3880698303175256 13.083780496043964 571.2310658854918 47.98373913766976 0.37876702503520077
1.4149165189777986 13.081446367412104 510.33179481473434 50.18920845450659 0.38499326954970325
1.4416502273875944 13.07799906701686 456.45076690293627 52.50031797476914 0.3913913326129023
1.468246364665696 13.073391956643464 408.6203204692161 54.92359834790776 0.39797348127558646
1.4946586579041816 13.067509624276262 366.1742489424003 57.465246164916586 0.4047487878364729
1.520871356591941 13.060353176950082 328.52329389204834 60.131896727925145 0.41172703560779805
1.5468560165786345 13.051857346934423 294.9989868964572 62.99433355656652 0.41887395569709523
1.55253616703241 13.03613044798052 285.2841154697317 67.32925748127323 2.071038891090462
