M[M_sun], R[km], Lambda[1], P_c[MeV/fm^3], rho_c[fm^-3]
0.24162668629717493 15.618656898711224 2160425.4255784233 3.5677272577965504 0.1711233750220791
0.25363674346487625 15.277443596546695 1723337.6795951237 3.784686838883192 0.1738865181750255
0.2660235742173641 14.981663500189741 1383283.819478192 4.011122389938941 0.17666328842927223
0.2787919972328141 14.723936232380474 1116889.1365439843 4.247294129866318 0.17945247948970036
0.2919364969820298 14.49896334843842 906365.7218816207 4.493825240213912 0.1822606211667562
0.30546431428354737 14.301742415083531 739123.9098968657 4.750861763081567 0.1850832324857547
0.31937103978053966 14.128692139644198 605469.9961254828 5.0191015078597365 0.18792727364561265
0.33365761254868315 13.97659931548047 498093.0113594642 5.298747197682776 0.19078895090837217
0.34832871353460326 13.842632641068016 411376.48998400546 5.590551823118391 0.1936750552468997
0.36338033790794433 13.72459197376446 340992.38507942494 5.894651777809612 0.196580079930051
0.37882208802798767 13.620593630162501 283613.93633688404 6.2119236149660315 0.1995119692394952
0.3946421424832317 13.529026437627369 236698.87617303786 6.5426480953478485 0.20246731820511296
0.41085409259635786 13.448447900400312 198121.39258067566 6.887480636082918 0.20544904583382667
0.4274504744901879 13.377568581412394 166320.16363863036 7.24714634479175 0.2084605991423114
0.44443122856957096 13.31542174370959 140005.61184807864 7.621937520718249 0.2114980607819051
0.46179913176278037 13.261016924780245 118163.78169265117 8.012736152192746 0.214566560932781
0.4795495174152785 13.213578703776976 99973.336180912 8.420276586617861 0.21766823803945667
0.49769054806944346 13.172390148436442 84787.56927627377 8.84504471231096 0.22080121627571048
0.5162129614136389 13.136767237431846 72068.56044279791 9.287823270466621 0.2239676299644325
0.5351168906209213 13.106156593656692 61391.21286803993 9.749537398364751 0.2271710085726372
0.5544072718291347 13.080120318362786 52403.88973240555 10.230994642279796 0.23041269976193993
0.5740695350709907 13.058094187912376 44819.26339362517 10.732729872954575 0.23369021984148863
0.594115799100149 13.039764819388484 38405.33021128049 11.255859520401017 0.23700815475139753
0.6145313381326021 13.024704132919645 32968.94334720676 11.801379039482715 0.2403688910900383
0.6353156468243144 13.012585739049225 28355.073403145478 12.370264802170404 0.24377405708260066
0.6564654648950494 13.00312852959865 24429.576179739917 12.963292649961526 0.24722259457992946
0.6779831577990806 12.996072602833477 21077.53733210178 13.581614146633562 0.2507173410344989
0.6998522150340305 12.991132013285576 18216.147351862113 14.226506592827327 0.25426187405924267
0.7220664485311338 12.988040026237647 15768.052927376653 14.89915623968613 0.2578581717072487
0.7446339234294843 12.986664616999713 13667.867374352463 15.600706354108024 0.2615072858306246
0.7675350306956312 12.986732813211415 11866.18483408969 16.332193242985035 0.26520883195307315
0.7907603552048476 12.988098017581873 10316.175682426712 17.09533772137118 0.26896860286873686
0.8143104637168769 12.990615035207906 8980.649023246902 17.891590305580614 0.27278902223528534
0.8381741281633809 12.994056718561987 7828.449012684917 18.722460224023948 0.2766724804043199
0.8623359563748835 12.998307793475474 6833.666400006037 19.588999600021452 0.2806168660617358
0.8867897081133445 13.003247127625826 5972.493224887434 20.493427482038722 0.2846297927958647
0.9115289309070208 13.008716098300047 5226.448073739627 21.43753196582396 0.28871426197352196
0.9365284757458091 13.014602512249434 4579.1659704314925 22.422980126380654 0.2928716895027866
0.9617862087984866 13.020792953088177 4016.4842858845864 23.451424188302447 0.29710290704143666
0.9872897015637506 13.0271778262577 3527.4099432869916 24.525456339912044 0.3014154484374889
1.0130130458575972 13.033638469358335 3101.7303340131016 25.64723471433713 0.30581257510410864
1.0389534371602684 13.040085142371465 2730.141997105226 26.81827860180216 0.31029230226174875
1.0650880036952803 13.046419257959851 2405.9515350836023 28.041885402566447 0.31486493012557537
1.0913953326345907 13.052547760203009 2122.749368569932 29.320362924325412 0.3195326737965322
1.1178736769336006 13.058386687963168 1874.7796663525296 30.655946901976797 0.3242966871304522
1.1444892274029768 13.063855964581775 1657.545702277009 32.05237817549634 0.32916741249142717
1.171227314708485 13.068872594886956 1467.0607243451484 33.51157595322925 0.3341424165392001
1.1980688816723046 13.07335653148353 1299.968777889142 35.03778735794509 0.3392334625013107
1.224992520209266 13.077233988443716 1153.087408436317 36.63354804510596 0.3444405389684327
1.2519751928259883 13.080420569074375 1023.7748486132093 38.303240585784465 0.34977407054314086
1.2789947073049936 13.082869958305489 909.992871565403 40.04975965125689 0.35523459298983395
1.30602113724009 13.084480339552405 809.6823640960081 41.87824733360564 0.36083475072049287
1.3330435287538596 13.08522568758463 721.2096717224874 43.79174666503542 0.36657412419544866
1.3600361915279027 13.085056719496169 643.0445810208238 45.79573666422394 0.3724649157020544
1.386954220961617 13.083837565154234 573.936719137529 47.89513209096093 0.37851482077729043
1.4137876317956615 13.081562550372638 512.7589597057338 50.09419148468743 0.3847270215291834
1.4405164051788695 13.078188998061687 458.6082433023658 52.39904184852539 0.3911132663151224
1.467086689553082 13.073604505881805 410.6039219575564 54.81561486514267 0.39768280916038873
1.4934925944364181 13.067796222449319 367.9728389726469 57.350070832502645 0.4044446615028715
1.5196957101807955 13.060712499621253 330.11170420126393 60.00900551146398 0.41140854079810235
1.5456705054803674 13.052273158586953 296.4495573187193 62.79948930109271 0.4185849285828396
1.5713820990825216 13.042453625834115 266.53692991954256 65.72911016066053 0.4259851332688501
1.5967955571561658 13.031178423401292 239.84896690002702 68.80602065809005 0.43362135822052006
1.6218898410490794 13.01842492205412 216.09817276011864 72.03898957179446 0.4415067757376943
1.6466278667864174 13.004157381137912 194.87420502538785 75.43745852634969 0.44965560764018364
1.6709931826436135 12.988305442464354 175.9421204274825 79.01160420306012 0.4580832132338295
1.6949242644304252 12.970832691372678 159.01850837874758 82.77142111761961 0.4668021388566961
1.7184136355165973 12.951702205199869 143.8654290168378 86.72901119871798 0.47583150115378564
1.7414144652736447 12.930868062940986 130.31788267282772 90.89710276250682 0.48519046116178954
1.7638983358046618 12.908298815935533 118.16427700147202 95.2881347082361 0.494894529185942
1.7858318606189516 12.883941500627946 107.26580974727075 99.91732898184156 0.5049675337814175
1.8071698829328662 12.857755862744193 97.48945714048845 104.80031653648703 0.5154318527133546
1.8279185396121889 12.829775266386383 88.69822253119432 109.95272401097097 0.5263068396036289
1.8479944329927764 12.799857548067182 80.80038871341945 115.3935788419739 0.5376213609215174
1.8674118057421283 12.76808897943354 73.68607725802872 121.14238750667273 0.5494023543653758
1.8861037164089174 12.73435131905263 67.2879990919134 127.22033988297228 0.5616790498687794
1.9040329366308273 12.698584454543766 61.51250517322767 133.65053175366492 0.5744833594373732
1.9212075328640663 12.66091876817662 56.30696360436216 140.45717494352408 0.5878466769566983
1.9375688270283689 12.621212948182327 51.607236902740404 147.6680334367673 0.6018079910174869
1.9530853592913098 12.579442315738072 47.35758566154489 155.31284630606697 0.616407722294217
1.9677385847441466 12.535657757649425 43.520681359256024 163.42290470487632 0.6316858127180452
1.9814986815711848 12.489810030493619 40.04145057289021 172.03362342205867 0.6476898937792143
1.9943383599811575 12.441899063269073 36.893393577392956 181.18336329101578 0.6644704874508915
2.0061982040218695 12.39182434862654 34.04307945846886 190.9136726847985 0.6820810690622225
2.017088986329003 12.339688821616875 31.45541890154585 201.27026485717565 0.7005804523248592
2.0269761002967814 12.285458867406476 29.108094766923315 212.3034799810463 0.7200332998463101
2.0358284224014276 12.229114365823833 26.97499854152284 224.06759514471733 0.7405067509248522
2.043636622483294 12.170704428428227 25.039095955559524 236.6237652983764 0.7620788030030212
2.0503519974217506 12.11015489181954 23.27894530472132 250.03755127619567 0.784828787091291
2.0559723708277233 12.047522931459476 21.677027605330398 264.3828777009697 0.8088486699870102
2.0604825981939023 11.98284799107531 20.219412073773178 279.7403843176942 0.8342358279937243
2.0638572573000724 11.916125375636744 18.89107539578346 296.19958118581366 0.8610979634853243
2.06608294124595 11.847380183570344 17.68351257296564 313.85820753014406 0.8895485658745469
2.0671435900786785 11.776647952343671 16.58357361165416 332.82734607376887 0.9197208902009334
