M[M_sun], R[km], Lambda[1], P_c[MeV/fm^3], rho_c[fm^-3]
0.24162668629717493 15.618656898711224 2160425.4255784233 3.5677272577965504 0.1711233750220791
0.25364412328075164 15.277291028855512 1723184.9352227924 3.7848221466979446 0.17388820472166175
0.2660398590164144 14.981267030584126 1382886.3885090165 4.011406827342233 0.17666672568742753
0.2788157082274911 14.723481055534888 1116528.8986001017 4.247737312996045 0.17945761974614247
0.29197007541248343 14.49839568671665 905833.0510969979 4.494438791475237 0.1822674532024489
0.30550537785662174 14.301224320442003 738650.4712738896 4.751666507191018 0.185091925258014
0.31942158267645054 14.128133192165306 605112.1650698854 5.020103365323272 0.18793766830347827
0.3337198194581114 13.976004294980342 497695.0395355041 5.299972534963882 0.1908012880215907
0.34840128183889635 13.842025276934907 411005.46097439533 5.592003691927299 0.19368910247702123
0.36346468912498114 13.723976531086992 340641.8265199039 5.896362784812713 0.19659615006991182
0.37891737423564736 13.620002344482312 283305.81286152854 6.213914454542921 0.19953012329930953
0.39475020795355054 13.528434257596079 236406.58026254774 6.544916692882925 0.20248721074077045
0.4109748129981059 13.44786864337026 195376.42058108136 6.890070771332397 0.20547110451251932
0.4275835777689619 13.377049847452009 166082.72993812195 7.2500823096562605 0.20848488762721218
0.4445781155261616 13.31492945710132 139804.220426215 7.625211193487581 0.21152412132211368
0.4619597349757711 13.260570021178738 117983.02421380264 8.016404613110712 0.21459493944380473
0.47972388327296484 13.213156795517943 99811.79277401423 8.424368425374292 0.21769900294661934
0.4978820774825131 13.171978483000823 84641.95667718131 8.849544835913674 0.22083379909334902
0.5164197923574488 13.136415369525716 71937.98273227975 9.292804477944033 0.22400269797561556
0.5353387480893852 13.105839129386412 61275.99169214438 9.755033443834206 0.22720863740914746
0.5546451309881194 13.079824870179134 52298.65231996172 10.237041330022075 0.23045296834348297
0.5743272390277112 13.057855804655514 44729.57945272216 10.73930092726225 0.23373240804560177
0.594385649689349 13.03951459200101 38327.853477245284 11.263053721458254 0.23705310424979156
0.6148217705378238 13.024500566898986 32901.52356604181 11.809238861710035 0.24041669192300427
0.6356256446998567 13.012459074660818 28291.89076624744 12.378835368774753 0.24382480404342652
0.6567957048986232 13.003041068482405 24371.48558219196 12.972534605230866 0.24727541780640688
0.6783286454766102 12.99598271559487 21027.244726380253 13.591658672866433 0.2507732662654739
0.7002164709367416 12.991056892725458 18172.37975337252 14.237407514114816 0.25432101208924696
0.7224504992851826 12.987997410794378 15729.506314254695 14.910970837042163 0.2579206399370162
0.7450379949946848 12.986654564291117 13633.847444733487 15.61338035909348 0.2615720669371105
0.7679592013355715 12.986759301265975 11836.43042477435 16.345898209810347 0.265277147775373
0.7912039128173066 12.988136533334991 10288.882577283042 17.110142389259664 0.2690405929553974
0.8147791103803202 12.990662811447956 8956.266940702319 17.907567969285523 0.27286483510710746
0.838661403450276 12.994129800541751 7807.542979162616 18.73954003326124 0.27675095329043464
0.8628419549936361 12.99840009824887 6814.546590623049 19.607403524411936 0.28069943286372817
0.8873203035584649 13.003367726618425 5955.368769006161 20.51324404207148 0.28471663203453446
0.9120774189265916 13.00885625028242 5211.183167863099 21.458855741254954 0.28880556420482956
0.937098127520392 13.014739714628082 4565.275513164351 22.445722318242453 0.29296614762034
0.9623811326416218 13.02095082053569 4004.4475019458873 23.47587004314084 0.2972021889215066
0.9879012071446447 13.027331781440944 3516.5596870902395 24.551720845337595 0.30151978484919845
1.0136437398946923 13.033792917201541 3091.7471608397227 25.67521624149922 0.30592056120636507
1.0396073942148418 13.04024146546728 2721.4364224974947 26.84831903785526 0.3104057896197897
1.065760120172911 13.046564852198964 2386.0494041932416 28.07412526931275 0.31498419941163847
1.0920901747662421 13.052703337710161 2115.773544030506 29.354688005846874 0.319656223014302
1.1185876264431827 13.058536668003065 1868.6079715136939 30.69276676057882 0.3244265715675382
1.1452193144085556 13.063993225821683 1652.0765911369347 32.09175780056148 0.32930327860612624
1.1719827702083414 13.069003680501824 1462.0448387161864 33.55360459207261 0.33428405738543626
1.1988382463096745 13.073462848262787 1295.4700003180806 35.08284834040503 0.33938246695424573
1.225784258168316 13.0773292598934 1149.0705062655568 36.68151067296362 0.3445952589814463
1.2527800928766584 13.08049720075518 1020.1745110750511 38.354646060481635 0.3499368840985925
1.2798224970839862 13.08293601414423 906.7252953042774 40.10449455842372 0.35540392450685704
1.3068664209521779 13.084524498766951 806.7410520952266 41.93652750308505 0.3610109405022361
1.333904326032305 13.085230909670164 718.6018860151586 43.85422506197209 0.36675984230259195
1.360910123446416 13.085033530418844 640.621497897451 45.862282451514815 0.37265842181193437
1.387841622305175 13.083775190211677 571.8011399778219 47.966029309311274 0.3787166171468355
1.4146985604596254 13.08148221199344 510.814214738515 50.17021697714079 0.3849400533372202
1.4414211470863607 13.078033570356096 456.87087063550274 52.480075002545284 0.3913357529955619
1.468016836167844 13.073436694115168 409.01266881676827 54.902014227829454 0.397915380706155
1.4944250555705971 13.067570303093836 366.53328749339585 57.44222398102406 0.4046879965868886
1.5206366793653592 13.060424936749778 328.8288940116354 60.107331650926405 0.41166337076868936
1.546620132788459 13.051939900452407 295.28583511714385 62.90444212150685 0.41885204185491276
1.572336461922479 13.042059737346129 265.4597493719045 65.84118098183656 0.426265380153365
1.5977607566877705 13.030731678725115 238.91607224406457 68.92574189481225 0.43391565623959527
1.622847422110002 13.0179117765954 215.237240552303 72.1669385555932 0.4418161154784946
1.6475986338090347 13.003572451074323 194.0910768609081 75.57426172469549 0.44998105920704295
1.6719482227701365 12.98763847504972 175.23114256689624 79.15764443155119 0.45842469122703283
1.6958846141767847 12.97009096186457 158.35851165122384 82.92728550016712 0.4671603147538395
1.7193660519258722 12.950880863913888 143.27956399935582 86.8959176356064 0.47620946211380855
1.7423483791630618 12.92994259486457 129.78226562728207 91.07512075311666 0.4855864856648296
1.7648318974248 12.907294927320162 117.6761528305101 95.47897763815283 0.49531328118733486
1.786758261310207 12.882858880421 106.81823523549716 100.12116297651869 0.5054073986988432
1.808097479777069 12.85660512272697 97.084083819523 105.01819770377088 0.5158945238287787
1.8288071610900234 12.828471563404701 88.3294707522928 110.18662180251803 0.5267971923712083
1.8488874541120104 12.798506906457508 80.46535363811482 115.64406684802354 0.5381387827052503
1.8682642310565312 12.766568450736644 73.38586462298642 121.41073872428723 0.5499486191046885
1.886943521479162 12.732751574348054 67.00801329719125 127.50805958639859 0.5622565010178002
1.9048660768158787 12.696939139953066 61.255527253984994 133.95846489175537 0.5750917109022449
1.9220091038768177 12.659122827289776 56.07504776275719 140.78763444559556 0.588490537734131
1.9383228418881528 12.61923685900386 51.39095042592827 148.02325067492657 0.6024912690482459
1.9538194971069045 12.577396279064754 47.160762720890254 155.69382407616345 0.6171297133049622
1.9684368353614388 12.533469393169087 43.33788109839306 163.83298468168562 0.6324534171053285
1.9821532000361812 12.487471375399073 39.879908923686386 172.47449768855336 0.6485039199081016
1.9949435305833394 12.439398198640871 36.74487355678422 181.65766385724112 0.6653344325088207
2.0067809408484423 12.38924006062186 33.903172473838694 191.42447652605586 0.6829993472538216
2.017627884042207 12.336969121995695 31.327249518751714 201.82096604080832 0.7015578926036148
2.0274653971222585 12.282586162125865 28.991437053649516 212.8970815405324 0.721072751447612
2.0362762906326184 12.226124150678729 26.869574456295233 224.70829544522186 0.7416142166471852
2.0440224808536485 12.167532611583843 24.942654021926096 237.31577493927935 0.7632594429239618
2.050683434592335 12.106829376465795 23.187760070047005 250.78637584781748 0.7860910034945403
2.0562562888478255 12.04408760208045 21.59259529253815 265.19321061486727 0.8101971110350858
2.0607044604955562 11.979240781790761 20.141328676500592 280.61797585556684 0.8356773280301708
2.0640119732100963 11.912347748834598 18.8211828039312 297.15042313525765 0.8626387081828746
2.0661740555866053 11.843450555668436 17.618475312686034 314.89092880869936 0.8912017495208714
2.0671683642899574 11.772562844137479 16.52366607127484 333.9488778033663 0.9214922599805101
