M[M_sun], R[km], Lambda[1], P_c[MeV/fm^3], rho_c[fm^-3]
0.24162668629717493 15.618656898711224 2160425.4255784233 3.5677272577965504 0.1711233750220791
0.25364535666059007 15.277238926347074 1723050.1427351367 3.7848473704506933 0.17388851912357142
0.2660426672980053 14.981224127288497 1382872.33190621 4.011459853064618 0.1766673664719889
0.2788196888295395 14.723425692873077 1116378.2623136027 4.247819935001266 0.17945857803689433
0.2919763074014825 14.49832130643469 905794.403348938 4.494553178210649 0.18226872692529547
0.30551274872725964 14.301148159654849 738595.6721853702 4.751816543057994 0.18509354593172508
0.3194311476463237 14.128036791760055 605015.6781705726 5.020290155923505 0.18793960632805026
0.3337337014910615 13.975754424713923 497608.00479322905 5.300200998496013 0.1908035882702697
0.34841483102424897 13.841867872252775 410920.36352195306 5.5922743992181285 0.19369172164452902
0.36348047580865694 13.723848038058287 340607.13109059207 5.89668181828178 0.19659914649976798
0.3789349972536358 13.619891389809855 279321.3324758104 6.21428567552776 0.1995335083877121
0.39476972387932013 13.52837549248308 236355.5038519909 6.545339716369034 0.20249092008526687
0.4109974512718138 13.447768747880597 197824.18761750832 6.890553764545517 0.2054752178854025
0.42760777947403045 13.376955026792407 166035.31932769128 7.2506298056333724 0.2084894169211196
0.44460586941870023 13.314822548777007 139765.9918104704 7.625821679382685 0.21152898118237984
0.46198764741810217 13.260471658061494 117938.76083018453 8.017088738279377 0.2146002317050758
0.479756608531862 13.213084529956106 99775.94048213105 8.425131525340687 0.21770474039157245
0.4979175454990606 13.171903365551893 84617.15665092078 8.85038409731952 0.22083987570451613
0.5164592967635173 13.13632239300161 71915.29150973039 9.29373348399524 0.22400923823613283
0.5353795347038971 13.1057867874442 61254.713649587364 9.756058494413573 0.2272156554480047
0.5546902228599069 13.079758222859937 52285.783736097306 10.238164524694598 0.23046041997367933
0.5743758767277589 13.057788249798595 44714.51149660036 10.74052653232839 0.23374027680977133
0.5944352734546029 13.039486129145729 38314.35389733841 11.264395586996105 0.23706148824995488
0.6148749685016609 13.024475079183304 32887.50019864984 11.810704916077738 0.2404256079796176
0.6356832687539474 13.012422336875195 28280.349361683264 12.38043403501413 0.24383426986485565
0.6568571862870524 13.002990864799498 24360.251225597818 12.974258541930674 0.24728527112164947
0.6783923839695528 12.995961591437515 21018.903265724188 13.593532363030674 0.2507836984703168
0.7002843835768233 12.991045760778828 18164.124186787074 14.239441005793056 0.25433204388084596
0.7225224335018533 12.987999920734383 15722.021951154906 14.91317482395815 0.2579322932466402
0.7451135350028476 12.98665192235828 13627.636643803866 15.615744715652596 0.261584151959501
0.7680372534550892 12.986759960288136 11830.792998356883 16.348454958128666 0.26528989252448515
0.791286452917804 12.98815124531312 10215.978882014633 17.112904363255833 0.2690540234996579
0.8148650897909349 12.990667756872556 8951.863375938194 17.910548853839764 0.2728789791911739
0.8387532686392251 12.994139846112867 7803.7505765512515 18.742726606156378 0.2767655939441107
0.862935325907119 12.998427560186293 6810.525252997604 19.610837224053864 0.2807148377085004
0.8874207280281298 13.003373285681329 5952.324727006927 20.516941397568658 0.2847328344196071
0.9121794841513444 13.008866042073272 5208.391398334681 21.462834413707785 0.28882259972810076
0.9372040109244474 13.014764306126576 4563.16358307013 22.44996573263702 0.2929837723479013
0.9624911668692285 13.020973940398424 4002.355588950407 23.4804314584272 0.29722071418431306
0.9880156191003864 13.027356431124096 3514.9473418177513 24.556621735366782 0.30153925375872265
1.0137615737141394 13.033816474936286 3090.384267393218 25.680437633844473 0.3059407115650088
1.0397299658954753 13.040277400240363 2719.739845187572 26.85392477401724 0.3104269670815873
1.0658841922216307 13.046607687982837 2396.7303043672964 28.080141594116945 0.3150064564131877
1.092220224188497 13.052732617447345 2114.495757652421 29.361093594172257 0.3196792791992221
1.1187222920255528 13.058565461639292 1867.242396640505 30.699638099796964 0.32445081066188186
1.145356372355487 13.064020450749512 1650.8635224456834 32.09907246157294 0.32932841106089644
1.1721234306985744 13.069031782551598 1461.1313073261724 33.561448387818416 0.3343104917858288
1.1989819883918198 13.07348385200014 1294.5310149614388 35.09125829843638 0.33941027640551064
1.225932183183354 13.077349607835624 1148.316201837616 36.69046238529146 0.34462413581972057
1.2529307403933838 13.080510218913593 1019.4980210749738 38.364175860992226 0.34996689252681135
1.2799760659588733 13.082950777175558 906.0857447735268 40.11471078049418 0.3554355300849238
1.307030469732615 13.08455019636184 806.2445937099301 41.94740570666561 0.3610438269597007
1.3340617351593824 13.08524547945276 718.0406750280789 43.865887229683366 0.36679450829625887
1.3610727706498729 13.085033054575604 640.1749035250725 45.87470414386963 0.3726945424059428
1.3880145383279652 13.083781440109634 571.376218098151 47.979263591587745 0.3787542861863136
1.414860331908157 13.081451452891889 510.4754607879904 50.18440899232541 0.3849798209277599
1.441592465003477 13.078007213019122 456.5553218094062 52.495202217872084 0.3913772866611715
1.4681880727982453 13.073403461287016 408.71133670116876 54.91814363622852 0.3979587981727544
1.4945994220333005 13.067527237275437 366.2599819374024 57.459428002496374 0.4047334246821579
1.5208122830485082 13.060370741075483 328.6042545922172 60.12568861850116 0.41171094616962256
1.5467976206622165 13.051876481750156 295.08123246837374 62.92403681569258 0.4189019119094627
1.5725143836498876 13.041986268552561 265.2650934006877 65.86210521896851 0.426317703784133
1.5979285747143785 13.030639743824286 238.7345022740697 68.94809517535431 0.43397060493845163
1.6230366608532047 13.017823866006918 215.06342903927407 72.1908287791977 0.44187387440207543
1.6477789329688923 13.003460952465987 193.93922190920324 75.59980597966657 0.4500418283842633
1.6721279482288303 12.987514324672752 175.1027694821844 79.18483645639374 0.4584881299098935
1.6960643132530422 12.969952424197183 158.24256507305057 82.95639064666909 0.4672271982957331
1.7195434690090061 12.95072674800574 143.16974875188177 86.92708575819698 0.4762800425764681
1.7425243398513832 12.929774975135988 129.67733899934927 91.10836482421244 0.48566044148631504
1.7650057516924103 12.907108358458789 117.58407343270157 95.51461797440496 0.4953914840431724
1.7869172734696672 12.882627325670365 106.74415659468808 100.1592306129823 0.505489547006814
1.8082676480118953 12.856384444191853 97.01086133895079 105.0588900773144 0.5159809341692929
1.8289706805980512 12.828227410427578 88.2625706808174 110.23015427113098 0.5268882071831034
1.8490507513722076 12.798247635587515 80.40400784657743 115.69085241094422 0.5382354255337878
1.8684233654194 12.76629178256334 73.32480536914403 121.46086251718877 0.5500506527787151
1.8870995457026525 12.73245348679196 66.95629183436792 127.56162762910523 0.5623637370290109
1.9050186994480776 12.696619125318975 61.20988809289631 134.01593848184808 0.5752051816144792
1.922155532556966 12.658782012573786 56.03094129747643 140.84936582559848 0.588610813937634
1.938464447408166 12.618874702636813 51.352938434873714 148.08960960039948 0.6026189137429555
1.953955265825839 12.577009800197478 47.127122050481944 155.76499803974914 0.6172645950905713
1.968564734188749 12.533056127468816 43.30607838725532 163.90940508381317 0.6325961710516006
1.9822757943373215 12.487037822162248 39.849349342159115 172.5568683370134 0.6486560083042627
1.9950576558539235 12.438934918151661 36.717237183176465 181.74628340640652 0.6654958542464051
2.006888682016699 12.38875341114741 33.8778935122997 191.51992058524357 0.6831709281837026
2.0177267611366747 12.336458551076248 31.302823938036457 201.92386958224682 0.7017405362390708
2.02755716677345 12.282053755719609 28.969339465398047 213.0078862066192 0.7212665975816982
2.0363577727893913 12.225560599021936 26.849464554284022 224.82802708296862 0.7418211756334365
2.044093768266068 12.166942656403132 24.92385163418334 237.44501696830332 0.7634798124558226
2.0507447673132373 12.106210447626626 23.17103890821034 250.92606222553758 0.7863260424630308
2.0563077546743007 12.043438400696745 21.578825259465006 265.3445258368696 0.8104486862742377
2.060745031142604 11.978563836019488 20.127839699580992 280.78177433451447 0.835945995659407
2.0640417250969545 11.911641109611535 18.809187034041447 297.32813413588235 0.8629266318463419
2.066187838051992 11.84271217645167 17.60756686043031 315.08397971677556 0.8915107860545102
2.067172087599171 11.771797745339661 16.511845115721975 334.158542183793 0.9218234081215215
