M[M_sun], R[km], Lambda[1], P_c[MeV/fm^3], rho_c[fm^-3]
0.24162668629717493 15.618656898711224 2160425.4255784233 3.5677272577965504 0.1711233750220791
0.25364371317221673 15.277284727974815 1723263.1424017523 3.784814569046791 0.1738881102698957
0.2660394827158371 14.981276738256609 1383042.4070612022 4.0113908975969945 0.17666653318585743
0.27881416869559433 14.723535593775528 1116495.088454741 4.247712492218127 0.17945733186252272
0.2919673313828416 14.49848435240621 905946.8800705924 4.494404428337751 0.18226707056093772
0.3055038887911238 14.301219966024194 738669.5862987894 4.751621434894415 0.1850914383911889
0.3194196592714175 14.12814883297782 605121.7585840554 5.020047251843299 0.18793708610446574
0.33371723190155134 13.975984287601168 497716.28393445583 5.299903902974527 0.19080059701133895
0.34839720281044756 13.84205871705385 411024.9224308564 5.591922370061121 0.19368831566559508
0.36345896518271553 13.72402914804072 340667.95758007665 5.896266946049191 0.19659524993196317
0.3789123571018081 13.620025789130205 283320.2521647397 6.213802939087033 0.1995291064126252
0.3947441154099142 13.52847845979851 236407.69608648383 6.5447896165059385 0.20248609645261603
0.4109677939989413 13.447903185129595 197882.98960494783 6.889925680821498 0.20546986886084365
0.4275756243890404 13.37710144252043 166097.84517365982 7.249917843491323 0.20848352704077872
0.44456985034744767 13.314973588198415 139820.1087164418 7.625027806226404 0.2115226614415971
0.4619502002498966 13.260597067051863 117986.74417552304 8.01619910603075 0.2145933496803959
0.47971459223847723 13.213194437276544 99820.4507699274 8.424139195954464 0.2176972794618391
0.49787180998887204 13.171992468376931 84648.25080902147 8.849292729350264 0.22083197373411306
0.5164095427532249 13.136403728020746 71943.97865571691 9.292525414355806 0.22400073335055687
0.5353262311556043 13.105858122613697 61280.77362872539 9.75472553108956 0.2272065292755099
0.5546328073595144 13.079811195893361 52304.43916084968 10.236702561015196 0.2304507122740514
0.5743133380591877 13.057854710939758 44734.333002764804 10.738932773939442 0.23373004438722972
0.5943684894505229 13.039545087820255 38332.46354479858 11.26265064731362 0.23705058583524174
0.6148054536144854 13.024512108762137 32904.87465811077 11.808798485565426 0.24041401370129364
0.6356061737365213 13.012438624905752 28295.47970442499 12.378355160895977 0.24382196069694342
0.6567771168249248 13.003032630010702 24179.47079992464 12.972016770809052 0.2472724580771998
0.6783072726665086 12.995988062363955 21030.27948220793 13.591095858523676 0.25077013266600046
0.7001958586439202 12.991064912228758 18174.94996964961 14.236796702121449 0.25431769840437224
0.7224291254039156 12.987992958754717 15731.57447945504 14.910308815773268 0.25791713958101675
0.7450158379964099 12.98664702248484 13635.726308571819 15.612670169899696 0.261568436921039
0.7679345077133903 12.98675600036227 11837.604107162551 16.345130235237782 0.2652733196147434
0.7911784336031883 12.988139424290113 10290.15537554479 17.10931277498887 0.2690365588221295
0.8147520494958812 12.990664238222298 8957.70340841167 17.90667260545993 0.2728605866697766
0.8386336981255168 12.994130401675749 7808.489245767049 18.738582891174122 0.27674655571778295
0.8628120280849114 12.998402896036623 6815.5913206846835 19.606372158897447 0.2806948057771128
0.8872854273282281 13.003349889250865 5956.0589975483645 20.51213348917931 0.284711765419567
0.9120466262992399 13.008843146344407 5181.241753615382 21.4576606971147 0.2888004473718902
0.9370663399873046 13.014729381201265 4566.00290447896 22.44444776096474 0.2929608538350313
0.9623427544996803 13.020927694756606 4004.993714316461 23.474499977976656 0.2971966246797888
0.98786914472767 13.02732367020377 3517.179905400788 24.550248823514682 0.30151393720529757
1.01360770312575 13.033779343421367 3092.272751666397 25.673647961002455 0.30591450890989424
1.0395704909549717 13.040239913426385 2721.9301918289893 26.8466353262139 0.31039942886039384
1.0657207715490598 13.046563738160101 2398.7523032092613 28.072318245144597 0.31497751444348615
1.0920508571223093 13.052699596103004 2116.1503469589366 29.352764073543117 0.3196492980393089
1.1185484059737778 13.058531557387049 1868.9403952219131 30.69070295047642 0.32441929134367037
1.1451784484263035 13.063984399830614 1652.415548439807 32.08956084847679 0.3292957300951543
1.1719405495716237 13.069005949246652 1462.3390999973096 33.55124872821762 0.3342761178813452
1.1987954279530166 13.07345442768194 1295.6543931190085 35.08032244569739 0.3393741145052192
1.225740524383011 13.07732767987653 1149.2842308323654 36.67882207730987 0.3445865859880529
1.2527346259261711 13.080487329219157 1020.379427664951 38.351774103088886 0.3499278140863564
1.2797748494624253 13.082935370637163 906.8600497928696 40.101426207415706 0.35539443205390814
1.3068176505708136 13.084519011343907 806.9136993882544 41.933260347899875 0.36100106339713944
1.3338537510574509 13.085235660688054 718.7502305330615 43.85072247280626 0.3667494307961854
1.3608620864857994 13.085036534842773 640.7430906465729 45.858551767392925 0.372647573489283
1.3877911303179837 13.083778844908846 571.8988959616115 47.96205459558148 0.37870530382849504
1.4146479247010129 13.081490020957444 510.9182889878341 50.165954650366075 0.38492810982787934
1.4413706376222588 13.078038269285747 456.97298420433384 52.47553182898004 0.39132327914313175
1.4679640613724652 13.073443992282193 409.10060128941427 54.8971700910726 0.39790234116120454
1.4943689884824496 13.06759018058833 366.5806166284431 57.43705713523215 0.4046743532673162
1.5205843702513775 13.060442014256681 328.9056657943832 60.1018185749277 0.41164908263531735
1.5465669204952115 13.05195722375824 295.3486742476592 62.898557358356314 0.4188370646648352
1.5722831583978494 13.042081477464373 265.5243962819793 65.83489696219482 0.4262496661886742
1.5977068356251531 13.030757016595206 238.97766995607194 68.91902874232765 0.4338991540088127
1.6227936983571116 13.017940173981401 215.28592642849293 72.15976387224687 0.44179876938772633
1.6475454327703338 13.003604900746188 194.1382332503557 75.56659035381283 0.4499628091975117
1.6718947502068107 12.987675214062646 175.2734960464094 79.14947825224809 0.4584056396241458
1.69583200948346 12.970134248271089 158.39726907424105 82.91854484012748 0.46714022874252537
1.719297171902474 12.9508945436503 143.31737788315078 86.88655750116642 0.47618826601457576
1.7422982018060418 12.9299918767258 129.8061749810342 91.06513724815568 0.4855642760410875
1.7647791303962597 12.907349311343882 117.70433545220396 95.46827459005468 0.49528979630993303
1.7867063339540168 12.882919864870795 106.84402763074708 100.10973106589933 0.505382729131686
1.8080456469554482 12.8566701386614 97.10712381884946 105.00597765160539 0.515868574522391
1.8287578856039421 12.828541964358061 88.34873763081654 110.1735489498044 0.5267698605136644
1.8488373394933084 12.798585213326543 80.48088005114346 115.63001720030212 0.5381097609812185
1.8682260676846887 12.766682375562468 73.39886461844408 121.39568671955458 0.5499179787389972
1.8868967350794663 12.732841147890014 67.02315930831472 127.49192071879702 0.5622241104392982
1.9048207398434451 12.697034050665751 61.26958093165699 133.94120601468865 0.5750576365200814
1.9219645783665629 12.659225833526326 56.08712949988102 140.76909713556776 0.5884544200048141
1.9382798554409006 12.619346276557616 51.40312004062452 148.00332392461573 0.6024529389526054
1.9537798054569286 12.57751137841106 47.17313894775634 155.6724515936088 0.6170892103111055
1.968397893502577 12.533593795806809 43.34853410637581 163.81003695386 0.6324105505590414
1.9821157684199913 12.48760282658639 39.88871295927675 172.4497634300062 0.6484582508040821
1.9949085752363556 12.439535999107997 36.75299417788077 181.63105340635812 0.6652859612035625
2.006747616943311 12.389386143467476 33.90984449679209 191.3958170833097 0.6829478258298785
2.0175983188378734 12.33712306533862 31.33472949116521 201.79006698849554 0.7015030498336998
2.0274380200907074 12.28274736613031 28.99751679122915 212.8638102933734 0.7210145453912629
2.036251201114432 12.22629333024525 26.874474971072416 224.67234405876346 0.7415520738198107
2.044001127475929 12.16770930300066 24.94817405900353 237.2769682719745 0.7631932739913658
2.050664231345086 12.107016511922993 23.19247761304673 250.74443354050388 0.7860204305667574
2.0562403285618696 12.044282682622672 21.59751143635947 265.1477352952748 0.8101214374612236
2.060691946048826 11.979444335736574 20.145793199564697 280.5687946750376 0.8355966594472833
2.0640025254752006 11.912558772955176 18.82451766008315 297.0970652597717 0.8625522588638637
2.0661693564126407 11.843670342694343 17.622389541307573 314.83296578843175 0.8911089621258717
2.067166697936677 11.772790898088065 16.526637936869513 333.8859273549434 0.9213928347756725
