M[M_sun], R[km], Lambda[1], P_c[MeV/fm^3], rho_c[fm^-3]
0.24162668629717493 15.618656898711224 2160425.4255784233 3.5677272577965504 0.1711233750220791
0.2536437234022519 15.277271993645186 1723122.254403316 3.7848140436382343 0.1738881037209315
0.2660393027604576 14.98125823841458 1383058.855267997 4.011389793084318 0.17666651983847356
0.27881410390903977 14.723545276464774 1116472.976168042 4.247710771234947 0.1794573119017113
0.2919678940468921 14.498449644320246 905924.6743276827 4.494402045725214 0.18226704402999414
0.30550387342382856 14.30122301546618 738665.9755848155 4.751618309753023 0.18509140463369744
0.31941960770118283 14.128150763035585 605125.7022910311 5.020043361153638 0.18793704573705886
0.3337163582739859 13.975997408045382 497668.6116125655 5.299899144307016 0.19080054909945315
0.34839692027623603 13.842061102385046 411026.38179145433 5.591916731535755 0.19368826111131107
0.3634591036753018 13.724016061955602 340666.5542225748 5.89626030099077 0.19659518752016825
0.37891203449572136 13.620026863212212 283322.662585101 6.213795207083032 0.19952903590605864
0.3947434974766861 13.528489048421894 236422.09536682628 6.544780805585345 0.20248601919274542
0.41096724193091394 13.447907676744082 197881.8415667321 6.889915620893101 0.20546978318627193
0.4275750478603716 13.377083978328532 166097.21618915256 7.249906440156824 0.2084834327039148
0.4445693137152296 13.314974013381624 139818.09545018277 7.625015091004493 0.2115225602202548
0.4619499699112971 13.260595246873553 117992.7453217802 8.01618485714194 0.21459323945372122
0.4797139449083723 13.213179488158383 99826.7311423297 8.42412330229161 0.21769715996371336
0.49787032671941217 13.172031087855736 84652.14319219896 8.849275249516655 0.2208318471726492
0.5164076346876705 13.136418208240306 71945.24797902549 9.292506065479202 0.22400059713325932
0.5353254137223845 13.105859250584075 61282.873669421584 9.754704181983856 0.22720638310823152
0.5546315810189479 13.079816916057405 52304.46618272531 10.236679072523144 0.2304505558498572
0.5743121942994655 13.057856226642595 44734.29470632028 10.738907248118915 0.23372988050355503
0.5943668662370579 13.039550974729746 38332.3423075484 11.262622700302 0.2370504112218074
0.6148036318074916 13.02451710189226 32905.97378095957 11.808767952270808 0.2404138280079187
0.6356053741521872 13.012433973203544 28295.60343443914 12.378321865927106 0.24382176355496216
0.656776318014331 13.003025386338331 24373.96304377751 12.971980867061308 0.24727225286610072
0.6783071563799068 12.995993744606572 21030.817996774105 13.591056836168631 0.2507699153999823
0.7001945986898316 12.991077339748323 18175.041898617277 14.236754351935025 0.254317468652544
0.7224269692666717 12.988006751738405 15731.99720888242 14.910262915088666 0.25791689688679487
0.7450142263925655 12.98664688400959 13636.151657097722 15.612620929584333 0.26156818523720926
0.7679327967723684 12.986753658040293 11837.754056588848 16.34507698849369 0.26527305419307884
0.7911772747730716 12.988138518778992 10290.610137107897 17.109255254591485 0.26903627911991507
0.8147502342911201 12.99065509894505 8957.749052193087 17.906610526468228 0.2728602921093998
0.8386306877434165 12.994132489419892 7808.620388257972 18.738516528928894 0.2767462508176029
0.8628097149550472 12.998398579468747 6815.62907987112 19.606300650555625 0.280694484964281
0.8872856740790648 13.00333756573835 5956.569672804001 20.512056490586268 0.2847114279997935
0.9120445220236915 13.008843739432171 5211.97405102133 21.457577840549465 0.288800092604072
0.9370632209834668 13.01472478992443 4566.110412177875 22.44435939157015 0.29296048679887604
0.9623406541800001 13.020931623647726 4005.1359418507855 23.474404986819533 0.29719623889247515
0.9878644203234368 13.027326158495741 3517.2055176936683 24.55014676349924 0.3015135317693064
1.0136055271711926 13.033783543745617 3092.4358003848015 25.673539227179113 0.30591408928512903
1.0395681952301052 13.040236370001223 2721.8469635907304 26.8465185893421 0.3103989878495129
1.0657181076222981 13.046557859054465 2398.7657273263426 28.072192958807875 0.31497705095484796
1.0920483920347404 13.052694199205149 2116.0408801821945 29.352630681765053 0.3196488179108109
1.1185455876423078 13.058526091777129 1868.9519145573527 30.690559860763827 0.3244187865854372
1.1451752946295983 13.063983406937387 1652.4350626872367 32.08940852782921 0.32929520673641216
1.1719369638696724 13.068997715093442 1462.3818705213403 33.55108539001519 0.3342755674147621
1.198790852983335 13.073463549775532 1295.647388168295 35.08014731906014 0.33937353540890675
1.2257368404208335 13.077329326634374 1149.286054526829 36.67863567042275 0.34458598466829027
1.252729961245802 13.080488671000264 1020.3011658577215 38.35157427135122 0.34992718106321896
1.2797718328347403 13.08293225378207 906.9172455295579 40.10121347172843 0.3553937739207621
1.3068146512988046 13.084520350988434 806.9233816577645 41.933033828946094 0.3610003785960247
1.3338512808735814 13.085236165789064 718.7702032295992 43.850479631072034 0.36674870894496275
1.3608581566802989 13.085036143232768 640.7610560804162 45.85829311168948 0.37264682135363314
1.3877876775666653 13.083777226615025 571.9208922685038 47.9617790211754 0.378704519454778
1.4146444203431787 13.081491512184083 510.9276883303949 50.16565913567299 0.3849272817631429
1.4413664237337367 13.078041142458511 456.9735099318522 52.47521684309808 0.39132241430991493
1.4679601840868002 13.073446720115628 409.11094742833734 54.896834239360295 0.3979014371087966
1.4943693398230713 13.067582798515804 366.6141857735382 57.43669891008456 0.4046734073555619
1.520580538447384 13.060441096790061 328.90897723360393 60.10143634566214 0.41164809201905767
1.5465632400607148 13.051958525922693 295.3535087061201 62.89814936009039 0.41883602627681116
1.5722792842010056 13.042083097305415 265.5242834811902 65.83446128360197 0.4262485767207198
1.5977030634725775 13.030757860060563 238.9785286366906 68.91856331214532 0.4338980098911571
1.6227901983644895 13.017941693591483 215.28753056188586 72.1592664443961 0.44179756676619814
1.6475424170298167 13.003608513486165 194.14759851585237 75.56605849096897 0.44996154390841037
1.6718915414546704 12.98767750450773 175.27523937968215 79.14891208466933 0.458404318761662
1.6958290794791142 12.970136284032973 158.3997672868572 82.91793884435906 0.4671388361660145
1.719293752034954 12.950896492526322 143.3193672872556 86.88590855793198 0.4761867964774359
1.7422950031526314 12.929996334327154 129.80913593582883 91.06444508732893 0.4855627362380232
1.7647749524185181 12.907353711332666 117.70817677371099 95.46753254431303 0.4952881680958851
1.7867034253760579 12.882925086673204 106.84810307488532 100.10893848913837 0.5053810187854209
1.8080398856738142 12.856677050445882 97.1068620981688 105.00513043420814 0.5158667754544721
1.8287543062388578 12.828547708268268 88.35182735292918 110.17264260919112 0.5267679655965356
1.8488340663436964 12.798590562262378 80.48097384550839 115.62904314044805 0.5381077489096822
1.868222348112611 12.76668900804317 73.39676634107853 121.39464316832097 0.5499158544511045
1.8868931002022797 12.732847823122253 67.02418174570028 127.49080181774225 0.5622218648138091
1.9048176880631416 12.697040614843942 61.27253960070334 133.94000946584603 0.575055274161141
1.9219614277031083 12.659232735710637 56.08660725476181 140.76781195618676 0.5884519159866509
1.9382776968508924 12.619354325324059 51.404218993510064 148.00194241908738 0.6024502815579874
1.9537772900883938 12.577519554708303 47.173265202955996 155.67096985942294 0.6170864022764996
1.9683959801164446 12.533601832415087 43.349569703468845 163.8084460125155 0.6324075786673883
1.9821134008280326 12.487612284429801 39.88896693394189 172.44804863426606 0.6484550846212399
1.9949060944564336 12.439546406124046 36.75361890177452 181.62920854040726 0.6652826007546525
2.0067453037689864 12.389395577654932 33.90963913072706 191.39383016792937 0.6829442539282697
2.017596025445517 12.337134129401036 31.335260353098995 201.78792480928092 0.7014992476769024
2.0274366714078265 12.282758406301692 28.99819381976003 212.86150365888284 0.7210105100722232
2.0362500348692696 12.226304332802437 26.875782544644146 224.6698516212458 0.7415477655822249
2.043999693837481 12.167721979334518 24.948587562056776 237.27427788989792 0.7631886866427826
2.0506627896721517 12.107028965000461 23.193150209647396 250.74152009009055 0.7860155193871804
2.0562399373735425 12.044295380033574 21.597740081583236 265.14458260635195 0.8101161912036886
2.060693432177909 11.979456653928793 20.146682141615894 280.56538507662856 0.8355910669123154
2.064003165681046 11.912573691587735 18.82562773064312 297.0933661126221 0.8625462655826641
2.066169139275689 11.843685663479567 17.622791722944097 314.8289473914773 0.8911025294627054
2.067166750457894 11.772806437607732 16.527388257545464 333.8815632073909 0.921385941953219
