M[M_sun], R[km], Lambda[1], P_c[MeV/fm^3], rho_c[fm^-3]
0.24162668629717493 15.618656898711224 2160425.4255784233 3.5677272577965504 0.1711233750220791
0.25364501924494176 15.277274221582323 1723212.6585378728 3.7848395161944635 0.17388842122405654
0.26604181864510573 14.981232787499613 1382878.7983410954 4.011443341684626 0.17666716694170606
0.2788180535004266 14.723490240440526 1116419.5755323467 4.2477942077211335 0.17945827963921496
0.29197382836498825 14.498345900913653 905816.8138628325 4.494517559750451 0.18226833030547457
0.3055109497918218 14.301142883310607 738569.1344958533 4.751769823802081 0.1850930412745962
0.31942819189784616 14.128074796627036 605026.8629847375 5.020231991541385 0.18793900285013637
0.3337262586776156 13.975962713351453 497645.2008700155 5.300129857440586 0.1908028719978859
0.34841064063152255 13.84194612349463 410956.51482480863 5.592190103678252 0.1936909060619918
0.36347530982191595 13.72389637401457 340619.78336135583 5.89658247415978 0.1965982134387507
0.37892996617466085 13.619920292032537 283261.2262853418 6.21417008034808 0.19953245429885907
0.3947637640565682 13.528380365641185 236372.60425915947 6.5452079899604465 0.20248976502261723
0.4109903800152974 13.447791940861471 197836.85472241006 6.890403363570843 0.20547393700758884
0.4275994532803565 13.377022266301097 166050.9610366068 7.250459318425362 0.20848800652413987
0.44459533317893296 13.31488123635133 139750.13296296916 7.625631576976466 0.2115274678449909
0.4619785677925575 13.260494219344423 117953.8544051398 8.016875704353355 0.21459858371542748
0.47974690804792003 13.213106442277537 99789.94833922782 8.424893898302523 0.21770295376844198
0.4979064774885295 13.171926897051266 84622.40731688746 8.85012275319393 0.2208379834613831
0.5164462904103004 13.136354273944477 71922.9412484012 9.293444192787435 0.2240072016079947
0.5353668751289229 13.105803451470324 61260.69701482938 9.755739294191391 0.22721347003432113
0.554675738611488 13.079785459806805 52291.63544523623 10.237816749761008 0.23045812509850785
0.57436077915736 13.057806175120742 44719.26473993339 10.740144877591497 0.23373782646813862
0.5944186534523234 13.039499705820763 38318.72700631335 11.263977727484287 0.2370588774561633
0.6148593592485967 13.024473094095233 32892.48349411803 11.81024838268236 0.24042283149486454
0.6356654525809123 13.012428220246456 28284.036680221132 12.379936204559886 0.24383132217379558
0.6568384154025506 13.00302107238652 24364.08646359943 12.973721700572954 0.2472822027565909
0.6783718078720371 12.995967664545594 21021.22037898745 13.592948886215153 0.25078044982773073
0.7002631484959709 12.991044525518323 18167.181174212586 14.238807764242589 0.2543286085145293
0.7224996742672286 12.988010791799567 15724.352514683536 14.912488487301397 0.25792866432601935
0.74508897806394 12.986655001230332 13629.598050203113 15.615008437134488 0.2615803885921093
0.7680132978566488 12.9867542074312 11832.508564854761 16.347658765199988 0.26528592370242776
0.791260526134998 12.988150204848937 10286.508204501459 17.112044258983143 0.26904984110383556
0.8148381269455064 12.990666668818136 8953.254867904754 17.909620576255953 0.2728745745804137
0.8387228393152073 12.994148101880963 7805.057860844194 18.741734272927605 0.2767610346863715
0.8629050867342131 12.9984127332952 6811.689067004171 19.609767929948987 0.28071004046022036
0.8873911575273781 13.003369357341153 5953.248751713896 20.515789994776867 0.28472778879404564
0.912149764288154 13.008858885565266 5209.239274944627 21.461595401852417 0.2888172946381378
0.9371702795054518 13.014754059904764 4563.487835890307 22.448644273620314 0.29297828375947055
0.9624559193334825 13.020969215498882 4002.9440810775022 23.479010965467182 0.2972149451403328
0.9879797495046241 13.027350049570424 3515.133155501386 24.555095520577503 0.30153319083189306
1.013724496223759 13.033810162431008 3090.5719987462962 25.67881160583465 0.30593443640976353
1.039690221919486 13.04026802123436 2720.3184292403785 26.852179049973895 0.31042037205050327
1.065844722589372 13.046599338811278 2397.1912674700816 28.07826800018258 0.3149995251745234
1.0921803408819823 13.052725678197866 2114.739799744225 29.359098771756013 0.3196720990633508
1.118679669383681 13.05855792605332 1867.557394287573 30.69749822735897 0.3244432621231966
1.145313911553072 13.06401412251475 1651.3893932268304 32.09679452440861 0.3293205842931676
1.1720798932417194 13.069018496528876 1461.4061995708098 33.5590056597721 0.3343022595404569
1.1989375511862874 13.073484359227638 1294.868953824131 35.08863924720168 0.33940161591310386
1.2258862827985808 13.07734308465216 1148.5383282564626 36.68767461257793 0.3446151428964847
1.2528840127578655 13.080501130282224 1019.6904750731329 38.36120805060316 0.3499575471764099
1.2799283897658948 13.082943235590653 906.2982914644515 40.11152919177823 0.35542568731233676
1.3069738189147593 13.084528585982472 806.3854519811871 41.94401795142968 0.36103358526237983
1.3340134698368513 13.085242828635055 718.2537377661881 43.86225531585244 0.36678371237006585
1.3610226469545974 13.085030530075366 640.319314356093 45.870835683150474 0.37268329344766216
1.3879562734014934 13.08376630110477 571.5354950669 47.975142056453166 0.37874255496686016
1.414806585746007 13.081461199136566 510.58046428418413 50.17998917667508 0.38496743611723394
1.4415386537505726 13.078015699004819 456.6596604471996 52.4904911396686 0.39136435180551316
1.4681347713939374 13.073411360038625 408.8119207937953 54.91312042981135 0.39794527660448337
1.4945450770983575 13.06754059821574 366.3615744116815 57.45407011178743 0.4047192768987481
1.5207582750073265 13.060387570579733 328.6909407648715 60.119971645628944 0.4116961296006325
1.5467417915154809 13.051894826807148 295.1407267866944 62.917934354510486 0.4188863806605871
1.572459178885201 13.042006952780374 265.32502952832687 65.85558867178271 0.42630140835569363
1.5978730556393166 13.03066747832524 238.7911068993786 68.94113355097478 0.43395349191556165
1.622971185651353 13.01784318741737 215.12919357543433 72.18338847019179 0.44185588611337606
1.6477235129267054 13.003494083450038 193.98279724968356 75.59185051643476 0.45002290252576593
1.6720713833438805 12.987553105873326 175.1484329729802 79.17636778972903 0.4584683726074526
1.6960089362103745 12.969993149154957 158.28808222441452 82.94732612631987 0.46720636805437077
1.7194874614708968 12.950775040254452 143.20275752967865 86.91737870815761 0.47625806088408845
1.7424701708730534 12.929823078051344 129.71403558565535 91.09801120452985 0.4856374084935517
1.7649499395177195 12.907167620853597 117.60851533019898 95.50351801304399 0.4953671282494455
1.786876784279802 12.88272472514128 106.75933578780518 100.14737464390237 0.5054639623398962
1.8082139418296015 12.856453420330496 97.03340350303719 105.04621660306574 0.5159540220201612
1.8289288585421772 12.828317328463791 88.28657489266644 110.2165962118188 0.5268598608876306
1.8490008860976355 12.79832605356572 80.4225878639761 115.67628112285666 0.5382053262807639
1.8683736500648616 12.766379079357462 73.34918627327346 121.44525148268566 0.5500188744332728
1.8870491886748941 12.732548428276429 66.96952704801754 127.54494854759945 0.5623303551679225
1.9049709665786216 12.696718602231185 61.22286946996637 133.99803822053468 0.5751698409406648
1.922110140046043 12.658888054241707 56.043477676785926 140.83013938574015 0.5885733535213444
1.938420482152399 12.618986587190797 51.364629008339115 148.06894180584504 0.6025791582118432
1.9539136191876705 12.577129014286545 47.139450564262866 155.74283048970833 0.6172225853642409
1.9685267673996085 12.533188340209758 43.318030902616016 163.88560339954918 0.6325517093075897
1.9822374476731748 12.487173741334399 39.85833519221655 172.53121328183488 0.6486086390499413
1.9950217649191664 12.439080681136007 36.72548088346414 181.71868195174727 0.6654455778140275
2.0068538456270755 12.388906269357586 33.8845091315059 191.4901934281671 0.6831174873169027
2.0176962115276242 12.336616753076285 31.311636160195327 201.89181892670118 0.7016836494870138
2.0275284000163007 12.282222181647759 28.975980041043965 212.97337448215504 0.7212062213845191
2.0363324248302788 12.225735713278691 26.855925127994894 224.79073472739523 0.7417567149090228
2.0440711263948006 12.1671274151498 24.9296743656686 237.4047622443071 0.7634111744535472
2.050724705230818 12.106403189930251 23.175693094234692 250.8825541947573 0.7862528350190227
2.0562921762733106 12.043639802666922 21.583402810368813 265.29744173324315 0.8103704784512973
2.0607323810512796 11.978774714805725 20.13223969764958 280.7307555514656 0.8358623129806891
2.0640305683365163 11.911862942297981 18.81204980437162 297.2727816512549 0.8628369509031254
2.066186018539994 11.842945050526561 17.61047802828803 315.02384886790594 0.8914145283922976
2.0671708221974834 11.772038872835997 16.515091955285314 334.0932362294331 0.9217202625832129
