M[M_sun], R[km], Lambda[1], P_c[MeV/fm^3], rho_c[fm^-3]
0.24162668629717493 15.618656898711224 2160425.4255784233 3.5677272577965504 0.1711233750220791
0.25364441697290213 15.277262486624352 1723197.4546629975 3.784826467490897 0.17388825857826148
0.2660406508323793 14.981242381031532 1382993.499998241 4.01141591053743 0.17666683545248096
0.27881613037886227 14.723509426425801 1116395.9072793487 4.2477514659189435 0.17945778389872008
0.2919712678721769 14.498394794369515 905899.0556546588 4.494458385537022 0.1822676713868744
0.30550650510176797 14.301203814883493 738592.4445749751 4.7516922077326305 0.18509220287291364
0.31942343644295484 14.128100633723122 605082.6405457947 5.020135361689968 0.18793800027813223
0.33372313456128305 13.975909376550069 497668.68482892046 5.300011669568551 0.19080168204212364
0.3484036046797658 13.842005679035127 410993.2487351018 5.592050062508623 0.19368955112515165
0.3634667992615364 13.723962980616532 340642.15001532587 5.896417433192049 0.19659666333905537
0.3789203520836261 13.619989467277987 283292.12889153947 6.2139780420828465 0.19953070314110927
0.3947519324384498 13.5284753562302 236394.32034656385 6.544989153592389 0.2024878461233028
0.4109787558690761 13.447872883957176 197859.31697403523 6.890153504113661 0.20547180909960203
0.42758605155216023 13.377064598464159 166079.06670342365 7.250176090909481 0.208485663455486
0.4445831294836916 13.314906839620603 139790.9708926944 7.625315764037946 0.21152495377093322
0.4619648144306989 13.260570601187673 117978.00268829639 8.01652179698588 0.21459584595581827
0.4797298450378409 13.21313755970067 99805.85523859934 8.424499136410178 0.21769998571087854
0.4978871376334683 13.171971638652183 84635.63846010457 8.849688592180636 0.22083483995014414
0.5164280871119293 13.13637386959401 71934.85588274438 9.292963605953915 0.2240038182467256
0.5353457514222509 13.105830760614502 61271.800315768785 9.755209022580052 0.22720983951418078
0.5546530444702977 13.079813644119637 52301.75902072384 10.237234504063913 0.23045425480724419
0.5743358037749888 13.057831165717646 44726.57104073485 10.739510857270513 0.233733755861283
0.5943931328058593 13.039517410351863 38323.42806322833 11.26328356460041 0.23705454031390308
0.6148306055471717 13.024497694896873 32899.39151291308 11.809489975870802 0.24041821911607644
0.6356359714661934 13.012427380409394 28290.367530602543 12.379109196557389 0.24382642539804633
0.6568068987871427 13.003014462467247 24368.563864470663 12.972829889169462 0.24727710552831303
0.6783393853158787 12.995973159402674 21026.19736369462 13.591979606232643 0.2507750531364738
0.7002285914483514 12.991048024684295 18171.205391750213 14.237755817806132 0.2543229016537713
0.7224593836424015 12.988019304943483 15727.689211089873 14.911348342531396 0.25792263595083953
0.7450512782830713 12.98664061503684 13632.820327000913 15.6137853320816 0.2615741368903966
0.7679724678827236 12.986754703745298 11835.16512684763 16.346336134716186 0.2652793307211932
0.7912176256578187 12.988143579923575 10288.150147727094 17.11061546407496 0.2690428933580276
0.8147937328155991 12.990667638167547 8955.473044093585 17.90807853773182 0.27286725771787773
0.8386760459672332 12.994134466549722 7806.7089281501385 18.740085830714758 0.2767534609473304
0.8628561443543229 12.998402946560185 6813.580056948123 19.607991647887207 0.28070207140285164
0.8873385960376982 13.003363655078443 5954.870484515643 20.51387732237098 0.2847194071669985
0.912095129423875 13.008855067604472 5210.667915011396 21.459537203035264 0.28880848202683035
0.9371154782652529 13.01474962627496 4564.758500222208 22.446449122703292 0.29296916635229064
0.9623999773281662 13.020949772362332 4004.1256555437985 23.47665131158945 0.2972053618848139
0.9879214764869547 13.027340048452002 3516.1727578407395 24.55256025536244 0.3015231194267405
1.0136638171460657 13.033792310557493 3091.7560773803884 25.676110543753847 0.30592401249099854
1.039628652241761 13.04025293326262 2721.190006487994 26.849279165892458 0.31040941681062445
1.0657807579594738 13.04657928609952 2385.726462970052 28.07515571773754 0.3149880114884351
1.0921124029741751 13.052705510526023 2115.5756828512904 29.355785122438895 0.31966017196040025
1.1186106659259516 13.058543496661665 1868.3768783149196 30.69394364443982 0.324430723101618
1.1452422734975112 13.06399704335211 1651.921367503988 32.09301061044452 0.32930758313748754
1.1720068942665567 13.069012908415049 1461.874235028565 33.554948024014045 0.3342885848895925
1.1988627503487161 13.07346482245803 1295.2505335892288 35.084288735487604 0.3393872299502918
1.2258092464599855 13.077337170939884 1148.9307792839722 36.68304385110578 0.344600204776802
1.2528059784237917 13.080498990138905 1020.0822869381803 38.356278244017595 0.3499420236880755
1.2798493806713294 13.082939099546472 906.5971700294516 40.10624429977986 0.3554093376220621
1.3068930574669422 13.084525026270676 806.6430122288085 41.93839061676336 0.36101657297714607
1.3339259440788693 13.085241647584809 718.4657425012815 43.85622243764975 0.3667657795360726
1.3609390065750397 13.085034574189951 640.5424094383327 45.864409903839714 0.37266460815430263
1.3878705041791108 13.083772780360075 571.7243192514976 47.96829592571933 0.37872306866881256
1.4147267197262903 13.081481347090975 510.724206217926 50.17264761314191 0.38494686424715696
1.441450953524748 13.07802729133471 456.8248710171275 52.48266579939093 0.39134286635301235
1.4680451363107607 13.073428593901555 408.96294602655 54.90477665788534 0.3979228166710532
1.494454825957791 13.067562165081076 366.4788284292968 57.44517044596223 0.4046957768776848
1.5206674655703465 13.06041649885132 328.7989596058494 60.11047556493203 0.41167151879034425
1.54665068006681 13.051926410604786 295.24859963771354 62.907798002786855 0.4188605828395747
1.5723658078875427 13.04204670697535 265.4225420509689 65.84476455335647 0.42627434131509606
1.597792002214665 13.030716066659092 238.89471400321807 68.92957019529696 0.4339250669446625
1.6228782810229223 13.017893295290222 215.20254351310703 72.1710300619578 0.441826007432934
1.6476298418657886 13.003552783898657 194.06458268879132 75.57863648721305 0.44999146666339773
1.6719794585111445 12.987618987716903 175.20029649658812 79.16230137834326 0.4584355558306198
1.6959168466328853 12.970064637684708 158.34680058616365 82.93227006964663 0.467171769279986
1.71939662625759 12.95085505848118 143.25996331603955 86.90125548846711 0.4762215497242645
1.742379553507338 12.929916810042938 129.76028758670873 91.08081411114537 0.48559915129079373
1.7648613705943075 12.907262896382722 117.66265865538448 95.48508135076959 0.49532667409570885
1.786788559734327 12.882826823328145 106.8105270143436 100.12768235850075 0.5054214672423251
1.808126079187369 12.85656615366267 97.07166971175458 105.02516656326274 0.5159093222165169
1.8288358100912887 12.828429821483947 88.31724566247512 110.1940770161329 0.5268127792397322
1.848915067893166 12.798462578454576 80.45177256510067 115.65207913372426 0.5381553333226807
1.868291102931573 12.766523459041686 73.37454674723959 121.41932266052358 0.5499660928532041
1.8869701844065603 12.73270059037698 66.99847615274541 127.51724589040451 0.56227491049287
1.9048936553134304 12.696883305927173 61.24998125264222 133.96830742577117 0.5751111431204717
1.92203438172042 12.659065372948477 56.0669619072934 140.79820608558535 0.5885111353090227
1.9383476848785208 12.619175707054119 51.385355425777384 148.03461473272912 0.6025131283788263
1.9538430220749876 12.577330788170682 47.157305688543616 155.70601265662057 0.6171528118850226
1.9684596480916736 12.533397333614953 43.33382507068508 163.8460716514159 0.6324778636735451
1.9821738232623292 12.487396770743413 39.87441417348091 172.48860355410756 0.648529964846544
1.9949632452796358 12.439320139807405 36.74127607082243 181.67283975612955 0.6653620756190718
2.0067989540897773 12.389157008671443 33.89717722658862 191.44082101446656 0.6830287299366602
2.0176451831664233 12.336881987464986 31.323744772440865 201.8385878380898 0.7015891695555425
2.027480634154536 12.282496090773922 28.989154624204463 212.91605626606184 0.721105946594704
2.03629072977811 12.226028421208632 26.866330977840526 224.7287987387379 0.7416496570781419
2.0440350566165617 12.167431168348676 24.93912366731639 237.33790669328883 0.7632971795976055
2.0506937576494417 12.106723697740282 23.184777313994292 250.8102959687458 0.7861312519471162
2.0562656189691193 12.043975521180606 21.59036793688018 265.2191457523687 0.810240268610688
2.0607119359792674 11.979124945496162 20.139254224284773 280.64602459387714 0.8357233344892864
2.0640164131568235 11.912228468776776 18.819146108809555 297.1808540267857 0.8626880116797911
2.066177098550405 11.843325481110183 17.616511402279855 314.9239862312004 0.891254667952401
2.067169942924886 11.772431031829218 16.521743484918446 333.98477980129013 0.9215489643183995
