M[M_sun], R[km], Lambda[1], P_c[MeV/fm^3], rho_c[fm^-3]
0.24162668629717493 15.618656898711224 2160425.4255784233 3.5677272577965504 0.1711233750220791
0.25364431057404113 15.277282730209933 1723209.1991345263 3.784825871174875 0.17388825114546994
0.2660406544549553 14.981243603897934 1382995.9943802638 4.011414656957665 0.1766668203037093
0.2788158021805172 14.72348917234267 1116396.7224824964 4.2477495126602856 0.17945776124386315
0.2919708857510659 14.498382993303643 905835.8134737023 4.494455681339714 0.18226764127500977
0.3055063341301575 14.301208229034225 738607.7097378836 4.75168866077118 0.1850921645589605
0.31942324383089077 14.128105290732071 605111.6422045744 5.020130945831648 0.1879379544618978
0.3337212412173105 13.975940431825201 497660.704141532 5.300006268549635 0.19080162766282507
0.34840328409428767 13.842008383975884 410994.9338035788 5.592043662839047 0.19368948920658802
0.36346697859703464 13.72394508415498 340651.19500027434 5.896409891087055 0.1965965925020092
0.37891993937211427 13.619986804450805 283298.55087395944 6.213969266265329 0.19953062311622027
0.3947516980571905 13.528462413466524 236404.18205797064 6.544979153168881 0.20248775843309855
0.4109782410477085 13.44785389472541 197862.69763489446 6.89014208601733 0.20547171185830226
0.42758702084832495 13.377031736217235 166066.6251656366 7.250163147986188 0.2084855563819986
0.4445826063294659 13.314913742722274 139790.3696160639 7.625301332055972 0.211524838883077
0.46196412399013426 13.260581779203092 117976.33923869833 8.016505624205015 0.21459572084628314
0.47972934721187843 13.213139101001975 99807.30353693136 8.424481096707982 0.21769985007753706
0.4978862079146925 13.17197988885538 84637.29944472769 8.84966875206847 0.22083469629925503
0.5164248910055375 13.13640125709138 71934.65478060325 9.292941644341338 0.22400366363560392
0.5353437988210817 13.10584752010806 61272.76398871122 9.755184790550283 0.2272096736088782
0.5546507559822103 13.079823948253061 52304.00036940432 10.237207843650852 0.23045407725929345
0.5743347190617696 13.057846632574435 44728.27636815593 10.739481884311637 0.23373356984591231
0.5943916560937923 13.039520793686945 38322.29144819905 11.263251843362202 0.2370543421190327
0.6148290602033902 13.02450902070895 32898.875476623296 11.80945531894485 0.24041800834414287
0.6356346343583582 13.012427476829695 28290.428075115622 12.379071404842692 0.24382620163049937
0.6568055144567388 13.003022646171505 24369.5505920695 12.972789136212475 0.2472768726011224
0.6783378451284529 12.995973756367475 21026.520962916802 13.591935313301155 0.25077480652529804
0.7002263880087816 12.9910617257134 18171.210411348646 14.237707747389871 0.254322640869417
0.7224565020010218 12.988022666440202 15727.892698160162 14.911296241858853 0.2579223604749443
0.74504893337878 12.98664256782379 13633.071076978767 15.613729440509669 0.26157385120975524
0.7679708348406686 12.986751805380067 11835.384747933458 16.346275695313214 0.2652790294459281
0.791216079662686 12.988143144739318 10288.061111852005 17.110550173483595 0.26904257587199104
0.8147911918473139 12.990671048024923 8955.680469668308 17.908008072481366 0.2728669233653028
0.8386746961668671 12.994131800599114 7806.8610271299185 18.74001050335572 0.27675311485709103
0.8628539468432656 12.998411773351634 6813.38282112504 19.607910478922427 0.28070170724889726
0.8873357081046028 13.00335623090433 5954.729417598 20.513789921104216 0.2847190241610958
0.9120927772302352 13.008852636911808 5210.740732260639 21.45944315201491 0.28880807932759717
0.9371125444594369 13.014743645155834 4564.84702603108 22.44634881372612 0.29296874972590675
0.9623974440682775 13.020948295070358 4004.2063158850056 23.47654348577067 0.29720492397212567
0.9879187509278597 13.027333585942424 3516.273895825096 24.55244440513416 0.30152265920878024
1.0136606946510929 13.033795199647523 3091.6349012829637 25.675987117575733 0.3059235361656067
1.0396247572580766 13.040247944839987 2721.142558378731 26.84914665475723 0.3104089162074168
1.0657783815748387 13.046579525666916 2398.0074865238694 28.075013501314274 0.314987485368045
1.0921089166513425 13.05270229606437 2115.5957537593385 29.35563370479166 0.3196596269498411
1.118607991341898 13.058542128103712 1868.4412997108361 30.693781217675692 0.32443015013068255
1.1452394414226195 13.064004373169377 1651.9150527176337 32.09283770471724 0.32930698905043915
1.1720032471270403 13.069009392051083 1461.9115254821604 33.55476261102366 0.33428796002869804
1.1988594531562469 13.073466233087505 1295.3071008626234 35.08408994005498 0.3393865725876897
1.225806630423681 13.077337850756997 1148.9420763425285 36.68283225015112 0.3445995221848774
1.252801948127096 13.08049300229565 1020.0594203451503 38.356052978752125 0.34994131434934994
1.279846099502066 13.08293717059269 906.6373369136043 40.106002809647585 0.35540859053226953
1.306889466048144 13.084526903275062 806.6634331647734 41.938133479433894 0.36101579561204294
1.3339262128163907 13.085239036614489 718.508492923654 43.8559467699804 0.36676496010919446
1.3609351885948637 13.085031608784377 640.5592600132869 45.864116283481216 0.3726637543461854
1.387865774750946 13.083772880452418 571.7310104585355 47.96798309844433 0.3787221782614051
1.414722856325161 13.081480032006429 510.75178520345554 50.17231214844312 0.384945924238102
1.4414463955473547 13.078028970936549 456.8091898087199 52.4823082298438 0.39134188460100566
1.4680416233585416 13.073428071762331 408.9672532753928 54.90439540009554 0.3979217903936508
1.4944507740438568 13.067564085859201 366.49375213437185 57.4447637882725 0.40469470307733524
1.5206627724568285 13.060416819757604 328.794224747946 60.110041655938076 0.4116703942367233
1.5466468381226828 13.051927632965763 295.258298690359 62.907334838707165 0.41885940405016875
1.5723625090740527 13.042046672625217 265.43198401652745 65.84426996412832 0.42627310453384604
1.5977870663050362 13.030718658865649 238.89450688886623 68.92904182925581 0.4339237681184599
1.6228755451743384 13.017893346013935 215.21085717177888 72.17046536893893 0.44182464218573236
1.64762619376033 13.003556180612138 194.07722751494757 75.57803269989589 0.4499900302676789
1.6719741199162246 12.987623507151307 175.1999125083391 79.16165864467605 0.4584340563403275
1.6959113738015446 12.970068459501862 158.34684917323978 82.93158211824569 0.4671701883696703
1.71939163813894 12.95085910915395 143.26132544654152 86.90051877765502 0.4762198814367437
1.7423752062851963 12.929919449473996 129.76371834361274 91.0800283342824 0.4855974032265077
1.7648581002101087 12.907267809428296 117.66534143505177 95.48423893754324 0.4953248256529885
1.786783606343437 12.882830380817602 106.80870823782584 100.12678257537857 0.5054195255493834
1.808122173856088 12.856571949495677 97.07277961869526 105.02420474404843 0.5159072797913993
1.8288318707215558 12.828436305577206 88.32031015823654 110.19304807111412 0.5268106279894054
1.8489119871105275 12.79846788635141 80.45099835960166 115.6509733023663 0.5381530490566883
1.8682877680554624 12.766529315235143 73.37982292247689 121.41813793071584 0.5499636811774705
1.886966351085339 12.732707459482109 67.00081777279802 127.51598011464684 0.5622723771429073
1.904889962269691 12.696890052113794 61.24958072070923 133.96694898576874 0.5751084611381151
1.922030962989379 12.659073342214633 56.06838449639253 140.79674701501452 0.5885082924846942
1.9383433937682508 12.619184708643848 51.38495188675893 148.0330462932158 0.6025101114073876
1.9538402806006105 12.577338911672264 47.15615280876182 155.70433041704584 0.617149623872634
1.9684574778551964 12.53340685884159 43.33291893994487 163.8442654166116 0.6324744896119198
1.9821712683124144 12.487406813099934 39.87409681436524 172.48665669152504 0.6485263701776509
1.9949614887775926 12.439330538990122 36.74238159646419 181.67074520771115 0.665358260370085
2.006797019325359 12.389168438039938 33.89885157224629 191.4385651772924 0.6830246745911175
2.0176427792993974 12.336893936069265 31.322913826209252 201.83615570647606 0.7015848527618381
2.027461540869396 12.282566191425758 28.99038963636541 212.94876712730985 0.8463316256583456
2.0306415317229645 12.234448511429113 27.571170349463117 226.70337875834863 1.641391898699804
