M[M_sun], R[km], Lambda[1], P_c[MeV/fm^3], rho_c[fm^-3]
0.24162668629717493 15.618656898711224 2160425.4255784233 3.5677272577965504 0.1711233750220791
0.253644490968507 15.277254838566169 1723199.94763083 3.7848293866621905 0.1738882949643234
0.26604032757959517 14.981274895254964 1383019.232912518 4.011422047244066 0.17666690961095902
0.2788168826800276 14.723478100611112 1116411.904407085 4.247761027801943 0.17945789480215343
0.2919712778593433 14.49837704733552 905844.0147969156 4.49447162353507 0.18226781879505505
0.3055075392585906 14.301182041091367 738645.8054827377 4.751709571368818 0.18509239043332346
0.3194246389590539 14.12810908267308 605070.4128404795 5.02015697889788 0.18793822456500778
0.3337225549075041 13.975931143231904 497645.23844728194 5.300038109506637 0.1908019482484284
0.348405174098603 13.841992436297001 410985.0012235055 5.592081391220186 0.19368985423905424
0.3634689981851852 13.723938635524773 340649.0119162565 5.896454354562805 0.1965970101123829
0.3789226299703074 13.619968337494639 283277.6806781874 6.214021002954543 0.19953109489253087
0.3947556239882048 13.528444650447984 236397.3881143546 6.545038109389844 0.20248827539951045
0.4109812353200469 13.44783604081843 197853.17800085762 6.890209399980227 0.2054722851322575
0.42759029465243703 13.377018770926577 166070.6927251344 7.25023945141291 0.20848618762069296
0.44458600589407155 13.314898722055336 139788.59878114154 7.625386414083348 0.21152551619072246
0.4619682899853928 13.260551308998753 117973.24432369108 8.016600968949582 0.21459645841496527
0.47973432224427665 13.213122079586427 99798.8069827872 8.42458744771983 0.21770064968847017
0.49789182629910506 13.171962303606534 84634.73054616243 8.849785717240938 0.22083554317707907
0.5164310715339014 13.136378222714027 71930.53318576563 9.293071116643363 0.22400457512868183
0.5353501072007658 13.105847921431135 61269.422125662735 9.755327647916545 0.22721065168602644
0.5546583546505695 13.079787468212874 52301.92739758776 10.237365017366535 0.23045512397492623
0.5743416986305584 13.057823299527204 44725.00423232782 10.739652691470386 0.23373466648078092
0.594399706026965 13.039519496537332 38321.64282789183 11.263438852810351 0.23705551055744892
0.6148380480985899 13.024484733689734 32897.005632154076 11.809659635545692 0.24041925092997068
0.6356422918334386 13.012424166531915 28287.97094114057 12.379294202393387 0.24382752083132925
0.6568140989468149 13.003029092600402 24368.362454223035 12.973029391584845 0.24727824580230953
0.6783465639148109 12.99597258155306 21025.318166530382 13.592196438391902 0.25077626039984374
0.7002355109573175 12.991063923121823 18169.908727989336 14.237991142439679 0.2543241783013933
0.7224707030055997 12.988008016786042 15727.715279475777 14.911603397081883 0.2579239845203915
0.7450601813478193 12.986643355839194 13632.120377478537 15.61405894479212 0.2615755354170783
0.7679812211093323 12.98675760392464 11834.324602073239 16.34663201113159 0.2652808055909156
0.7912269649755816 12.988140314639912 10287.446533748096 17.110935089283696 0.26904444758718354
0.8148015667529728 12.99067910736747 8954.835401701113 17.9084234952879 0.2728688945168157
0.8386863546296329 12.994130305603683 7806.582441627147 18.740454590539798 0.276755155207925
0.8628679130994539 12.998409277759624 6813.0006492080565 19.608389005105984 0.2807038540940922
0.8873506274635636 13.003364120560255 5954.386961788098 20.514305189645004 0.2847212821477352
0.9121067267748908 13.00885750988556 5210.344210740667 21.45999762400853 0.28881045341610595
0.9371283901152808 13.014740605572387 4564.5138002435015 22.446940179342324 0.29297120592200393
0.9624127457147369 13.020952324680042 4003.981246143993 23.47717916678025 0.29720750566158477
0.9879343458957 13.027338014100426 3515.990190388638 24.553127393920086 0.30152537239899674
1.0136778430867444 13.033797009360628 3091.6071748984473 25.676714770245976 0.3059263443173991
1.0396424255430128 13.040250374525302 2720.9665819032125 26.849927867700362 0.31041186748924326
1.0657946621724623 13.046586822592918 2397.792926561016 28.075851931718265 0.3149905870866868
1.092127922397301 13.052710878568565 2115.2941394131763 29.3565263809418 0.3196628400358757
1.1186264658839888 13.058545780575681 1868.2837815489759 30.69473879806989 0.32443352805757275
1.1452588364165366 13.064007780029925 1651.778029246379 32.093857063823336 0.32931049146792485
1.1720227983815892 13.069010950890974 1461.7601131389758 33.55585570677383 0.334291643874079
1.1988800822803698 13.07347468868646 1295.1824539927456 35.08526193212203 0.33939044804772767
1.2258263893956491 13.077338504365283 1148.8265082355954 36.68407973728188 0.34460354638525437
1.2528237670217697 13.080494158267278 1019.9728244386621 38.357381023983855 0.34994549623646953
1.2798664867056535 13.082941824641566 906.5285334567532 40.10742650889526 0.35541299498211465
1.3069105709033118 13.084521519910254 806.6377490550304 41.939649427018054 0.36102037855125496
1.3339488592940278 13.085234312666563 718.4581973884574 43.85757196367092 0.36676979102533097
1.3609579781088377 13.08503186478759 640.5083488452209 45.865847317704635 0.3726687879585639
1.3878890953003997 13.083770838352136 571.6808441572525 47.969827367592465 0.3787274276467437
1.4147395820563802 13.081460502505243 510.7477880114294 50.17428987735938 0.38495146605247554
1.4414703434085747 13.078025884663079 456.7697793245693 52.48441627868998 0.3913476725133196
1.4680648758882968 13.073426253513507 408.9257383429112 54.90664310391407 0.3979278408080896
1.4944749282100427 13.067557454743456 366.46388846100353 57.4471612382976 0.40470103366628035
1.5206874397586767 13.060408669400154 328.76497351571817 60.112599767304076 0.41167702404490775
1.5466711761787741 13.0519216120777 295.2255968914968 62.91006542491268 0.41886635360915303
1.5723872694579892 13.042036537147796 265.407194551154 65.84718581900982 0.4262803959879254
1.5978118674857802 13.030705668630423 238.8656859529284 68.93215681731385 0.43393142536323975
1.6228993228953816 13.017880259503439 215.1840023632781 72.17379452496515 0.4418326910207575
1.647650934803119 13.003540787534533 194.05473123481696 75.58159233896536 0.4499984985646678
1.6720001131265976 12.987603671994119 175.1935843405018 79.16544789450343 0.45844289661682297
1.695936901846132 12.970050728028756 158.33130955718056 82.93563795260137 0.46717950866520713
1.71941739133757 12.950835862160927 143.24821455739223 86.90486207698224 0.47622971687277593
1.7423966061223035 12.92988455875771 129.76057639245906 91.0846609063689 0.48560770899421163
1.7648810814400118 12.907241243529588 117.6524623104535 95.48920541428762 0.49533572321192604
1.786807969544162 12.882801173890737 106.80267357690568 100.13208728137745 0.5054309728747909
1.8081464136542271 12.856541684514662 97.06500875471278 105.0298751895487 0.5159193209943048
1.8288552967626117 12.828403045540488 88.31132535461153 110.19911426329246 0.526823310783596
1.8489347835448136 12.798432140164973 80.44385508900247 115.65749278612846 0.53816651606044
1.8683102785680987 12.76649090354001 73.37136058844274 121.42512256872982 0.5499778993408827
1.8869881652607412 12.732666068547456 66.99347538905835 127.52344256773735 0.5622873126519375
1.9049108416326948 12.69684660049138 61.242952657273484 133.9749577517276 0.5751242729288176
1.9220510090285197 12.659026245858923 56.06181305477168 140.80534906076784 0.5885250525410143
1.9383636487823115 12.619133582733753 51.38041493592519 148.042293137516 0.6025278981724583
1.9538592113732203 12.577285784185825 47.15375597959389 155.71424818426254 0.6171684190342921
1.9684744666866796 12.533351426168528 43.330678449143264 163.85491421435304 0.6324943816545985
1.9821878983898427 12.487344775424205 39.8708948168826 172.4981345805828 0.6485475628448297
1.9949767212604326 12.439264730075143 36.73671514244544 181.68309380020403 0.6653807535025338
2.006811231307083 12.389101720368949 33.896883542277536 191.45186467219173 0.6830485832526014
2.0176569688374975 12.336822065915985 31.32063596250573 201.85049457316578 0.7016103028357997
2.0274915147202783 12.282433429931125 28.98587099073205 212.92887717550138 0.7211283760087178
2.036299771658052 12.225963240948625 26.86372072277317 224.74265250673093 0.7416736036459293
2.0440431880376546 12.167362634578152 24.93701210708386 237.3528608190854 0.7633226777557981
2.050700545443378 12.106651858098521 23.182427256311456 250.82645850525608 0.7861584473399066
2.056271956492475 12.043899890561617 21.589063289061656 265.23666985399086 0.810269429733916
2.0607162764707776 11.97904605353844 20.137756864418918 280.6649768756264 0.8357544206424601
2.0640198969722405 11.912147025063144 18.817783287353443 297.20141595903004 0.8627213256943369
2.0661780995400743 11.843240566946777 17.61502439944469 314.9463229487549 0.8912904246439116
2.0671704907750064 11.772342055495933 16.5209232637481 334.0090386441808 0.9215872792229626
