M[M_sun], R[km], Lambda[1], P_c[MeV/fm^3], rho_c[fm^-3]
0.24162668629717493 15.618656898711224 2160425.4255784233 3.5677272577965504 0.1711233750220791
0.253644100320891 15.277275084179099 1723274.1592952649 3.784821412823247 0.17388819557426768
0.26603999962184616 14.981266776806043 1383039.0797820434 4.0114052845882 0.17666670704415552
0.2788150337872906 14.723523336011494 1116510.9793346142 4.24773490916583 0.17945759186533447
0.29196977900065685 14.498414820563552 905871.7191211376 4.494435463487369 0.1822674161445316
0.30550474926846916 14.30123825396092 738656.0787098403 4.751662142041302 0.18509187810606603
0.31942141129304036 14.128143949901386 605102.9330584762 5.020097930853703 0.187937611918759
0.3337205588103275 13.975911254192681 497665.2632447625 5.299965888095712 0.19080122109865735
0.3484008873238758 13.84202860524315 411007.5356334762 5.591995816061703 0.19368902627585502
0.3634636372413789 13.723986964663807 340643.6230207017 5.896353503002821 0.19659606289318907
0.3789168708857008 13.619998291046867 279389.90475151513 6.213903654461397 0.19953002481557017
0.3947487770963449 13.52848359219844 236411.2230730669 6.544904385739736 0.20248710282375082
0.4109748417918523 13.447859089282694 197862.92277760405 6.890056719533285 0.20547098484150148
0.42758221215794534 13.377058869086987 166079.08176778042 7.250066381336057 0.20848475585630122
0.44457712479770856 13.314931837271038 139799.54562077957 7.625193432667463 0.21152397993456537
0.46195876502198735 13.26058014025694 117982.6208666454 8.016384709992566 0.2145947854770949
0.4797234624892841 13.21316960287201 99811.58392840625 8.42434622475099 0.21769883602896803
0.4978810484736938 13.171980433183334 84643.98192269566 8.849520419639886 0.2208336223090945
0.5164184134210411 13.136413041821482 71937.9440037276 9.292777450879312 0.224002507703395
0.5353377049517386 13.105847520900754 61276.9083342068 9.755003622721505 0.22720843323802467
0.5546450198188196 13.07981417279733 52300.54769548495 10.237008520468512 0.2304527498446553
0.5743267697794385 13.057837895397585 44729.27624019407 10.739265271824006 0.23373217912664357
0.5943835530571883 13.039545110030243 38328.66108480448 11.263014683916548 0.23705286034252457
0.6148195703916093 13.024505028530553 32901.81635300437 11.809196211441382 0.24041643253821043
0.6356245447157718 13.012432136894281 28292.154436895627 12.37878886076736 0.2438245286660637
0.6567946157716629 13.00302131806946 24371.0898578575 12.972484453057412 0.24727513115714927
0.678327223853831 12.995969651624433 21028.445177715003 13.591604164337323 0.25077296277658756
0.70021397180657 12.991055824488672 18171.778366104652 14.237348356953444 0.2543206911587593
0.7224477998800989 12.987998589231326 15729.511859667444 14.910906720192248 0.2579203009270617
0.7450366691354153 12.98664958116243 13634.364513180748 15.613311577112599 0.26157171536924917
0.7679565491179409 12.986756043750647 11836.373914470985 16.34582383122318 0.2652767770167707
0.7912008321195568 12.98813830425982 10288.739795401216 17.1100620407615 0.26904020224785913
0.8147759420544783 12.990659125349751 8956.527736425676 17.907481252821352 0.27286442364368546
0.8386564086894869 12.994139407882086 7807.47760373851 18.73944733345792 0.27675052738280254
0.862838783658497 12.998403135312197 6814.696529327684 19.607303635915624 0.2806989847270416
0.8873180333747979 13.003361244309152 5955.512277481803 20.513136484103377 0.2847161606988411
0.9120728761450949 13.008852096854733 5211.156967658528 21.458740000112787 0.2888050686347759
0.9370950490767558 13.014738781850072 4565.4370724166165 22.445598876069006 0.29296563491182886
0.9623779696303745 13.020943368251041 4004.618080392358 23.475737350784367 0.29720165001842025
0.9878980462858229 13.027328814054824 3516.5957603869715 24.55157827820488 0.30151921849765995
1.0136405201000076 13.033789214491861 3091.924749125753 25.675064351458023 0.3059199750334437
1.0396048655310668 13.040243104513994 2721.490190446283 26.848155967970662 0.3104051735711296
1.0657554362960233 13.046573265952267 2398.3533749372696 28.073950256233733 0.31498355196215766
1.0920868385435265 13.052698839934637 2105.21690904876 29.354501669862277 0.3196555523191683
1.1185846605346697 13.05853670713494 1868.6055631077409 30.692566876968936 0.32442586646515215
1.1452157055195784 13.063998227273514 1652.0944930674511 32.09154502171747 0.3293025475189761
1.1719785699486678 13.069011894162452 1462.039792764364 33.55337642206134 0.334283288428973
1.1988339557310215 13.073460628831596 1295.5206110542765 35.082603702280366 0.33938165800228903
1.2257799540781034 13.077327658801542 1149.08256078435 36.681250276660805 0.34459441898328186
1.2527754709293384 13.080497266374874 1020.1998066908426 38.35436884922045 0.34993601118690637
1.279816931939445 13.082938507987848 906.7253645684372 40.10419738132846 0.3554030051402048
1.3068607124313252 13.084523384603933 806.7558569419107 41.93621107100778 0.3610099838801272
1.333898471604272 13.085232197733157 718.6115861863651 43.853885827096214 0.3667588339211015
1.3609058909904501 13.085033478534971 640.6391984898216 45.86192112466569 0.37265737112253966
1.3878367446203141 13.083773288801835 571.8199699759094 47.96564434711879 0.37871552142016723
1.4146934660984343 13.081482962848884 510.82513974140454 50.169804158264306 0.3849388965732347
1.4414169956431901 13.078034741355099 456.8951020001478 52.47963498233799 0.39133454486493396
1.4680108440872242 13.073437713021425 409.014089637927 54.901545057882885 0.3979141177850372
1.4944198986919737 13.067570764462046 366.534563844915 57.441723555103025 0.4046866751867466
1.5206311975600817 13.06042701487263 328.8421606727087 60.10679769083955 0.41166198691456907
1.546615333586508 13.051939937753433 295.29186717851894 62.903872161564664 0.41885059126154606
1.5723313183762442 13.042059658784002 265.4667850601289 65.8405723517441 0.4262638581988951
1.597755383711706 13.030734493903966 238.91598533931784 68.92509170081763 0.4339140579366553
1.622841663428804 13.017914079295549 215.2374998629287 72.16624365969605 0.44181443544235577
1.6475944883109843 13.003574059034417 194.09772612119042 75.57351872169119 0.44997929162050365
1.6719448681762183 12.98764060828084 175.23909225182678 79.1568535034663 0.4584228460008596
1.6958801364172391 12.970095575565374 158.36487668337418 82.92643893006884 0.46715836933821925
1.7193608383993852 12.950884255831024 143.2794408939962 86.89501106547308 0.4762074091784976
1.7423466706631803 12.929943597490356 129.77852605761578 91.07415380559935 0.48558433456252414
1.7648268986416218 12.907304058067991 117.68577760455884 95.47794099806568 0.4953110065675132
1.7867526961075015 12.882863849391617 106.82259416359409 100.12005574122273 0.5054050093331105
1.8080915066765202 12.856612245650478 97.08328123551044 105.01701413155958 0.5158920105107071
1.8288022717556527 12.828477871112867 88.33164249429915 110.18535563057243 0.5267945451424816
1.848882606447424 12.798515108031642 80.46636644150918 115.64270606625254 0.5381359717996811
1.8682596835284975 12.766577208912576 73.39051951086051 121.40928085679334 0.5499456514207198
1.8869388611477877 12.732760172155626 67.00954250312685 127.50649644795159 0.5622533638114096
1.9048616142893846 12.69694812775384 61.25623058824176 133.956793271838 0.5750884106054946
1.9220048001363803 12.659132324142387 56.075495568590775 140.78583899920855 0.5884870395217954
1.9383199788293577 12.619248311205322 51.393120344320685 148.02132064982803 0.6024875565489441
1.9538162089705449 12.577405827616357 47.162306164255405 155.69175401994391 0.6171257903412106
1.968433308404063 12.53347899311979 43.34201662457875 163.8307620496046 0.6324492652101299
1.9821498124524486 12.487484151846983 39.88112372973137 172.47210201515395 0.6484994965591071
1.994939758957286 12.439411462664932 36.74526877076962 181.6550864578449 0.6653297377400829
2.0067770020780555 12.389254179235456 33.90289330005302 191.4217006630091 0.6829943570515309
2.0176280056742257 12.336982592041442 31.32870968724679 201.81797325050425 0.7015525806960395
2.0274627646844534 12.282602291458126 28.99260007005243 212.89385898059868 0.7210671137718075
2.036274538473844 12.226140154497257 26.870737078027343 224.70481328728295 0.7416081976542893
2.0440202512142767 12.167549984474977 24.942881533241255 237.31201621877605 0.7632530339602217
2.0506813310659124 12.106847712941075 23.188080933394172 250.7823134083374 0.7860841679562399
2.0562549157395487 12.04410580897022 21.593312868583244 265.1888059654393 0.810189781442533
2.060703295205912 11.979260822556572 20.142422975911334 280.6132122537768 0.8356695146145166
2.0640115995687545 11.912368829783924 18.821819120985083 297.14525497413086 0.8626303348358123
2.0661734192939036 11.843471965803303 17.618881814170994 314.8853145867446 0.8911927622557543
2.0671682052902236 11.77258509798784 16.52411643516836 333.94278049107686 0.9214826297627988
