M[M_sun], R[km], Lambda[1], P_c[MeV/fm^3], rho_c[fm^-3]
0.24162668629717493 15.618656898711224 2160425.4255784233 3.5677272577965504 0.1711233750220791
0.25364378494931433 15.277285163806892 1723236.9769165714 3.7848160136613975 0.17388812827631986
0.26603953957580795 14.981268014649885 1382940.4194127757 4.011393934463663 0.17666656988459886
0.2788142658821769 14.723547209849508 1116475.5802440583 4.247717224077186 0.17945738674495704
0.2919680478119527 14.498482913576165 905954.387268652 4.4944109793551315 0.18226714350803666
0.305504772331117 14.301187887083568 738666.6900991594 4.751630027505454 0.18509153120778737
0.31941757082183925 14.128206803705712 605158.2655305004 5.0200579493414095 0.1879371970951375
0.3337169762895764 13.976006475819531 497695.2857559145 5.299916986992675 0.19080072874569137
0.348397979646778 13.842052158453143 411020.90994767484 5.591937873264824 0.19368846566335568
0.3634590452018911 13.724038733350207 340658.95260055247 5.896285216735662 0.196595421534117
0.3789134099741632 13.620018591396807 283318.3151049849 6.213824198353567 0.19952930027153815
0.3947452129384279 13.528464905211429 236414.71748053565 6.54481384227793 0.20248630887990898
0.4109691477236347 13.447896532851395 197879.22663633525 6.889953340770129 0.20547010442457322
0.4275777554995824 13.377065262745615 166086.1394392514 7.249949197168739 0.20848378642171672
0.4445719353481702 13.314942550477523 139806.7805444127 7.625062766972433 0.21152293975161515
0.46195250836998875 13.260588147492651 117990.33472797886 8.016238283635783 0.21459365275084455
0.47971656771854876 13.213171415515783 99820.72655399922 8.424182895912542 0.21769760802443244
0.4978727790723574 13.17200596955729 84647.14993120928 8.849340790531409 0.22083232171759953
0.5164112057767848 13.136405226475826 71942.44662584635 9.292578614527931 0.22400110788308528
0.535328682540887 13.105873849476696 61282.47967754604 9.754784230954956 0.22720693116586005
0.5546340699932888 13.079834238740435 52302.86180238356 10.23676714319351 0.23045114236616537
0.5743160642383415 13.057851768093307 44331.96663551996 10.739002957820611 0.23373049498948706
0.5943705435468348 13.039545645445015 38329.592736499784 11.26272748834396 0.23705106593938985
0.6148084586095077 13.024516074719923 32903.49528892098 11.808882437673526 0.24041452427018192
0.6356124442520131 13.01244533059763 28294.97434918991 12.378446706329408 0.24382250274424772
0.6567807058056034 13.003023443540554 24373.197077524554 12.972115489177446 0.24727302231091217
0.6783130897232875 12.995976580892986 21030.234515238233 13.591203151623857 0.2507707300452367
0.7001997988651898 12.99106690014958 18174.095867757143 14.23691314522659 0.25431833011390065
0.7224335288078294 12.98799712940662 15731.52397356919 14.91043502111822 0.257917806876249
0.7450183941883004 12.986661426103352 13635.414892792343 15.61280555769661 0.26156912893365053
0.7679399226976968 12.986747429509807 11837.560799733208 16.345276638881636 0.2652740494001887
0.7911831938046796 12.988141117015044 10290.015743328251 17.109470929229683 0.26903732787264706
0.8147554660160851 12.990672492436488 8957.253036387 17.906843293759795 0.2728613965735546
0.8386387988819578 12.994133060617388 7808.5431248572395 18.73876535647159 0.27674739405141474
0.862818566275912 12.998401814338777 6815.540551516219 19.60656877362729 0.2806956878634072
0.887291256179767 13.003349090996368 5955.947778645236 20.512345199616494 0.28471269316752895
0.9120522155708425 13.008838776260239 5211.799678921487 21.45788851433172 0.2888014228192406
0.9370716324902613 13.014732158685918 4565.86966332108 22.444690735973932 0.29296186301489047
0.9623487764465039 13.02092939868602 4004.8503664522204 23.47476115985675 0.2971976854170086
0.9878735482604675 13.027328176673574 3517.080216118003 24.550529441585518 0.30151505196767736
1.0136147375291602 13.03377964060969 3092.242100451492 25.67394692905101 0.3059156626851716
1.0395776245964061 13.040241526359857 2721.79818489226 26.846956299072456 0.310400641438056
1.0657281191110464 13.046563408665088 2398.6119807299406 28.072662725223953 0.3149787888250911
1.0920584111257021 13.052705100452481 2115.9734462421798 29.353130839973502 0.31965061817326257
1.1185564758000273 13.05853646865785 1868.845276376992 30.69109638192669 0.32442067919860496
1.1451860167938683 13.063986984945874 1652.3388368384449 32.089979660901946 0.3292971690933958
1.1719479993405695 13.068998502003645 1462.279883807054 33.55169783405517 0.3342776314143225
1.1988036070024266 13.073461803708954 1295.578231421413 35.080803964540614 0.3393757067574937
1.2257489630072036 13.077328330457952 1149.2487636361218 36.67933461186973 0.3445882393452044
1.2527428761429784 13.080495140220323 1020.3427323365149 38.35232355010528 0.3499295546140536
1.2797834210203258 13.08293756696046 906.8245230843381 40.10201113463475 0.3553962416233123
1.306827139337087 13.084520911664196 806.8667569280597 41.933883173070726 0.36100294629198854
1.33386357716747 13.085238638513637 718.7272543087203 43.85139017852288 0.36675141556288715
1.360870158513537 13.0850330257626 640.7257999761223 45.85926295464039 0.3726496415251912
1.3878011931990406 13.083775931974234 571.8940511878462 47.962812301913225 0.3787074605053081
1.414657511477672 13.08148801112543 510.9084955418694 50.1667671838795 0.384930386636327
1.4413802101612223 13.078039506650244 456.95426065776115 52.47639789985238 0.3913256570492585
1.4679747444192122 13.07344088673045 409.08737942584787 54.8980935339882 0.39790482690345574
1.4943819311897657 13.067580957984967 366.5869326160834 57.43804209548109 0.4046769541050388
1.5205940392224813 13.060438705341058 328.8869397106107 60.102869536213596 0.41165180639153354
1.5465770397760799 13.05195319663474 295.3387070464436 62.89967917338043 0.41883991977325985
1.5722926192863558 13.042077123027639 265.50743825328755 65.83609488632243 0.4262526617454224
1.5977169230741697 13.030751131278985 238.9608010017103 68.9203084706851 0.4339022998293109
1.6228039058838364 13.017934630505916 215.2727821684406 72.16113158063818 0.44180207606939503
1.6475565860956356 13.00359936934088 194.1297290747929 75.56805274389286 0.44996628818885587
1.6719054915828917 12.987666809842912 175.26518206106476 79.15103496584892 0.45840927141916665
1.695842271021204 12.970124912888158 158.39038402886888 82.92021106453085 0.4671440577213514
1.719322905701689 12.950918217570708 143.3039914657053 86.88834181313351 0.476192306603283
1.7423092266599987 12.929980944835684 129.79913285520288 91.0670403904121 0.48556850983208655
1.7647889190426271 12.907338655921631 117.6983053718646 95.47031489509341 0.495294273194766
1.7867168292511564 12.882908331413251 106.84472235711654 100.11191031023603 0.5053874318464208
1.808056175364829 12.856658393317066 97.10516571194759 105.00830713505437 0.5158735211853777
1.828767014383674 12.828529443321944 88.34591573879437 110.17604099769027 0.5267750707228895
1.8488480365991566 12.798570078684252 80.47911870323176 115.63269544834527 0.5381152933174833
1.8682341512012808 12.766667758473663 73.39370976417203 121.39855604042606 0.5499238196248027
1.8869054041074806 12.732824375791479 67.02115958407927 127.49499722093027 0.5622302849545318
1.9048288677711644 12.697015691958443 61.26529972386915 133.94449601656456 0.5750641320053209
1.9219732134579501 12.65920638298276 56.08469856567222 140.77263083553717 0.5884613049961527
1.9382885276829618 12.619325362958264 51.400823334444624 148.00712248265526 0.6024602456679845
1.9537868900892665 12.57748985115877 47.17008417816469 155.67652574008704 0.6170969312265095
1.9684058338042776 12.533569589482306 43.34599117263405 163.81441137622798 0.6324187220163788
1.9821231518220033 12.487578229060032 39.88634944711508 172.45447840266957 0.6484669564855806
1.994914859847176 12.439510698853223 36.75146266937063 181.63612602042684 0.6652952010404245
2.006753920100808 12.38935838619397 33.90841041957497 191.40128027714138 0.6829576470789509
2.0176037379896417 12.33709429387582 31.332528100678307 201.79595709678182 0.7015135041948967
2.027443691102459 12.282716693672095 28.996403497407353 212.87015258909977 0.7210256408581885
2.036256584534832 12.226260805910671 26.874545736504988 224.6791972404467 0.7415639197075014
2.044004974415364 12.167676220212796 24.94682495659032 237.28436572430482 0.7632058873271306
2.05066827010081 12.106981004221335 23.191595166702598 250.75242870380717 0.7860338833813152
2.056244496330807 12.044244225573177 21.59724515591908 265.1564039136207 0.8101358625457873
2.060694918242391 11.979405102965474 20.144623783535906 280.5781696961454 0.8356120366639171
2.0640042136841767 11.912518232671282 18.824385146999553 297.10723643003286 0.8625687379821685
2.066170180803701 11.843629175115078 17.621444301182493 314.84401477527547 0.89112664938064
2.067167636193986 11.77274791067685 16.52629027373307 333.897927026125 0.9214117872977768
