M[M_sun], R[km], Lambda[1], P_c[MeV/fm^3], rho_c[fm^-3]
0.24162668629717493 15.618656898711224 2160425.4255784233 3.5677272577965504 0.1711233750220791
0.2536401928624419 15.277391337300521 1723289.2367506858 3.7847664510473926 0.17388751050224607
0.26603358993014536 14.981411560041217 1383272.4124245797 4.011289744950143 0.17666531081581643
0.27880532954228476 14.723728508549078 1116583.65909063 4.247554883792717 0.1794555038422988
0.291956746579691 14.498622760638181 906066.2748075309 4.494186229424553 0.18226464086539793
0.30548809250058645 14.301453733347048 738836.6077806826 4.751335237857337 0.1850883469169732
0.3194005131332924 14.128406409211747 605221.7970093417 5.0196909495999344 0.18793338933117082
0.3336953435910561 13.976168568957126 497850.594719921 5.299468116524796 0.19079620936489064
0.34837180972686504 13.842212375033128 411142.5924414385 5.591406012504105 0.19368331976418587
0.3634302821620927 13.724214666850306 340789.8755693443 5.895658418449294 0.19658953451196676
0.3788770772663469 13.620272685222861 283427.778943549 6.213094879103268 0.19952264975813297
0.3947053313122809 13.528689149030022 236519.07666780162 6.543982760430005 0.20247902141483928
0.4109256228137973 13.448110080111197 197969.9538928893 6.889004454692033 0.20546202331254756
0.427527917217146 13.377275106923534 166167.90167702237 7.248873604715897 0.20847488832100508
0.44451732936255745 13.31513164948648 139891.3634751896 7.623863442025284 0.21151339235387245
0.4618926831722227 13.260778477871998 118055.49358621608 8.01489431024173 0.21458325603008574
0.4796520882433182 13.21333255969597 99876.05316734152 8.422683796495061 0.21768633689251551
0.49780182560681424 13.172159204175923 84701.25289152795 8.847692093366751 0.2208203844456933
0.5163352298037113 13.136545009379734 71990.08843543121 9.290753642716847 0.2239882599677615
0.5352470352330388 13.105973962460064 61321.03576248205 9.752770613760605 0.22719314487667783
0.5545478058782984 13.079939104199887 52344.50200899653 10.23455175831662 0.23043638876710973
0.5742210081887679 13.057956515186442 44765.73512844142 10.736595431533496 0.23371503792496548
0.5942727250110097 13.039601406111492 38358.259708528356 11.260091620952185 0.2370345969922266
0.6147020942082572 13.02457965671543 32931.00230338957 11.806002661665802 0.24039701042725478
0.6354964921769101 13.012516660650805 28319.744830909374 12.37530648314465 0.24380390924975687
0.6566613255016768 13.003070766148793 24393.846090796706 12.968729238957732 0.24725366789325354
0.6781858350952865 12.996034974705992 21048.346224247278 13.587522797453026 0.2507502388192394
0.7000659188642454 12.99108573102362 18190.125588390565 14.232918958745268 0.2542966614573031
0.7222922409670004 12.988007112582363 15746.328286740632 14.906106006595477 0.25789491774463286
0.744871903238887 12.986651950459235 13648.413016672866 15.608161601502193 0.2615453921100426
0.7677847962454868 12.986748880267553 11848.05819294979 16.340254864303084 0.2652490171134192
0.7910207115854987 12.98812948372915 10301.269521060807 17.10404613968827 0.269010948958095
0.81458696187254 12.990635901463142 8967.085068709537 17.90098862245221 0.2728336165768292
0.8384593656267694 12.994111410559212 7815.591835384038 18.732506768541388 0.2767186390781558
0.8626337663554292 12.998362231155436 6822.405359193745 19.59982490928243 0.2806654323972245
0.8870998751658183 13.003303120670962 5962.389087923536 20.505083609651034 0.284680871754373
0.9118512560813761 13.008793683336314 5217.200035776409 21.450074527867997 0.2887679655920317
0.9368628544382324 13.014684297861383 4570.828682016712 22.436356898827945 0.29292724899995337
0.9621319721636895 13.02087521218519 4009.3784784675627 23.465802912076562 0.2971613033110185
0.9876480969529596 13.027281088581294 3520.8498553719355 24.54090462947293 0.3014768171582669
1.0133882808214911 13.03373160460836 3096.114624323051 25.663692803068543 0.3058760900381721
1.0393384000882981 13.04018141023141 2725.01758039808 26.83594753074073 0.3103590522936427
1.0654840763801647 13.046515570189477 2401.4464065824527 28.06084779794922 0.31493508027157774
1.091803850628656 13.052630530340021 2118.659883392156 29.340551620413375 0.3196053407065263
1.1182934783971565 13.058475173943002 1871.1027674590775 30.677602725524576 0.32437307945127936
1.1449178217467417 13.06393999213567 1654.2585423968642 32.07560262763417 0.32924773168145405
1.1716715874794874 13.068952966336 1464.1940637937344 33.53629492418026 0.3342257220199376
1.1985201479506828 13.073411511618769 1297.2861364648734 35.06428953041167 0.3393210980009025
1.2254583357814237 13.077292594024142 1150.6818696979462 36.661756566770045 0.3445315352927357
1.252446010310304 13.080458379634903 1021.6489630532532 38.33347970676116 0.3498698614493206
1.2794814098192604 13.082910885305413 908.0228640952005 40.08195060395787 0.3553341810431883
1.3065180285563285 13.084510377112302 807.9832507229723 41.912523056777836 0.36093837142439167
1.333547235401029 13.085233850749828 719.6898457694379 43.828491066310455 0.3666833475588431
1.3605513555113489 13.085043145058751 641.5800398835473 45.83487281570383 0.3725787183143136
1.3874764076199988 13.083802076797875 572.6767018047284 47.936826990055344 0.3786334979195194
1.4143278356795086 13.081523836135842 511.60391767672024 50.13890185239934 0.3848523049066966
1.4410517893851602 13.078108569959543 457.56996963381647 52.44669677212212 0.3912441088805621
1.4676374057537003 13.073508151075618 409.66063071805644 54.866425138015586 0.3978195812769343
1.494040469913575 13.067664668269206 367.1334203450835 57.404264311901144 0.40458776214646536
1.5202496450083982 13.060542027721667 329.3644882102668 60.06682864520298 0.41155839990525855
1.5462291813638491 13.052079322402195 295.7715300998489 62.86120880649071 0.4187420096309957
1.5719437347776088 13.042220535779698 265.89325078985206 65.7950148726488 0.4261499361141916
1.5973598889271152 13.030910658053534 239.28601981953724 68.87642356549443 0.43379442222113945
1.6224514628543385 13.018123089234328 215.59789268767713 72.11423006312371 0.4416886831932634
1.6472037453302644 13.0038161763247 194.42032069821457 75.51790486907139 0.44984698758307573
1.6715518095347142 12.987916063014028 175.51793032795044 79.09765300328795 0.4582847319112412
1.6954929125654552 12.970398992020682 158.63767364586658 82.86307438201169 0.46701275779133145
1.7189569011427754 12.951185132350865 143.52505735664425 86.82715639602391 0.4760537517373277
1.7419708770214721 12.93033732223 130.0032554400791 91.0017807666072 0.48542333119032466
1.7644495830023543 12.907712057492654 117.8763232176631 95.4003526406951 0.4951407603868038
1.7863779175660697 12.883308205757373 107.00666034427472 100.03718451469524 0.5052261768215306
1.8077201195035781 12.85708927418583 97.2435970090675 104.92843044816131 0.5157039028733322
1.8284468139224053 12.829023374959457 88.48288368195563 110.09031464602963 0.5265953889640447
1.8485234001865383 12.79907358080134 80.6011174052965 115.54086182150262 0.5379255967337747
1.8679187803708617 12.76721356043228 73.50873167656528 121.30017182424822 0.5497235454144577
1.8865979248331572 12.733413222310775 67.1211420340997 127.38951026648625 0.5620185734786578
1.904530911106467 12.697640217203718 61.36255502384746 133.83168971690964 0.574841417343757
1.9216841643248677 12.659878693607626 56.170355154167325 140.65147013475362 0.5882252378759405
1.9380166906824812 12.620067049333482 51.47970628910075 147.87688211853197 0.6022097218477311
1.9535137552910196 12.578223001301016 47.2437016491984 155.5368378957931 0.6168322087786222
1.9681539512191735 12.53437191523102 43.41196083527279 163.6640976101371 0.6321374305215904
1.9818851400596669 12.488431538264907 39.946728149398496 172.29282297366709 0.6481684774109665
1.9946883942472935 12.440410920909907 36.80704592143589 181.46221083985645 0.664978412127545
2.006538314894419 12.390300779799164 33.961191097411394 191.2139764609811 0.6826209287622681
2.017409679033102 12.338096681848965 31.38026817320962 201.59401938598617 0.701155084677747
2.0272658039664533 12.283772403993112 29.040334352192424 212.65271478331394 0.7206452464258569
2.0360964999529787 12.227369804394352 26.91307508929066 224.44424775690393 0.7411578039318437
2.0438644974565325 12.168840856914418 24.98209139399465 237.03076040733546 0.7627734669651166
2.0505477858253123 12.108202260667035 23.22543315794684 250.47780211576602 0.7855709504929904
2.05613848695691 12.045491928044257 21.627180656624194 264.85922862606185 0.809641345601769
2.0606165136130485 11.980731382014003 20.17403382561513 280.25645207562457 0.835083807972088
2.063955039796233 11.913916015547876 18.84994153363405 296.75856193084473 0.8620038228175981
2.066137831751826 11.845069915904634 17.645797959458044 314.46525460547656 0.8905203288451838
2.067158297171423 11.774247588962059 16.54842593547278 333.48658424111886 0.9207621042266895
