M[M_sun], R[km], Lambda[1], P_c[MeV/fm^3], rho_c[fm^-3]
0.24162668629717493 15.618656898711224 2160425.4255784233 3.5677272577965504 0.1711233750220791
0.2536443985452893 15.277261558101213 1723186.0383548597 3.7848269789815396 0.1738882649537456
0.266040721776658 14.981233149237637 1383001.4031801783 4.011416985796917 0.17666684844635727
0.27881584405468435 14.723499989783761 1116395.267847027 4.247753141329143 0.1794578033309536
0.29197138469833395 14.498398744629702 905857.7632070984 4.49446070506631 0.18226769721537137
0.3055079865660715 14.30115675708364 738565.9714459055 4.751695250144718 0.1850922357367707
0.3194236521661892 14.12809953092307 605084.5124969 5.020139149400508 0.187938039577091
0.3337241684372744 13.975861150370298 497673.90753795626 5.300016302303298 0.19080172868607545
0.348403879664584 13.842003358809151 410991.80338712985 5.592055551838948 0.1936896042359326
0.3634672080994211 13.72396267510713 340634.0683165426 5.896423902450013 0.1965967240996952
0.37892132470173084 13.619980347272266 283283.47003653116 6.213985569561992 0.1995307717826554
0.39475231583437675 13.528465134195296 236400.12359672668 6.544997731481816 0.20248792133980492
0.4109792118555698 13.447870525732672 197857.77802742933 6.890163298017472 0.20547189250859674
0.42758720096700026 13.37707405970612 166074.25177896986 7.250187192739865 0.2084857552980836
0.44458383063640045 13.314900820549399 139793.25112171003 7.625328143114795 0.21152505231634466
0.4619653926634777 13.260552696809917 117975.00872375962 8.016535669240817 0.21459595326892542
0.4797308102125605 13.213146312833251 99803.68020500598 8.424514610025682 0.21770010205083543
0.4978889905293948 13.171960742283103 84638.70061836485 8.84970561010656 0.22083496316719903
0.5164273796141529 13.13639222842794 71934.80537199504 9.292982443607546 0.22400395086498157
0.535346694584078 13.10582920816319 61271.37790607357 9.755229807696022 0.2272099818200869
0.5546539077484229 13.079801160910149 52302.397434591054 10.237257372138984 0.2304544070997033
0.5743368572544354 13.057837147764648 44324.89370624607 10.739535708944642 0.233733915416729
0.5943945356652746 13.039511682279032 38323.583393568755 11.263310773627097 0.2370547103163942
0.6148315347685237 13.02451236458159 32897.93469991203 11.809519703001305 0.24041839990662853
0.6356374822203213 13.012439687647731 28290.234658357003 12.379141612572337 0.2438266173356762
0.6568081728027406 13.003008961037711 24368.782117437167 12.972864845208521 0.2472773053226979
0.6783406285035526 12.995972706636422 21026.070283079265 13.592017598707862 0.250775264668397
0.7002297211493848 12.991062021003183 18171.05106450666 14.237797050444238 0.2543231253428454
0.7224642036005692 12.987999854083656 15728.234812804038 14.91139303214958 0.25792287224169674
0.7450528017608041 12.986654237936333 13632.743101466373 15.613833273369979 0.2615743819344621
0.7679738451556443 12.98676214879674 11835.049697886445 16.3463879769394 0.26527958914167343
0.7912201654085015 12.98814119161043 10219.24763855529 17.11067146744088 0.2690431656834318
0.814795246982623 12.990657750964841 8955.349525699903 17.908138979700745 0.27286754451069845
0.8386788158622308 12.994132242763405 7806.711677650505 18.740150443194157 0.2767537578082418
0.8628588107401175 12.998401639476729 6813.461084568457 19.608061271050023 0.28070238375807416
0.887340296888324 13.00335493531128 5954.845916292882 20.513952291341127 0.2847197356926498
0.912097023030759 13.008847199501483 5210.581757692649 21.459617875886394 0.2888088274446171
0.9371174977982446 13.01474496120988 4564.687348414399 22.446535163368388 0.2929695237162293
0.9624022583018792 13.020949403107993 4004.08173828312 23.476743799890063 0.29720573750728363
0.9879236968464605 13.027339508010376 3516.1872679650637 24.55265962667065 0.30152351418177425
1.0136661754431233 13.03379278011214 3091.6803190893024 25.67621641339909 0.3059244210623489
1.0396314032171803 13.040252716542367 2721.144046644743 26.849392828242394 0.31040984620651535
1.0657818363043667 13.046587378294138 2397.8969034880824 28.07527770488846 0.3149884627719504
1.092114572288945 13.052703127641728 2115.5293462825707 29.35591500202474 0.31966063944716283
1.1186106363177404 13.05855688471273 1868.2982718716717 30.694082967201744 0.3244312145716886
1.1452455083508877 13.064005360911771 1651.868257796468 32.093158921637446 0.32930809272013833
1.172009164797525 13.06900949540175 1461.8767558803688 33.555107063436715 0.33428912086884455
1.1988660376326852 13.073465296078203 1295.2269837400288 35.08445925383655 0.3393877938082442
1.2258122161526037 13.077332709523459 1148.9119567714038 36.68322535352095 0.3446007902754974
1.252808443067407 13.080497857434352 1020.0334259611955 38.356471467136025 0.3499426321291518
1.2798534576494243 13.082935014759926 902.7413483845241 40.10645143995194 0.3554099784445535
1.3068954349263577 13.084523199272125 803.2710033409306 41.9386111784857 0.3610172397686477
1.3339308361114366 13.085237480423961 718.4820203678428 43.856458893977 0.3667664824065634
1.3609411361014296 13.085034353662175 640.5194118188343 45.8646617592847 0.37266534051572464
1.3878738970600213 13.083775100848845 571.720955560202 47.968564256112636 0.37872383242373087
1.4147302143223013 13.08147940073407 510.73150228425715 50.17293536105034 0.38494767054850687
1.4414544282121766 13.078026787097569 456.81413471180906 52.482972507990496 0.39134370845991295
1.4680485828386483 13.073427517449938 408.9456168168534 54.90510368535575 0.3979236969701889
1.4944583569159111 13.067561612088232 366.47650732245154 57.44551926050265 0.4046966979402514
1.5206711594300588 13.060413001611176 328.7913535171524 60.11084775461246 0.4116724833872036
1.5466544066847034 13.051927659762084 295.24754014549546 62.90819528638131 0.41886159395790806
1.5723703783713026 13.042045114240691 265.4197197024173 65.84518879227029 0.4262754021767248
1.5977956117760328 13.030714972733096 238.88871837078875 68.93002340670752 0.4339261810262072
1.6228815163207733 13.017891123246843 215.1977587766877 72.17151443330965 0.4418271784880216
1.6476334807803872 13.003550309839552 194.0607474455391 75.57915439222076 0.4499926987471376
1.671982958895484 12.987618396372486 175.20318082491022 79.16285269009995 0.45843684203464075
1.695920073351018 12.9700646772996 158.34245190878747 82.93286016753778 0.46717312532322125
1.7194009352921493 12.950849655549435 143.25869792684682 86.90188741042766 0.4762229807165936
1.7423825401636865 12.92991137840171 129.75695489621523 91.08148812019796 0.4856006507128419
1.7648642723303736 12.90726119432661 117.65937111354242 95.48580394048446 0.4953282596188897
1.7867917699770068 12.88282265238066 106.80831814727958 100.12845415807605 0.505423132752325
1.8081296934473277 12.856561550897306 97.06630987657135 105.02599157521125 0.5159110741311189
1.828839225576783 12.828425840432102 88.31617924970813 110.19495960624712 0.5268146245008852
1.8489189322774342 12.79845758503145 80.45248597171569 115.65302767429004 0.5381572926801734
1.868295150940616 12.766516835891284 73.37726754280276 121.42033887746291 0.5499681614984906
1.8869732903887406 12.732694482321412 66.99771264953795 127.51833162576938 0.5622770835062412
1.9048964513289481 12.696876887016067 61.248333636726485 133.96947264538434 0.5751134436257856
1.9220359622284957 12.659059380145509 56.06565844552596 140.79945762271828 0.588513573779293
1.9383497584215763 12.61916952085322 51.38209128883766 148.03596008289924 0.6025157162268139
1.9538462420318616 12.577321804994877 47.157301885368526 155.70745562070155 0.6171555464463988
1.9684609095380556 12.533391426607306 43.330665293507224 163.84762097452213 0.6324807578219832
1.9821762711194197 12.487387759787236 39.87345366603378 172.4902735031672 0.6485330482248942
1.9949654067506264 12.439310611384775 36.73961571662902 181.67463638533368 0.6653653482040788
2.006801806644928 12.38914717253508 33.89807862154923 191.4427559920141 0.6830322084690039
2.0176466017486634 12.336871682942828 31.323345446035802 201.84067403543742 0.7015928723500481
2.027483808904349 12.282484135732915 28.98771513103385 212.9183026358592 0.7211098764842684
2.0362921657370463 12.226018908569465 26.866102088125725 224.73122607538468 0.7416538527873225
2.0440361647351857 12.167419510209964 24.93902912818011 237.34052682321897 0.7633016471598256
2.0506950727264046 12.106710739886562 23.184542482119568 250.81312782366882 0.786136016880325
2.056267170623653 12.043962507748784 21.590384825918203 265.2222161660461 0.8102453779574345
2.0607128001709554 11.979111049930351 20.13917214280003 280.6493452378306 0.8357287811182431
2.0640170716286708 11.91221364255191 18.819138275982905 297.1844566958842 0.8626938486492609
2.0661779375288654 11.843309937033359 17.616588658999536 314.92789985820485 0.8912609328994839
2.0671688687119305 11.772413867262268 16.521630755838032 333.9890302012169 0.9215556774855642
