M[M_sun], R[km], Lambda[1], P_c[MeV/fm^3], rho_c[fm^-3]
0.24162668629717493 15.618656898711224 2160425.4255784233 3.5677272577965504 0.1711233750220791
0.2536383977921771 15.277423838444038 1723247.0706076738 3.7847303004139112 0.17388705990203937
0.26602947289367523 14.981485895975108 1383234.469558242 4.0112137510487305 0.17666439247436638
0.27879815015936504 14.72387554393503 1116699.6525572338 4.247436477633523 0.17945413050928644
0.2919483097712863 14.498734931792653 906180.1203598996 4.494022306010971 0.18226281554014306
0.30547674300973265 14.30160280788578 738941.2949117649 4.751120233633659 0.18508602446101577
0.3193879943292365 14.128482837383727 605341.6787837174 5.019423282974405 0.1879306121866211
0.33367799872438786 13.976359522575232 497967.9142018307 5.299140743413482 0.19079291326086992
0.34835266686096034 13.842420770399343 411256.74231398455 5.591018117782971 0.19367956677605275
0.3634086077540203 13.724352139451494 340878.73643551994 5.895201290921351 0.19658524107348582
0.37885321000136996 13.620389398088756 283517.5388870531 6.212562990170226 0.1995177995714996
0.39467546510128565 13.528871850831836 236604.75538813302 6.543376664562906 0.20247370677288024
0.4108928090832798 13.448243601251102 198040.651326003 6.888312455755543 0.20545612995921833
0.4274917041452428 13.377413480019236 166245.6364300214 7.248089213065934 0.2084683992499073
0.4444781251803581 13.315262686945697 139941.84721424754 7.622988827695354 0.21150642986143103
0.46185073378833824 13.260869957465701 118097.38980204545 8.013914223855128 0.21457567426951957
0.47960462427971845 13.213450427398296 99918.63990675956 8.421590600295886 0.217678117585358
0.49775264225131394 13.172248885936503 84742.3084040301 8.8464898198258 0.22081167947156485
0.5162794210925608 13.136650510830021 72032.04739058319 9.289422843210966 0.22397889105627444
0.535186501922966 13.106090473050868 61356.14379164321 9.751302270913898 0.22718309182431012
0.5544845145538305 13.080020304946647 52370.85210256328 10.23293630707706 0.23042563049204381
0.5741529873941554 13.058015789886152 44789.78785116044 10.734839891873426 0.2337037668165497
0.5942032896951934 13.039679704944506 38381.1496670444 11.258169603510126 0.23702258819246722
0.6146245684865317 13.024633089844059 32671.992343138576 11.80390281954654 0.24038423988366045
0.6354149236351855 13.012552294332034 28334.924989166757 12.373016761866742 0.24379035164016627
0.6565701523099503 13.00308949382504 24410.615235449015 12.966260152790005 0.24723955560921523
0.6780934437330706 12.996042407475533 21061.770719092165 13.584839301086667 0.2507352978304232
0.6999690682660931 12.991108247396399 18201.925155005523 14.230006673384436 0.2542808621670865
0.7221896969016871 12.988023214725914 15755.37453771653 14.902949629983015 0.2578782287916776
0.7447642717996381 12.986658465416365 13657.580492995186 15.604775631731185 0.2615280852785757
0.7676713124432093 12.986748230474479 11856.504151675892 16.33659347119917 0.26523076598710527
0.7909018842571433 12.988114480112298 10307.220813068578 17.100090960124696 0.26899171625921353
0.8144636095827158 12.990627886037764 8973.05348189777 17.896720076375722 0.27281336263091194
0.8383304457294136 12.99407626589247 7821.3390444428005 18.727943783672178 0.2766976745236336
0.8624976682723436 12.998338888343305 6827.57984596119 19.594908187762005 0.2806433741685764
0.8869583171494757 13.00328193851265 5967.000777145637 20.49978950416034 0.2846576721632487
0.9117050425001874 13.00876003698471 5221.315793990907 21.444377772480546 0.2887435737351689
0.9367106219089771 13.014651502898523 4574.703493932004 22.430281215923696 0.29290201407213834
0.96197499657048 13.02083556301159 4012.591901944383 23.459272100586983 0.29713477974506614
0.9874860630810571 13.027226932127318 3523.927609787106 24.533887971954186 0.30144894330890865
1.0132157512022106 13.033691186733364 3098.434373104633 25.656217449079207 0.3058472412074554
1.039164052178222 13.04013299376126 2727.3814926743694 26.827922148954148 0.3103287338463798
1.065304222419663 13.046474728071505 2403.4096331883034 28.052234850066863 0.31490321723216413
1.0916181213556306 13.052596918649256 2120.3863000446254 29.33138161823876 0.3195723343291077
1.1181031417027552 13.05843716764665 1872.676392979044 30.66776626002682 0.32433838068184895
1.1447202008554733 13.063896985577646 1655.9022376359617 32.06505358413607 0.3292112489853587
1.1714708875096485 13.068912849088154 1465.4927655000567 33.52506697022647 0.3341878826574628
1.1983180228085228 13.073394162591809 1298.4547165332651 35.052251511560094 0.3392812915360746
1.2252458119992524 13.07725983451799 1151.766616373301 36.648943397329994 0.3444902019915581
1.2522298422085707 13.080439608038551 1022.6169490226729 38.31974407012087 0.3498263499635951
1.2792596735429695 13.082894590696169 908.92586960086 40.06732828541415 0.35528894447461506
1.3062934341584336 13.084498092443683 808.7817392002671 41.89695365729967 0.3608913027710155
1.3333172987584476 13.085230150609666 720.3216781018459 43.811800159347214 0.36663373355144685
1.3603166337382582 13.085048697502572 642.2831939767291 45.81709535205702 0.37252702386491454
1.3872386675150632 13.083816268273202 573.2159193448585 47.917887094239134 0.3785795888620951
1.4140785344673856 13.08153119967211 512.1375441026739 50.11859200837566 0.38479539448555117
1.4408086395706645 13.078144742698433 458.0418386890549 52.425049199036344 0.3911846727555133
1.4673886628681805 13.073561445104392 410.07763406125616 54.843344058464965 0.39775745116182565
1.4937917275937207 13.067725271482546 367.50193432290047 57.379646194107075 0.4045227567520987
1.519996764264212 13.060619094302224 329.6927607923098 60.04056150911166 0.4114903238722306
1.5459761524635673 13.052166879835854 296.06668925303165 62.83317146067304 0.41867065235682194
1.5716891878789514 13.042325162608215 266.1790926816787 65.7650760742962 0.4260750704633791
1.5971043378563903 13.031033467353634 239.553218922405 68.84444109487285 0.43371580310554425
1.622197570535403 13.018258218417749 215.81555905571525 72.08004970278513 0.4416060460085537
1.6469472050549994 13.003972633641318 194.62830832919065 75.48135927691855 0.4497600464854131
1.6713013798281027 12.988092064620998 175.7113744439304 79.05856374728072 0.45819319161600025
1.695223397187055 12.970572849051807 158.80736082530603 82.82143697758048 0.4669170751572163
1.7187018721399985 12.951402212796431 143.68538932192547 86.78256934717014 0.4759527840089194
1.7417185218964535 12.930579019620453 130.15064891406817 90.95422550676962 0.48531753824164797
1.7641995402999446 12.907980151595835 118.00883822984969 95.34937149887897 0.4950288963781234
1.7861296706234586 12.883599703622531 107.127609876087 99.9827331138963 0.5051086730609137
1.8074761709572942 12.857405147218124 97.3513088673442 104.87022668591858 0.5155803070622099
1.8282064435622827 12.829361439944835 88.5788158792969 110.02780484054433 0.5264642959984166
1.8482892953886112 12.799442607153614 80.69243775014623 115.47394799338771 0.5377873758550763
1.867688462594786 12.767608924719758 73.59286566747245 121.2284863229413 0.5495776200036023
1.886367364583091 12.733812412765875 67.19676613697662 127.31265101737436 0.5618643175789609
1.9043117992878165 12.69810113458793 61.42959086912494 133.74949895010087 0.5746791472500699
1.921461937697131 12.660332930924882 56.23152926700459 140.5631941921479 0.5880532427701002
1.937806962366178 12.620557626891513 51.5358187488416 147.78199291444773 0.6020271977426428
1.9533260612545804 12.57880619930834 47.29514306681258 155.43506757069798 0.6166393438252138
1.9679657215112119 12.53496169707456 43.46230839532188 163.5545106073521 0.6319322360883572
1.9817078693103967 12.489056110333113 39.99028663222274 172.17505329369322 0.6479510285735652
1.9945224882518369 12.441064338726434 36.847544178518035 181.3355124799397 0.6647476293081844
2.0063830030040526 12.390989767607747 33.9955413418107 191.07752755560531 0.6823756329286156
2.0172731291682675 12.338847899740234 31.416404877542302 201.44691337869745 0.7008939860256206
2.0271323493136313 12.284532683728743 29.071088594541315 212.49412368985557 0.7203674993221953
2.0359674126806135 12.228138800352898 26.941563975275383 224.27310194500515 0.7408619743215727
2.0437609315301994 12.169687695114822 25.007829779313433 236.84602960209907 0.7624584839725277
2.0504626756354387 12.109107450857257 23.247848564829035 250.27775279152823 0.7852337125512551
2.0560643438053456 12.046420564719 21.64907826918229 264.64277251898824 0.8092811500637638
2.0605592859909128 11.981698493657811 20.194652343636935 280.0219451167472 0.8346984763894437
2.0639137037862114 11.914926469467183 18.869170171273996 296.50460901422446 0.8615923735891066
2.066112266973537 11.846118288243902 17.662260216442103 314.1893975396736 0.8900787359397423
2.067152283624184 11.775338308828555 16.564730040879823 333.1870057170874 0.9202889438781454
