M[M_sun], R[km], Lambda[1], P_c[MeV/fm^3], rho_c[fm^-3]
0.24162668629717493 15.618656898711224 2160425.4255784233 3.5677272577965504 0.1711233750220791
0.25363972131012297 15.277422936679969 1723219.1946093433 3.784758895170831 0.1738874163218898
0.26603272130390265 14.981429476348502 1383208.5120761762 4.011273861311026 0.1766651188714116
0.27880393212345955 14.72372298760183 1116659.495928481 4.247530135353639 0.1794552167977006
0.2919548646595964 14.498633677319921 906118.4280637085 4.494151967109909 0.1822642593465725
0.3054857608900093 14.30147517628726 738853.8046216115 4.751290298700148 0.18508786148830791
0.3193964256985627 14.128445460458295 605264.2815827641 5.019635002928095 0.18793280886285704
0.3336915951216543 13.97620651801467 497862.6046694214 5.299399689886493 0.19079552042218326
0.3483669228448471 13.842268484112067 411165.31966530485 5.5913249354263295 0.19368253532115487
0.3634249532823966 13.724267406915784 340811.1526867 5.895562869985401 0.19658863710057367
0.3788723135846792 13.620289894165785 283450.2791455567 6.212983703527013 0.19952163597074163
0.3946993294661664 13.52873112454456 236526.45580184206 6.54385607353957 0.20247791054195577
0.410919152043326 13.448115683688059 197993.3134748662 6.888859811552364 0.205460791470873
0.42751968592635065 13.377310568120091 166194.7834280354 7.248709648675206 0.20847353195469878
0.4445094621299399 13.315176120988376 139899.82764948494 7.623680626581166 0.21151193702538731
0.4618838273648488 13.260786963159587 118063.51666102916 8.014689447649674 0.2145816712523119
0.47964150348071743 13.213361400957174 99881.34072414723 8.422455290065901 0.21768461884361437
0.49779264746414825 13.172166225397286 84708.20103131123 8.847440785918065 0.2208185648723894
0.5163235086897798 13.136567775726238 71997.5866695299 9.2904754686242 0.22398630160480715
0.5352337868627031 13.10600519715305 61328.001176935184 9.752463687892913 0.2271910434997223
0.5545329877753723 13.079970896196192 52347.411028997725 10.234214081037118 0.23043413996815656
0.5742064348119745 13.057951198351466 44770.32765910033 10.736228470188077 0.2337126819194575
0.5942586163327184 13.039649702422091 38363.62836496774 11.2596898588693 0.23703208677546234
0.6146860308617692 13.02460177080872 32934.1966398244 11.805563726667103 0.2403943409701158
0.6354800451106494 13.01249675327134 28322.820882329605 12.374827855110276 0.24380107525764974
0.656643801811521 13.00307764641996 24396.99857195002 12.96821311574144 0.2472507179445955
0.6781668443333762 12.99602699374108 21050.79656286762 13.586961852692813 0.2507471156291006
0.7000457034409985 12.99108853302304 18193.01883666498 14.232310186353816 0.25429335883736837
0.7222706071793074 12.988024731796866 15747.111916397522 14.905446207405593 0.25789142913760277
0.7448497924089935 12.986655554167509 13650.247503992987 15.607453806253806 0.26154177433023196
0.7677600542329812 12.986757864744217 11849.364769998025 16.339489491782306 0.26524520192336515
0.790996508521215 12.98812525727847 10232.958319565074 17.103219350749853 0.26900692856346176
0.814561297895902 12.990639878499213 8968.349080978796 17.90009632350771 0.27282938268214
0.8384342924636695 12.99409989331985 7816.956048247647 18.731552916463052 0.2767142566213922
0.8626053362672501 12.998358616457908 6823.427139755538 19.59879710700528 0.2806608212966079
0.8870733738375199 13.003286961373595 5927.347686856042 20.5039769131701 0.28467602203879755
0.9118216347887093 13.008784218167733 5218.103395841685 21.448883654741685 0.2887628666181662
0.9368312634992108 13.014674346686228 4571.54349186006 22.435086808429784 0.2929219737675192
0.9620996372504331 13.020867808312756 4010.0803911833705 23.46443767307422 0.29715575866977795
0.9876134910311244 13.027266214364955 3521.4983078666423 24.5394378195521 0.30147099021877877
1.013352235601217 13.033725489118552 3096.6508767202386 25.662130098224225 0.30587005925921795
1.039301537097906 13.040168139905123 2725.4905427578115 26.83426983598568 0.31035271426495986
1.0654463466547037 13.046511736142461 2401.803256486236 28.0590472647524 0.31492841931635085
1.091765184576787 13.052629740309785 2118.8523919164954 29.338634627848535 0.31959844071033233
1.1182537644844184 13.05846917670648 1871.4597885152305 30.675546398566148 0.32436582562468685
1.1448758728624748 13.063932988458014 1654.62067893651 32.07339732442573 0.3292401048850752
1.1716300895290848 13.06894338745453 1464.3820527464336 33.533947683732436 0.3342178115776178
1.1984763542326546 13.073405829702608 1297.5143571469805 35.061772930637275 0.3393127762877003
1.2254136302797032 13.077282020469442 1150.8908782391195 36.6590779074626 0.3445228943524575
1.252401554939012 13.08045215058576 1021.9395428303432 38.330608186172036 0.34986076510159414
1.2794351297105753 13.082907739452224 908.224301789998 40.07889370410442 0.355324724016286
1.3064709669043308 13.084510211293264 808.1009322309307 41.90926814897566 0.36092853134498937
1.3334999799786098 13.085228931810363 719.8452734373117 43.82500167973088 0.3666729752973507
1.360501089095831 13.085042513500511 641.7835242365261 45.831156258066414 0.3725679110695602
1.3874266184983148 13.08380241239268 572.8121113863166 47.932867396420924 0.3786222276378512
1.4142753711705367 13.081527691388821 511.7214399839905 50.13465583228611 0.3848404070904182
1.441001063205022 13.078117888166817 457.66599959799333 52.44217106226752 0.39123168297693833
1.4675833584412987 13.0735228512069 409.74332407028174 54.86159971171889 0.39780659209717756
1.4939878882810569 13.06767635463273 367.189250327401 57.39911752089396 0.4045741717825738
1.5201962174284736 13.060559094572513 329.4277291905999 60.06133707452813 0.4115441675068221
1.546176076484695 13.052096281249858 295.8310038196927 62.855347114906806 0.41872709115988954
1.571890623582062 13.042243324604902 265.9781382705074 65.78875561694889 0.4261342840747859
1.5973064380042545 13.030934289178342 239.35567377566684 68.86973700693265 0.43377798536337686
1.6223991609771187 13.01815427033468 215.62638296976334 72.10708395392012 0.4416714061856379
1.6471495567807517 13.00384872050606 194.4628393778847 75.51026421671418 0.44982881065218855
1.6715046095331156 12.987952589638558 175.56694529825367 79.08948309011949 0.4582656041438395
1.6954390911577584 12.970440102247382 158.67264993955004 82.85436908282115 0.46699275303914556
1.71890304494663 12.951228247012066 143.56031108202276 86.81783434682615 0.4760326418824303
1.741918119775354 12.930387650711511 130.03156004519545 90.99183808591044 0.48540121238554357
1.7643976748188102 12.907771056535095 117.907329699421 95.38969362169675 0.49511737211907814
1.7863253630388196 12.883369205613063 107.0259144623764 100.02579987858377 0.5052016092707106
1.8076683550283474 12.857149693922478 97.27095005402694 104.91626120261483 0.5156780614549065
1.8283978310981566 12.829095539444383 88.5060002146004 110.0772450034828 0.5265679798529802
1.8484745452204894 12.799148930085128 80.61704386733922 115.52687129366286 0.5378966971310178
1.86787102621606 12.767296599341421 73.52387173732475 121.285183526942 0.5496930347337404
1.8865510516403061 12.733503118467437 67.13555230245721 127.37344011581766 0.561986320814492
1.9044852162978918 12.697735422154587 61.37562685372808 133.81450472180285 0.5748074888275225
1.921640841640668 12.659980032019176 56.182507707047755 140.63301268155243 0.5881892757380899
1.9379747202345268 12.620176167256268 51.491201424487556 147.85704176777986 0.6021715579459405
1.9534723718908902 12.578339160447953 47.25486571280525 155.5155586324193 0.6167918824444446
1.968113089627783 12.534497298549102 43.42278967856636 163.64118377335907 0.6320945258738551
1.981847670038709 12.488564729647356 39.95479364618651 172.26819802272385 0.6481230101314863
1.9946521014019483 12.440544936501661 36.81281808104914 181.43571875689437 0.664930156431096
2.0065064416439102 12.390440862075868 33.96950348158943 191.18544536022472 0.6825696380602593
2.017380116587804 12.33824967670161 31.387859161154054 201.56325966694342 0.7011004892106423
2.027238825782312 12.28393459832331 29.047133559991092 212.61959455164904 0.7205873045620798
2.0360723663833276 12.227538474751091 26.919583077214675 224.40846075630967 0.7410959452493489
2.0438422244270673 12.169018890665628 24.987304957475704 236.99213243131766 0.7627076027175799
2.0505298622866843 12.108386661688527 23.231723352073207 250.4359705854518 0.7855004319884338
2.056123212352887 12.045685584125343 21.63148742972283 264.81396593046134 0.8095660258465825
2.0606044229945715 11.980933378084291 20.178481531482916 280.2074143439423 0.8350032313152208
2.063946232218369 11.914127429947666 18.854648401825706 296.70545736989266 0.8619177839135214
2.0661325474066508 11.845288416632187 17.61566378179194 314.40756904264475 0.890427985604967
2.067156848133916 11.774476110370099 16.55163598534123 333.42393756420233 0.9206631588046811
