M[M_sun], R[km], Lambda[1], P_c[MeV/fm^3], rho_c[fm^-3]
0.24162668629717493 15.618656898711224 2160425.4255784233 3.5677272577965504 0.1711233750220791
0.25363732880104045 15.277451578939722 1723256.2401377512 3.7847121746400902 0.17388683397301286
0.26602682842666864 14.981583390562303 1383306.349748324 4.01117564841751 0.17666393202655473
0.2787958021811547 14.723885892986463 1116788.9154753005 4.247377110476422 0.17945344193972845
0.2919434358531083 14.498844947842946 906274.290628983 4.493940117939718 0.1822619003568948
0.30547320506868125 14.301607398282853 739041.8112605896 4.751012435665868 0.1850848600372281
0.31937949992358916 14.128626449471103 605404.286000187 5.019289082571965 0.1879292198056492
0.33366721549514006 13.976503626495917 498037.3643689238 5.298976609437884 0.19079126070408317
0.3483422015685697 13.84247863222512 411287.5388076741 5.590823642004301 0.19367768516939568
0.363395985861878 13.724475694614888 340927.71204769966 5.89497210654541 0.1965830885253264
0.3788405211172605 13.62046677949146 283552.4830143067 6.212296326041518 0.1995153679157303
0.3946622300484632 13.52891374809677 236632.63350945248 6.543072799110986 0.202471042283369
0.4108778067193147 13.448310185662633 198075.0856942205 6.887965526023336 0.20545317536003546
0.427473692639473 13.3774911050974 166270.14437727304 7.247695966290624 0.20846514602011568
0.4444597470768175 13.315332604628345 139974.07250495907 7.622550352209731 0.21150293931462666
0.4618282543787068 13.26094753147073 118122.23136893971 8.013422875774028 0.21457187329487437
0.479581014600522 13.213513366387005 99941.34462782102 8.421042551514613 0.21767399702468096
0.4977262027602677 13.172312189904192 84756.64246410894 8.845887092266162 0.22080731546650742
0.5162525005686216 13.13669184447779 72047.18460631814 9.28875568837585 0.22397419424464296
0.5351572564788479 13.10611010188793 61367.83878868554 9.750566169355865 0.22717805208340258
0.5544517871878979 13.080044972383385 52384.73715206682 10.232126464907457 0.23042023725911473
0.5741181369598548 13.058041439849587 44802.22271153851 10.733959828442977 0.23369811653671668
0.5941660174116824 13.03971656286016 38391.584798452044 11.257206091890968 0.2370165681544347
0.6145859231740375 13.024678620965771 32958.06806754275 11.802850172973708 0.24037783803619558
0.6353730287236168 13.012551174054337 28342.3698036082 12.371868939013858 0.24378355529588247
0.656525695587006 13.003118859638915 24419.48063055132 12.965022424296958 0.24723248126070343
0.6780475950895859 12.996066498924572 21069.142930744445 13.583494102260396 0.25072780812375883
0.6999205300491094 12.991104206539811 18208.16760351687 14.228546798227738 0.25427294227311215
0.722136826590815 12.988035587224292 15759.860432801897 14.901367409780725 0.2578698629970457
0.7447094280519002 12.986655660829154 13661.614611028399 15.60307833357853 0.2615194098162817
0.7676141045003977 12.986750807132179 11860.651862722636 16.334758126091895 0.26522161725206594
0.7908432369744473 12.988104617063565 10311.16423534251 17.09810836565581 0.26898207557367415
0.8144008719592007 12.990618859405824 8976.522986592585 17.894580420396487 0.2728032101162832
0.8382663792386095 12.994071745580463 7824.524235583175 18.725656552944795 0.27668716588188624
0.8624324362670948 12.998309932367023 6830.296741783169 19.592443665004197 0.28063231740925526
0.8868890265680229 13.003262513188671 5969.583176226466 20.497135839341272 0.28464604339255434
0.9116299823276918 13.008747244700302 5223.337008339942 21.44152230459806 0.28873134744860246
0.936634066971351 13.014640928294561 4576.509568738499 22.427235834099946 0.29288936528981996
0.9618943329415715 13.020817242995168 4014.680116981741 23.455998618315157 0.2971214851609139
0.9874043838144743 13.027207694193685 3525.3576007615293 24.530370996894746 0.3014349720365839
1.0131317088544824 13.033660325261849 3099.7430347693635 25.652470587344364 0.3058327813464158
1.0390762160992826 13.04011318131203 2728.516807198386 26.82389963355179 0.3103135375075222
1.0652140722150998 13.046446662453931 2404.4757461119466 28.047917871367158 0.3148872468507877
1.0915251463601405 13.05257537562048 2121.324200275092 29.326785466653924 0.3195557910054538
1.1180071371389027 13.058416037360198 1873.6277498782067 30.662836111767554 0.32432098926439873
1.1446234157903463 13.063870618280774 1656.5975047059935 32.05976633291152 0.3291929636138329
1.1713695077911692 13.068900705629579 1466.150354589759 33.51943948711909 0.33416891745917315
1.1982138205392563 13.073381465027474 1299.0638341261438 35.0462180789792 0.33926134061019686
1.2251406491214591 13.077246656018504 1152.3198701140154 36.64252151059122 0.34446948597902555
1.2521223741976846 13.08042911789931 1023.1120575304855 38.312859915234625 0.34980454247007225
1.2791509073005516 13.082882407934479 909.462777083573 40.05999979359567 0.3552662725692196
1.3061798428090592 13.084491691361928 809.2147999465222 41.88915056579691 0.3608677128432395
1.3332031011242322 13.085229983724178 720.6985344597415 43.803435074138385 0.36660886819210275
1.3601993680746458 13.085051191667239 642.6079306932725 45.808185785394215 0.3725011160553323
1.3871195322921246 13.083824007942528 573.478198987517 47.90839503040091 0.3785525713843066
1.4139569247130481 13.081544071008684 512.427927041749 50.10841347874658 0.3847668731238333
1.440685799967946 13.078160497522134 458.2703754371397 52.41420034639335 0.39115488587086944
1.467260383188843 13.073573475974088 410.3184351891233 54.831776897650904 0.3977263144452227
1.4936661175276955 13.067753724813482 367.6828292309828 57.36730885567837 0.4044901793813711
1.5198706795456265 13.060657642354785 329.88134852575416 60.02739789182414 0.4114562079776726
1.5458493394878392 13.052210587357207 296.24033327082134 62.81912084931788 0.4186348924338499
1.5715603501185949 13.042379281770378 266.3146922184374 65.7500727190312 0.426037552726593
1.5969765697798213 13.031093200679631 239.6858427907297 68.82841374772292 0.43367640477784236
1.6220690076739912 13.018330358350337 215.92959063725527 72.0629211064565 0.4415646345382062
1.6468175298649235 13.004050135720345 194.72686850909437 75.46304560046936 0.4497164786831438
1.671173050735155 12.988181070899582 175.80898326756284 79.03897396250738 0.45814731270315723
1.695096564820523 12.97067531977628 158.8991665022579 82.80057212020938 0.46686912777574585
1.718592240110872 12.951549698659168 143.7518469926327 86.7602266527491 0.4759021887988705
1.7415911327832967 12.930700994641557 130.21976789936406 90.93039567009801 0.4852645256265012
1.7640738511002192 12.908112601174171 118.07471734010693 95.32382526671535 0.49497284224055993
1.786005824605992 12.883743089704383 107.1865879909875 99.95544825187831 0.5050497935123991
1.8073411764060745 12.857537695763764 97.4090255621495 104.8410618848239 0.5155183755459535
1.8280877804456317 12.829534590861886 88.63162638531536 109.99648276895927 0.5263986086518982
1.8481705213309085 12.799628317091319 80.73332251556263 115.44041956823607 0.537718117698483
1.8675722437170172 12.767808068026529 73.63112978225881 121.19256739326167 0.5495045022255939
1.8862612177158324 12.734051218113887 67.23365688678236 127.2741401936112 0.5617870266629515
1.9041910020554704 12.698296072100812 61.466675061736915 133.70826036853734 0.574597641051157
1.9213567004368761 12.660578299499923 56.2638971300964 140.5189640431379 0.5879670656199532
1.9377046961881983 12.620816294474851 51.56406230641179 147.7344498794875 0.6019357463494833
1.9532213124512001 12.57905530012149 47.323851028688765 155.38407748042007 0.6165427124999572
1.9678781493549005 12.535272762199046 43.48509909500194 163.49960492016143 0.6318294288112344
1.9816217390705104 12.489372203012936 40.01175066647895 172.11604869408012 0.6478420830318091
1.9944544405223643 12.441437894444972 36.86518428435742 181.2720353582068 0.6646320048507878
2.006306484358934 12.391338535747572 34.01612369616431 191.00916631836856 0.6822527391125653
2.0171908776828977 12.339186196748624 31.433215334959023 201.37321402980294 0.7007631769511742
2.0270663769360784 12.28491894653048 29.086669858035645 212.4145848370369 0.7202280672733198
2.0359217260933438 12.228581466185336 26.95749755361383 224.18736142746317 0.7407137697958093
2.0437100846107237 12.170110885969606 25.0219774044988 236.75330836664742 0.7623001116015178
2.0504146210606278 12.109533216915278 23.262590543769026 250.17753555780484 0.7850647689481909
2.056028143581419 12.04688568660984 21.660658916050945 264.53433795235753 0.8091007086449747
2.0605240847240487 11.982167992616793 20.205081553897593 279.90446999108394 0.8345054463987354
2.06388670996342 11.915418100834508 18.878438245995877 296.3773947430391 0.8613862636753913
2.0660998967922413 11.846643946848268 17.670901603186756 314.0512133422831 0.8898575302184599
2.0671471402470014 11.77588296162016 16.571555501496388 333.03694165261925 0.9200519296753509
