M[M_sun], R[km], Lambda[1], P_c[MeV/fm^3], rho_c[fm^-3]
0.24162668629717493 15.618656898711224 2160425.4255784233 3.5677272577965504 0.1711233750220791
0.2536414304431546 15.277374617807261 1723156.005974818 3.784795529910799 0.17388787295625036
0.26603781868566484 14.981276039268115 1383026.465677925 4.01135087370737 0.1766660495207718
0.2788106905058968 14.723586263015868 1116524.9197858386 4.247650129683576 0.17945660855110027
0.2919630217585026 14.498549797514102 906043.9679076961 4.4943180909034135 0.1822661091735685
0.3054978847105112 14.301307905637984 738740.0938339527 4.75150819122107 0.185090215143388
0.3194119738444032 14.128247730448855 605207.1609588559 5.019906267947172 0.18793562334212865
0.3337080784075884 13.976057995652324 497753.12696201896 5.299731467396809 0.1907988608711937
0.34838705557951605 13.842140260228888 411063.5123684614 5.59171805247675 0.19368633883676045
0.3634477796560131 13.72410218624243 340717.9062352475 5.8960261564960375 0.19659298838552344
0.37889947352361664 13.620120553938627 283359.7132706436 6.213522763979419 0.19952655155299653
0.3947271004977167 13.528603312932262 236456.47624094333 6.544470346940184 0.20248329688983643
0.4109512484328184 13.44799876980167 197918.12151473537 6.889561153747225 0.20546676439531128
0.4275560122261533 13.377171953140532 166116.29552903635 7.249504638613386 0.20848010870271888
0.4445497401259393 13.315016374077384 139846.94933619563 7.62456706578666 0.2115189936514416
0.46192778565099146 13.260670026379897 118011.03722430063 8.01568279419348 0.2145893555909144
0.47969001364320657 13.213275502829395 99844.11709143818 8.423563287063743 0.21769294943208675
0.49784426000790044 13.172058841030061 84672.1372334998 8.848659347024011 0.22082738777544755
0.5163791071824261 13.136476413399409 71962.31704159867 9.291824309263518 0.22399579752699836
0.5352952317585079 13.105898855728661 61298.72201967626 9.753951950120559 0.22720123293071587
0.5545966705488109 13.07989498315681 52320.68218592014 10.23585146226493 0.2304450442883893
0.5742764415633167 13.05792726432389 44345.978321094015 10.738007855505723 0.23372410612438135
0.5943295930390651 13.039579333643562 38343.952914413 11.261638000879604 0.23704425880199687
0.6147654569673494 13.024544974823206 32915.082559516646 11.807692129630254 0.2404072852112937
0.6355625168345016 13.012477398548647 28306.42986159423 12.377148740819312 0.24381481739414954
0.6567312297276026 13.003045573769334 24380.981225124568 12.970715826614567 0.24726502241366138
0.6782609969241747 12.996006087003195 21037.426738751517 13.589681918115911 0.2507622602246273
0.7001457442055367 12.991073595504059 18180.902540684598 14.235262185129875 0.2543093735748008
0.7223736663475673 12.988003483679941 15736.375414860653 14.90864565481377 0.2579083458220906
0.7449583738557397 12.986657381707298 13640.62815963839 15.610886005353949 0.26155931745536426
0.7678756129375043 12.98675867430164 11841.46872576194 16.343200908071168 0.2652637024027098
0.7911161844637522 12.988125517790813 10293.891276954842 17.10722860354696 0.26902642420216716
0.8146855546007888 12.990651568937434 8961.013285617935 17.904423266258082 0.2728499137160993
0.8385656466917716 12.99411903590172 7811.202016134894 18.736178360424617 0.2767355081431266
0.8627426505848658 12.998384448447837 6818.248619144538 19.60378117508257 0.28068318166678347
0.8872128705485895 13.003327505719579 5958.90470129176 20.509343583608494 0.284699539620774
0.9119701466257778 13.008815721489194 5183.53481165955 21.454658547340475 0.2887875930359405
0.9369852274811163 13.014716180866825 4567.80317420993 22.44124587200907 0.2929475550111885
0.9622601600297762 13.020911691855673 4007.0290485336404 23.471058172941937 0.2971826464868829
0.9877809959835548 13.027305486673741 3518.6441286772138 24.546550904392117 0.30149924712810827
1.013519714124487 13.033765596244283 3093.983207523608 25.669708240811776 0.30589930477093114
1.0394788687836087 13.040210955390059 2723.1590452826167 26.842405646885044 0.31038344989352584
1.0656297365491765 13.046547494874902 2399.747618842897 28.06777881055381 0.3149607211010374
1.0919538345993383 13.052669393316677 2117.172125849577 29.34793097080093 0.31963190183697726
1.118448141375239 13.058508627572731 1869.790463982919 30.68551848468492 0.32440100280464584
1.1450752768404489 13.063961677667095 1653.1184640204885 32.08404193899759 0.3292767676657745
1.171834101248204 13.068978054177544 1463.1158996197694 33.54533064766027 0.3342561733396873
1.1986850627372927 13.073444362827662 1296.2698189406901 35.07397726638901 0.33935313271742834
1.2256289281915367 13.077306494472388 1149.8048616767578 36.67206821046624 0.3445647990590915
1.252620302202432 13.080475649967704 1020.866137987724 38.344533853122506 0.3499048785616835
1.279658729936004 13.082920306811655 907.3682917925302 40.093718446036796 0.35537058681519845
1.3066992935223316 13.084518071914845 807.3352717712137 41.92505321902184 0.3609762520031666
1.3337333816279577 13.085230870851419 719.126381547964 43.841923975026326 0.36672327711053543
1.3607381507369383 13.08504046385933 641.0772025225859 45.84918033413379 0.37262032263437844
1.3876669579992587 13.08378635499149 572.2252422254833 47.952070204841846 0.3786768850294186
1.414521334595374 13.08150235087525 511.1925960591264 50.1552478379116 0.3848981081594668
1.441241541667379 13.078060176931205 457.18137779064097 52.46411958921267 0.3912919454085273
1.4678346370513684 13.073470010105254 409.32108813118083 54.88500189999103 0.3978695865792144
1.4942412743825908 13.067612470112586 366.8106446786643 57.42407837672476 0.4046400821941895
1.5204514427461557 13.060478728393624 329.0892920004616 60.08797017443388 0.41161319200125185
1.5464342865229181 13.052003911292747 295.5186270114651 62.883775379978914 0.41879944335464536
1.5721487820744147 13.04213532586524 265.6642118959402 65.81911216519288 0.4262101943606277
1.5975714924426796 13.030820953197939 239.10318552942152 68.90216609242411 0.4338577023449405
1.6226592970999218 13.018019242024495 215.40502112945248 72.14174200262653 0.44175519826811616
1.6474100373490255 13.003688976845362 194.24020736056775 75.54732097004752 0.4499169677901859
1.6717601995000364 12.987770966131336 175.3622928884764 79.12896607172331 0.45835778494165613
1.6956982019035127 12.970237410566106 158.48604249138663 82.89658977266787 0.4670897760614467
1.7191621991399817 12.951010309007142 143.40041644669031 86.86304654982074 0.47613502527738594
1.742167034114431 12.93012143158977 129.88858054177464 91.04006062584406 0.485508489786817
1.7646473578078896 12.907490988176287 117.76842204381313 95.44139077361305 0.4952308072137956
1.786576253052623 12.88307500434205 106.90741508079317 100.08101664833598 0.5053207646643241
1.807917467069463 12.85683658482101 97.16122937199509 104.97528376225313 0.5158033959840146
1.8286303098819081 12.82872168168549 88.40061373083147 110.14063505625077 0.5267009188366191
1.84871420519937 12.79877577762111 80.531625878572 115.59472822429139 0.5380368661340698
1.8681040796430244 12.766894398263794 73.43934492321124 121.35788031239534 0.5498410187485236
1.8867786556688413 12.733066848124349 67.0618188408276 127.45138466428313 0.5621427549013316
1.9047060743392072 12.697274111047541 61.30545051945066 133.89785706707116 0.5749720522377557
1.9218528898420397 12.659485150403095 56.11894412422686 140.72253746353678 0.5883637040579494
1.9381739998498324 12.619617782207506 51.434561249743986 147.95327476808123 0.6023566669099105
1.9536777743314875 12.577809745588276 47.202192337902645 155.6187715862836 0.6169874813237798
1.9683003321826364 12.533903464870878 43.373570534469664 163.75232593245298 0.6323026322346826
1.9820264191791632 12.487934198687196 39.91133429206143 172.38764070728436 0.6483435479889343
1.994822025965221 12.439881739813444 36.77350534557982 181.56421889058228 0.6651642212063638
2.006661824324748 12.389738241522828 33.93094119148747 191.3238368606061 0.6828184261202512
2.017523821688955 12.33750920653167 31.35300034479213 201.7124624076537 0.7013653093577662
2.0273700120426303 12.28315650772489 29.01425489310755 212.7802484156984 0.7208683588856187
2.036190438923776 12.226718523968946 26.890589891668284 224.5820516463635 0.7413960012354199
2.0439465053590378 12.168156123106161 24.96152292174912 237.17950553536704 0.7630270910723707
2.050618202875204 12.10748259236626 23.205890897807894 250.63888512002822 0.7858425000271512
2.0561970055871455 12.044747443004251 21.609381734666588 265.033526219886 0.8099313869243692
2.0606626489316624 11.979952789773057 20.156641077259643 280.44527951748495 0.8353940658409958
2.063986877965941 11.91310357913218 18.835347097167492 296.9630618379494 0.8623351493096291
2.066155930174227 11.84422264643491 17.63144389867039 314.68739834226034 0.8908759372754643
2.067163549705649 11.773365249765027 16.535283914742823 333.7278360296749 0.9211431421556568
