M[M_sun], R[km], Lambda[1], P_c[MeV/fm^3], rho_c[fm^-3]
0.24162668629717493 15.618656898711224 2160425.4255784233 3.5677272577965504 0.1711233750220791
0.2536335931005622 15.277542112659951 1723430.690239561 3.78462049500976 0.1738856912306485
0.26601633286087295 14.981801380909781 1383569.8423958754 4.010982930397334 0.1766616031430153
0.27877976510734526 14.724182560836711 1117068.1419286923 4.2470768452935905 0.17944995931609758
0.29192115484719694 14.49916183354522 906555.1262405654 4.493524437969075 0.1822572716639474
0.30544326849394876 14.30204363657796 739345.0513129248 4.750467240053938 0.1850789708840978
0.31934435985618553 14.129024530397567 605687.7281041031 5.018610367443899 0.18792217787423554
0.3336277406625133 13.976880167180491 498299.18190887145 5.298146521920595 0.19078290310014834
0.3482928623267807 13.842939484116643 411573.4228352103 5.589840122088586 0.19366816934365413
0.36333895235282637 13.724890241996123 341164.02867834753 5.893813076964472 0.19657220267422543
0.3787746821705731 13.620888492581983 283775.64910525724 6.210947779171081 0.19950307079202803
0.3945893952858002 13.529305492641544 236826.50847083013 6.541536147536174 0.2024575679249725
0.41079492235913684 13.44870209460162 198251.65661100464 6.886211129762458 0.205438234185274
0.42738390432066603 13.377833853135627 166429.89160386397 7.245707384390498 0.2084486949916858
0.44435900401846 13.315667419097275 140114.97434409708 7.620333092361445 0.2114852885005409
0.46171932016868145 13.261260789423131 118249.35350460539 8.010938296781893 0.21455265306767438
0.4794623048302912 13.213807658834615 100060.32046328539 8.418271305599 0.21765316112952626
0.4975972602055169 13.172576085914152 84859.29487382673 8.842839406839708 0.2207852489218441
0.5161101741513439 13.136938669734198 72135.88674806208 9.285382286097619 0.2239504452822971
0.5350076162939064 13.10632781938802 61448.73384417907 9.74684420967137 0.22715256957725447
0.5542896864151434 13.080246672354482 52451.803112287605 10.228031720795139 0.23039296786069155
0.5739444713976379 13.058225088790127 44861.955501520395 10.72951009623717 0.23366954787760089
0.5939821350286781 13.039883564821777 38446.53906353818 11.2523345170743 0.23698613046682268
0.6143873345713031 13.024811130229978 33007.29542877388 11.797528017823844 0.24034547045306462
0.6351630818700618 13.012663947062528 28154.14603750534 12.366065674688253 0.24374919373719112
0.6563045865689078 13.00319457230181 24455.414527972276 12.958764697568899 0.24719671466082746
0.6778130683445265 12.996124627755309 21100.635276078356 13.576693141736477 0.25068994219764806
0.6996734192798872 12.991163606341278 18237.38955152166 14.221166191661512 0.2542329021222798
0.7218790086230538 12.988049564166252 15786.855115885053 14.893368407594854 0.2578275692572423
0.7444361289809915 12.986671433809336 13685.057809772456 15.594497670157489 0.26147555115665233
0.7673265217209057 12.9867415697688 11882.060013996504 16.32547972764564 0.2651753667629141
0.7905434606522659 12.988083586880576 10260.983929718375 17.08808573561454 0.26893333891773075
0.81408032434449 12.990573171122916 8993.09988146326 17.88376398242686 0.27275188689152974
0.8379383919522024 12.994013243757003 7839.906409203843 18.714040396842307 0.2766335655806152
0.8620914912220413 12.998271534304397 6843.040233911056 19.57998534498383 0.2805764247843751
0.8865300081733939 13.00319103255055 5980.981499647007 20.48372162810436 0.2845872602390079
0.9112600811197756 13.008662464068214 5233.9210763974115 21.42708823702924 0.2886695449511909
0.936252844692906 13.014539928156877 4585.661075441475 22.411841992077125 0.2928254280339817
0.9614955863819489 13.020723088951428 4022.721036561405 23.439452063995606 0.2970542846873619
0.9869905152455979 13.027100306260094 3532.6918873831623 24.512593970885924 0.30136435235140135
1.0127026085713358 13.033559804057866 3106.4965147443513 25.63348970438599 0.30575938326886387
1.0386286178870396 13.039997290149339 2734.57871592216 26.80356794778716 0.3102367280598209
1.064757134533157 13.046341256722934 2409.7442629603975 28.02609822851207 0.31480652650395885
1.0910539972312605 13.05246527642706 2125.9601125407194 29.303555122587728 0.3194721760303194
1.1175227213652381 13.05831459406561 1877.7398853964705 30.63791811110429 0.3242330894024129
1.1441258826754679 13.063786839635119 1660.3839673277644 32.033043962215885 0.32910054726070925
1.1708577577677712 13.068807508049066 1469.551848183888 33.490997980851716 0.3340730666506101
1.1976851971599571 13.073276744880175 1302.1422724591077 35.01572547578957 0.33916050983801216
1.2246047550699926 13.077178271841595 1154.9482434490938 36.61006619320612 0.34436479014911636
1.251578172861758 13.0803828080119 1025.5345005911768 38.27806904496909 0.3496943326199881
1.2785886720394701 13.082843709431835 911.5739332973162 40.02296394966344 0.3551516960409693
1.3056081079249646 13.084462652795217 811.0978722656058 41.849705660189905 0.3607484359443909
1.3326290107145946 13.085248815843096 722.5161317847503 43.76116218159603 0.3664832112935367
1.3596066419388988 13.085068131356378 644.2064334502957 45.76316212524482 0.3723701933676198
1.3865178239382425 13.083861458616672 574.9914527365156 47.86037844033128 0.37841578103989293
1.413345455215385 13.081608698566683 513.7096649093976 50.05697922670764 0.38462274868144847
1.440067826923092 13.078255606023514 459.44790026332566 52.35937979655338 0.3910043691804939
1.4666336600711007 13.073692662390604 411.3763962305912 54.77332772282802 0.3975689797784544
1.493032901269177 13.067913195307936 368.6679731055226 57.30496912012187 0.4043255681333276
1.5192256288268122 13.060827992621999 330.74262686445934 59.96088429762725 0.41128382597075663
1.545204799124371 13.052436594291558 297.02612998988957 62.74812680805661 0.4184542069545634
1.5709128495734959 13.042647109760676 267.02799419567816 65.67426622918916 0.42584798926679757
1.5963301725968762 13.031411186418804 240.3165203362333 68.74743505609756 0.43347734344849825
1.621425143606858 13.01869504064891 216.51583481383295 71.97638012906583 0.44135540611981766
1.6461572613161317 13.004446475099712 195.26939522291144 75.37051907544513 0.4494963602728339
1.6705208193835241 12.988630594500714 176.28065117135918 78.94000230402014 0.45791552291341714
1.6944540531257937 12.971193352078005 159.33343292353084 82.69516051639906 0.46662689221719816
1.7179466116650972 12.952107983053175 144.1537364997943 86.647351452843 0.47564658200673815
1.7409501284863247 12.931311253642466 130.57847254326535 90.81000984935858 0.48499671148778367
1.7634292150526198 12.908759526143049 118.40369002304243 95.19477152678265 0.49468966951884774
1.78537658483066 12.88447272600985 107.47680776157635 99.81761429610064 0.5047523538155877
1.8067241441156205 12.858332830997641 97.68042566713602 104.6933450157599 0.5152040533182629
1.8274756998223556 12.830398601586957 88.87205782114707 109.83826182741615 0.5260667942702931
1.8475618526256148 12.800531546869733 80.96090558532242 115.27105739024859 0.5373682738811555
1.866988371318466 12.768811789229849 73.83827010912212 121.01113446308531 0.5491351712675062
1.885675137334633 12.73508471657348 67.42161024843483 127.07962002245624 0.5613966262315472
1.9036381615641378 12.699452597920265 61.6376164951082 133.49954030264075 0.5741844514048708
1.9208203497976326 12.661812055656169 56.42056120386231 140.29556631806977 0.5875318018976591
1.937195759501773 12.622166471736213 51.710837251276985 147.49432606268914 0.6014738562409668
1.9527440822452782 12.580513113117593 47.45504726558193 155.1265464941651 0.6160546596774029
1.9674036629469454 12.536752473667613 43.60755809977521 163.22231008172122 0.6313102125194642
1.9811861398992159 12.49098341232341 40.12214988872109 171.8180609667822 0.6472918812746575
1.994032395023802 12.443101677177223 36.96843479615597 180.95146945483623 0.6640480896129004
2.005914006199617 12.393097053997012 34.11003174018702 190.66394537810507 0.6816321312879511
2.016827543370819 12.341031857394562 31.517448314044707 201.00104734140595 0.7001026177904861
2.0267365444123904 12.286870962233952 29.166670341701504 212.01294266859594 0.7195239863307871
2.035616681320719 12.230610098131445 27.028454711324766 223.7544163270258 0.7399654138827422
2.0434478915163066 12.172260972944628 25.088044772518842 236.28503072048582 0.7615001161176798
2.0501946774104867 12.111797465145246 23.321911781353744 249.67152470629938 0.7842117490306897
2.0558362712316307 12.049225176177881 21.718081268102882 263.98685553309394 0.8081896660912621
2.0603763277001685 11.98462391127282 20.256871522309474 279.31136340792335 0.8335308795907393
2.063785737542242 11.917985993618046 18.926451509364384 295.73422068522257 0.8603426828564475
2.066037412068741 11.849305476390636 17.71526582485749 313.3536027855621 0.8887407929265859
2.0671306069545534 11.778648163554909 16.612222104830735 332.27896080425853 0.9188540211927949
