M[M_sun], R[km], Lambda[1], P_c[MeV/fm^3], rho_c[fm^-3]
0.24162668629717493 15.618656898711224 2160425.4255784233 3.5677272577965504 0.1711233750220791
0.25364483063196047 15.277240941274062 1723163.8199952203 3.784834749954705 0.17388836181517725
0.26604087763147094 14.981265819782575 1382997.3649302453 4.011433322020482 0.17666704585997808
0.2788177903032467 14.723488143333821 1116370.428839736 4.247778595572572 0.17945809856181866
0.291972830606704 14.498361877992943 888638.1643544465 4.4944959453609465 0.182268089624231
0.30550901304167755 14.301173861710287 738583.9493121397 4.751741473168495 0.18509273503364546
0.31942657097894767 14.128089716482613 605059.2923329223 5.020196695740285 0.18793863664257704
0.3337272579336198 13.975914964356267 497648.26030871616 5.300086687120146 0.1908024373443916
0.34840805953438675 13.841968069511397 410969.8274782051 5.592138950965135 0.19369041114542077
0.3634731163633475 13.723892234370998 340627.95620711317 5.896522189707605 0.1965976472344183
0.3789264026640538 13.619948975710882 283287.12234328967 6.214099934504916 0.19953181465323053
0.3947592900486418 13.528417772452109 236383.0952580997 6.545128055468348 0.20248906410510772
0.41098618087866934 13.44781488777784 197836.21086221226 6.890312097130896 0.2054731597442878
0.42759529637505733 13.377008075067375 166058.86739987636 7.2503558634564875 0.20848715066769563
0.44459115254322196 13.31490756796289 139782.2847830178 7.625516219336968 0.2115265495240058
0.4619747657348608 13.260521592532802 117962.79846370731 8.016746431710086 0.21459758368701937
0.47974083862381567 13.213110627352192 99790.67003469849 8.42474970243039 0.21770186961706567
0.4978990490332469 13.171955657334673 84628.65759053567 8.84996416569925 0.22083683522016243
0.5164386723198934 13.13636844505558 71927.74230940401 9.293268646941279 0.22400596575429374
0.535359223043702 13.105816729754808 61265.50394790147 9.755545599535967 0.22721214389818153
0.5546670290220261 13.079780927088967 52295.012831238506 10.237604811189751 0.23045672090824498
0.5743518035725967 13.057812393648296 44720.58768894696 10.739913285621814 0.23373633957595505
0.5944088463782866 13.039509062165058 38321.05515859882 11.263724166591727 0.23705729320311808
0.614848536626948 13.0244831741457 32894.97813312484 11.809971354679046 0.24042114670239337
0.6356551682731048 13.012431729329107 28054.325232250878 12.379634117778261 0.24382953349554584
0.6568268631196474 13.003016231928273 24366.02760600461 12.973395942261188 0.24728034085566433
0.6783595204443926 12.995972792285617 21023.0676128797 13.592594829945812 0.2507784785372804
0.7002504819465715 12.991044290746105 18168.692714349407 14.238423511272403 0.2543265239234126
0.7224865812704578 12.988000163365264 15725.753388933641 14.91207201687466 0.2579264622898835
0.7450757802783851 12.986639031405371 13630.756543226122 15.614561662617582 0.2615781049771361
0.7679982163404417 12.986750422983604 11833.54030655469 16.347175635513786 0.26528351542211515
0.7912447248505416 12.988144066031113 10285.91264222054 17.111522348940692 0.2690473032320327
0.8148231227230731 12.990667053644913 8954.35578844798 17.90905729986431 0.27287190187421156
0.838704724875204 12.994134739398868 7805.62942320061 18.741132128716714 0.2767582681452802
0.8628884681432892 12.998417194909376 6812.472580261606 19.609119087452097 0.28070712951314036
0.887371759752821 13.003375765254287 5953.872759942719 20.515091330527312 0.2847247271389745
0.9121290402240598 13.008852730380326 5209.781500078841 21.460843578470524 0.2888140755481348
0.9371512204044665 13.014745892310405 4564.043577392126 22.447842423213295 0.29297495332938417
0.9624361292206369 13.020963156633004 4003.475478418701 23.478149023839656 0.2972114445392756
0.987956900613394 13.027351390215706 3515.5111828453796 24.554169429851697 0.3015295119130753
1.0137024100074512 13.033804210472555 3090.925628727463 25.67782495116105 0.30593062871935917
1.0396669631947877 13.040261104843495 2720.6304602584646 26.851119767362295 0.3104163702715412
1.0658209335883717 13.046588927039062 2397.421696201138 28.077131130178458 0.3149953193980292
1.0921552013636202 13.052715193697354 2115.0217842162833 29.35788834410595 0.319667742267017
1.1186550237986241 13.058551424898944 1867.8048112195977 30.696199788361447 0.32443868179549606
1.1452891494038624 13.06400160638013 1651.5860321919176 32.09541231243702 0.3293158351489756
1.1720527004630432 13.06901444754179 1461.5575477567638 33.55752345884955 0.3342972643705266
1.1989104071300274 13.07347305277411 1295.0037899528304 35.0870500602398 0.3393963609026505
1.225857311384544 13.07733940812172 1148.6536163056082 36.68598305191459 0.3446096861836327
1.2528554758144832 13.080502138608038 1019.8319424788214 38.35940725024251 0.34995187662871075
1.279899338242313 13.082944471271844 906.3870088847086 40.109598679985076 0.35541971495379104
1.3069436840621826 13.084522259809246 806.520789364703 41.94196234661906 0.36102737085761455
1.333982383193633 13.0852431533288 718.338017545897 43.86005156693813 0.36677716168859753
1.3609920315792665 13.085032977361069 640.3949110393683 45.86848840845372 0.37267646789169717
1.3879245364164519 13.083768638604518 571.6076004116205 47.972641228200175 0.3787354368023672
1.4147746145122853 13.081459966310348 510.6340782596423 50.17730736705723 0.3849599213911432
1.4415068908577728 13.078020722574145 456.7172993168973 52.48763260671226 0.3913565033450148
1.468102209768981 13.07341686867937 408.870577908001 54.91007251378139 0.3979370721626865
1.494511798460879 13.067547732833722 366.3986988964324 57.45081912737185 0.404710692508756
1.5207246650165056 13.060399878023452 328.72803738315804 60.1165027901045 0.4116871394342729
1.5467089357034094 13.05190641024801 295.18081698665975 62.91423160674269 0.41887695687313653
1.5724251562569507 13.042021443672102 265.36901395156815 65.85163468104133 0.42629152091509986
1.5978387270747016 13.030683362298745 238.82142944857617 68.93690951441819 0.43394310841447914
1.6229367407513267 13.017861893753519 215.15684050683498 72.17887399773646 0.4418449715621407
1.6476889008516993 13.003516745741164 194.02265243222348 75.5870234815627 0.4500114191241979
1.6720378992730658 12.987578915208458 175.1708283678447 79.17122937577912 0.45845638474649475
1.6959755073531848 12.970019200144646 158.31073953162647 82.94182618884348 0.46719372921406843
1.7194550997420976 12.950802796559556 143.22504963861442 86.91148892860882 0.4762447234312371
1.7424308069658914 12.929826004556466 129.73696640870693 91.0917291315691 0.48562343319356194
1.764917829408555 12.907200725543795 117.63169534624201 95.49678311504893 0.4953523503794147
1.7868449748005377 12.882760715633689 106.78422700501143 100.1401810561674 0.5054484388896491
1.8081823347668977 12.856494496096625 97.05062072832703 105.03852701510353 0.5159376931640054
1.828896218334194 12.828360952881706 88.30174671725369 110.20836992644632 0.5268426619131725
1.8489690722243068 12.798376981925921 80.42933229594647 115.66744009333185 0.5381870637645704
1.8683444025568847 12.766429970851437 73.35641235162228 121.43577962061332 0.5499995931931437
1.8870193748801514 12.732605601541461 66.97937889543736 127.53482868256039 0.5623101010592745
1.9049421960094062 12.696778836924693 61.23256010766492 133.98717744937318 0.5751483984061524
1.9220809503027323 12.65895468707156 56.051564616251625 140.81847400746392 0.5885506249283432
1.9383934694545195 12.619055925692363 51.37100709702863 148.05640194533342 0.602555037166252
1.9538884741601221 12.577204109329601 47.14601112291742 155.72938071555106 0.6171970966958715
1.968501503243435 12.533261979363468 43.32442002059227 163.87116218708283 0.6325247330026877
1.9822142272925687 12.487255754561186 39.864866840192505 172.51564762696142 0.6485798987701309
1.9949994451351303 12.439165938463919 36.730535586969815 181.70193541581574 0.6654150737666243
2.0068332897298315 12.388998538372709 33.889240073359225 191.4721572337253 0.683085063433843
2.0176775316588733 12.336713988293047 31.31615187738833 201.8723730777686 0.7016491350233333
2.0275118472513336 12.2823212950822 28.981566296343342 212.9524355183428 0.721169589920068
2.03631708766825 12.225842070018945 26.859813741801045 224.76810878465756 0.7417176054283534
2.044057507644749 12.167238363678536 24.932764404514415 237.38033906897616 0.7633695306960568
2.050713400091167 12.106519987227415 23.178080154467935 250.8561572879123 0.7862084190791332
2.05628294120634 12.043761890816002 21.586278204998443 265.2688706127279 0.8103230136672791
2.060726505219884 11.978901975040907 20.13607473110859 280.69980202200355 0.8358115419880005
2.064025273063677 11.911997510909975 18.81416571565679 297.2391989730302 0.8627825409470198
2.0661832933489737 11.843083087412374 17.61264482600856 314.9873672914811 0.8913561285638153
2.0671713785325214 11.77218273734889 16.518475347092092 334.0536150751229 0.9216576841348953
