M[M_sun], R[km], Lambda[1], P_c[MeV/fm^3], rho_c[fm^-3]
0.24162668629717493 15.618656898711224 2160425.4255784233 3.5677272577965504 0.1711233750220791
0.2536436472894414 15.2772793450045 1723299.1281569377 3.7848147587224763 0.1738881126341116
0.2660394909608074 14.981270035260435 1382938.4852448418 4.01139129633283 0.17666653800434468
0.27881399607616225 14.723533855822431 1116388.1433286928 4.247713113503683 0.17945733906849892
0.29196744585566226 14.498470107577493 905939.2471144416 4.494405288475707 0.1822670801387735
0.30550387336423646 14.30122846881115 738694.2644632155 4.751622563090042 0.18509145057785487
0.31941943338978096 14.128156432438518 605114.7127137354 5.020048656406837 0.18793710067735458
0.3337172308210461 13.976008818045413 497700.19431522826 5.299905620883746 0.19080061430783424
0.3483973048073414 13.842057855930472 411024.3955280268 5.591924405604861 0.19368833536004074
0.36345911576744866 13.724029920870013 340665.58612975583 5.896269344958102 0.19659527246302333
0.3789125232319325 13.62002860436827 283316.9758042692 6.2138057303906455 0.19952913186595317
0.3947442402533709 13.528466754596685 236414.1118813551 6.544792797305769 0.2024861243439335
0.4109680328508658 13.447900768583073 197880.3347962532 6.8899293125217485 0.20546989978992697
0.4275757230618314 13.377081299402821 166092.04478947475 7.249921960170506 0.20848356109701058
0.4445700049603906 13.314973241809161 139813.55305959613 7.625032396506066 0.21152269798317475
0.4619509955749677 13.260590049633697 117986.9750911515 8.016204249974978 0.2145933894729632
0.47971565155149937 13.21316397880417 98750.81509868219 8.424144933673787 0.21769732260146724
0.49787193836536836 13.172025695627239 84653.52761179996 8.849299039688548 0.22083201942365846
0.5164109535240441 13.13639247512706 71942.89667446197 9.292532399432092 0.2240007825259294
0.5353265695642063 13.105857784590038 61281.80515546056 9.754733238263036 0.22720658204289917
0.5546321689507986 13.079820390598423 52305.24945439723 10.236711040522758 0.23045076874426387
0.5743136804019757 13.057853512418156 44734.885369928335 10.738941988937542 0.23373010355037196
0.5943680646364086 13.039547873351186 38330.845404221254 11.262660736379619 0.2370506488719087
0.6148058476417082 13.024512638049575 32904.89835913646 11.80880950829883 0.2404140807379038
0.6356069298565306 13.012454802964777 28296.617795136084 12.378367180614505 0.24382203186658874
0.6567776287794843 13.003042262949624 24179.428551343863 12.97202973231637 0.2472725321598605
0.6783083547581253 12.995985374671063 21029.96980314217 13.591109945871903 0.2507702111005811
0.7001958327239266 12.991059906312767 18174.17370968138 14.236811990842211 0.2543177813464285
0.7224295171301657 12.987994084115806 15731.822272824236 14.910325386251154 0.25791722719537963
0.7450164189407104 12.986652116030914 13635.667443291079 15.612687946009956 0.2615685277807233
0.767935628154639 12.986754244430239 11837.523996122836 16.345149457699996 0.2652734154338964
0.7911790376668412 12.988139756863093 10290.319853276196 17.109333540273393 0.2690366597966764
0.8147528273825061 12.99065816118705 8957.781064258217 17.906695016432856 0.2728606930082407
0.8386342416595298 12.994129656518574 7808.423753033489 18.738606848435328 0.27674666578900237
0.8628144374841443 12.998393941816758 6815.573984460353 19.606397973940446 0.2806949215929301
0.8872879087626285 13.003341257073561 5955.981936527389 20.512161286247018 0.2847118872306277
0.9120473612526462 13.008843295312683 5211.999670606221 21.45769060895756 0.2888005754457392
0.9370670375237689 13.014724554990531 4565.927758754623 22.4444796629834 0.29296098633785456
0.9623439764308007 13.020935884243743 4005.088380775935 23.474534270505554 0.297196763951938
0.9878682148554135 13.02732979056333 3497.802095324024 24.550285667959436 0.30151408357078574
1.0136096834497976 13.033782329803826 3092.4431807052947 25.673687214746465 0.30591466039765225
1.0395713258807824 13.040240406496876 2721.8572381474387 26.84667746912469 0.31039958806872214
1.0657214837249445 13.046562607455934 2398.718636306838 28.07236347448363 0.31497768176647845
1.092053832924227 13.052693109083187 2116.2423242820023 29.35281222901393 0.3196494713694363
1.1185493994231515 13.058533788165573 1868.9514479887223 30.69075460698346 0.32441947356534623
1.145179069927465 13.063985245625656 1652.3995440504889 32.08961583742908 0.3292959190317782
1.171941706005464 13.068999250943893 1462.3608951637534 33.551307694601164 0.3342763166041374
1.1987969135902639 13.073453178799218 1295.6411416540327 35.08038566780709 0.3393743235635964
1.2257407674027767 13.077322615432722 1149.2667710752767 36.67888937168639 0.3445868030692946
1.2527347725565698 13.080493188603226 1020.31623505474 38.3518462439531 0.34992804261279936
1.279776531970001 13.082936219541159 906.8663702031022 40.101503006717536 0.355394669645291
1.3068192572279678 13.084524753794893 806.8957099300721 41.93334212308104 0.36100131061590096
1.333855157579246 13.085236552189215 718.7300955293074 43.85081014065547 0.3667496913903717
1.3608627914726394 13.085032432174804 640.7488853018123 45.85864514422444 0.3726478450164248
1.3877924675129607 13.0837794914242 571.9139040819507 47.96215408021474 0.37870558699387563
1.4146492193512394 13.081491132358531 510.9261185256769 50.16606133362235 0.38492840876612017
1.4413718602067478 13.078040119543799 456.9752232162118 52.4756455415104 0.3913235913551357
1.4679655292153218 13.073444733681765 409.0901804612401 54.89729133635619 0.39790266753170245
1.494374603964719 13.06758213528751 366.61576394455085 57.437186457529315 0.4046746947494311
1.5205852733090928 13.060439414847288 328.90340283868807 60.1019565629309 0.4116494402561798
1.546568280403516 13.051957710693921 295.3487308285041 62.89870464920567 0.41883743953175695
1.5722844989785216 13.042080688525559 265.5219706075058 65.83505424589852 0.4262500594959373
1.5977082133221705 13.030757242562728 238.97318340575012 68.91919676663247 0.4338995670451412
1.6227951052118772 13.017940067668233 215.28337348031877 72.1599434480102 0.4417992035445163
1.6475481576662445 13.003603023725416 194.14110917609926 75.56678236093362 0.44996326597790176
1.6718960372740896 12.98767527423713 175.2700286889087 79.14968264370148 0.4584061164670682
1.6958333691551348 12.970131336993962 158.39719702136298 82.91876360993817 0.46714073147491314
1.7193143649468605 12.950925475472637 143.3099245393264 86.88679177542593 0.47618879653050844
1.7422995343806218 12.929990612557061 129.80291019726158 91.06538712438177 0.4855648319237144
1.7647804501898972 12.90734901302981 117.70540376406986 95.4685424752218 0.4952903841098055
1.786708409246884 12.88291707965711 106.85383824608134 100.11001719325762 0.5053833465821119
1.8080463056279656 12.856669124174969 97.10640041211528 105.00628350476987 0.5158692240022269
1.8287589250660876 12.828541069430567 88.35343753909247 110.17387614703496 0.5267705445960364
1.8488385048181377 12.798583451734421 80.48191558136037 115.63036884485808 0.5381104873575279
1.868226045267744 12.76668104066381 73.39445303434174 121.39606345119685 0.5499187456265642
1.8868978301992823 12.7328388880818 67.0218332238519 127.49232465248735 0.5622249211309917
1.904821956590229 12.697031029908397 61.269348933411116 133.9416379800169 0.5750584893537635
1.9219656640752745 12.659223304813588 56.08713939892061 140.7695610974304 0.5884553239789583
1.9382817692367176 12.619343810221235 51.404660456641274 148.0038226612152 0.6024538982972681
1.9537807358197041 12.577508793366226 47.172439298277865 155.672986513793 0.6170902240384009
1.968398865332075 12.533590849845762 43.34849948164176 163.81061129897037 0.6324116234404807
1.9821167900701744 12.487600259791385 39.88790717844718 172.45038248786622 0.6484593938267343
1.9949098382428265 12.439532917895104 36.75354772863792 181.63171942094806 0.6652871743583729
2.0067484323999216 12.389382580551825 33.90977422438192 191.39653437926665 0.682949115321423
2.0175989417169147 12.337118850901996 31.333945173059014 201.79084033637585 0.7015044224499029
2.027438439738078 12.282743453064514 28.9976959499025 212.86464301139375 0.7210160021816194
2.0362532425191113 12.226288021905303 26.875356343306596 224.6732438537215 0.7415536291368168
2.04400166861205 12.167704971048655 24.947759791093528 237.27793952710695 0.7631949300705877
2.0506646622533644 12.107011718899358 23.192636685007248 250.74548327223476 0.7860221968654276
2.0562414716771356 12.044277214559429 21.59784008606245 265.1488734483738 0.8101233314141056
2.0606927710904683 11.979438432380205 20.145873353099496 280.57002557537163 0.8355986784103206
2.064002099277143 11.91255435389501 18.824130325365868 297.0984006905251 0.8625544225009683
2.066169109255663 11.843665308162025 17.621778138937934 314.8344164720675 0.891111284385045
2.0671665073681913 11.77278495127602 16.525527487901318 333.8875028585817 0.9213953231578188
