M[M_sun], R[km], Lambda[1], P_c[MeV/fm^3], rho_c[fm^-3]
0.24162668629717493 15.618656898711224 2160425.4255784233 3.5677272577965504 0.1711233750220791
0.2536361582013 15.277488602721663 1723423.7283014383 3.7846763026527723 0.17388638684599617
0.26602247654951533 14.981680790938452 1383541.0861985625 4.011100241801369 0.1766630207821006
0.2787901617642672 14.723976398472825 1116888.1852643716 4.247259621670049 0.17945207924662637
0.2919348646277842 14.498961337254416 906344.6868003082 4.493777467631694 0.18226008920796577
0.3054605976398634 14.301798098149337 739146.1672554149 4.7507991053977285 0.18508255566318527
0.31936649530231453 14.128746235699431 605545.4396964241 5.019023504779418 0.1879264643335479
0.33365314576136 13.976654658146527 498133.40920813376 5.298651797234653 0.19078799038415753
0.34832298966320047 13.842635150636717 411396.40591513977 5.590438788403827 0.19367396160494152
0.36337379609138254 13.724665625302757 341002.7718709267 5.894518571296977 0.19657882882629485
0.3788145684256726 13.620667703882049 283634.95061397034 6.211768626556383 0.1995105559318174
0.3946337093097834 13.529067244531527 236718.52416544998 6.542471487244748 0.20246576959063464
0.4108451231810277 13.448463730930936 198149.749591042 6.88727900145989 0.2054473286287643
0.4274389904720994 13.377647126467776 166339.42149239802 7.24691779381716 0.20845870839867123
0.4444199478275556 13.31547685198824 140025.92257786065 7.621682686266855 0.211496032135814
0.4617852492605361 13.261071108584682 118176.24949596531 8.012450592765983 0.2145643518997501
0.4795353054144274 13.213637040063196 99986.82207982347 8.419958078215586 0.21766584330153815
0.49767573721760267 13.172416801045102 84798.70617497708 8.844694430294041 0.220798680084244
0.5161951837946684 13.136787723120413 72082.5145391201 9.287435550699135 0.22396490039309788
0.5350986919454327 13.106188442221292 61401.48645978233 9.74910961531329 0.22716807974342812
0.5543878183332729 13.080147564387554 52408.067076222585 10.230524011019519 0.23040956554134034
0.5740505503089097 13.058108193855205 44825.39290150655 10.73221843886084 0.2336869362761844
0.5940946733092903 13.039795472295186 38413.47447242208 11.2552995987608 0.23700465635085693
0.6145089397301994 13.024721942601145 32975.36059977054 11.800767326807966 0.24036517085635578
0.6352912662569905 13.012618651349115 28361.86865255486 12.369597789058195 0.24377010764846893
0.6564401069727771 13.003159222669588 24431.289663089305 12.962573399159057 0.2472184836372852
0.6779557629271529 12.996081373029801 21081.5439389063 13.580832453896903 0.2507129887787692
0.6998234860619155 12.991137526469894 18219.035415724346 14.225658272368607 0.2542572718793518
0.7220321844433142 12.988073599678545 15770.7351591476 14.898236837002923 0.2578533104786911
0.7446030034150131 12.986668796629878 13670.766094767045 15.599720091592213 0.2615022447108576
0.7675017064494392 12.98673793159438 11869.167489242382 16.331126777645697 0.2652035158908353
0.7907255622245652 12.988096422990356 10318.301451609983 17.09418570805646 0.26896300101809184
0.8142773841607102 12.990596555602943 8982.918803052677 17.890347045061763 0.27278312305302077
0.8381385883888576 12.994050683918728 7831.167924587 18.721131227821903 0.27666637435441266
0.8622965900369958 12.9983002863839 6835.1693583718825 19.587567606179267 0.28061044160847715
0.8867483911910049 13.003228934329428 5973.905156492053 20.49188560795033 0.284623036064538
0.9114849507601942 13.008718604182274 5227.566749970514 21.435872857980414 0.2887071581541919
0.9364840053161322 13.014598672480338 4580.22784746941 22.421210691346175 0.29286434027701685
0.9617395482294101 13.020781819716968 4017.680040302026 23.449522246162044 0.2970951826892824
0.9872415560978961 13.027173241379337 3528.181098945456 24.52341295119615 0.3014073310241628
1.0129619287832328 13.033629246726033 3102.455688278857 25.645057782495588 0.30580417390487874
1.0389026935597028 13.040077654149282 2730.8362483660962 26.815941545392576 0.31028347328346606
1.0650346530741244 13.046412158784774 2406.5585536396193 28.039377297956943 0.31485565155601736
1.091342251955451 13.052527554731263 2123.307988042823 29.31769265273675 0.31952306245836815
1.1178176293125648 13.058375659344444 1875.297454583815 30.653082623576246 0.32428658320279363
1.1444318957027957 13.063845367017159 1657.9930454318053 32.04930647203918 0.3291567893459503
1.1711687725082023 13.068863180204854 1467.4534935373997 33.508306623392905 0.3341313985605696
1.1980030942727782 13.07332911117242 1300.329857481637 35.034282237354745 0.3392218720177588
1.2249307484075254 13.077220885221513 1153.4030074722125 36.62981729454122 0.3444285041446186
1.2518875140900474 13.080399502758418 1024.118430723082 38.0364159871813 0.3488873177275765
1.27839221544825 13.082376344909727 912.1208271963229 40.05962104653008 0.38945811522864504
1.3040796362149498 13.082349687405882 815.2710213075019 41.92091618933591 0.4239732864814459
1.3290199989860982 13.080011498311078 731.0146076740971 43.89030814974902 0.45884229570936413
1.3532763169877156 13.07530534364866 657.1369178562828 45.97181553863421 0.494030299775475
1.376837843827965 13.068027324007407 592.0107362079009 48.17274770201644 0.5297126760465242
1.3997464278087874 13.058174198362677 534.489511796914 50.49977340110513 0.5659880334230004
1.4220349921712259 13.045778252442464 483.3114142317321 52.959867417883 0.6029543048199373
1.443718081692399 13.030815542548318 437.76120710462925 55.560702092461554 0.6407254423066024
1.4648290225184686 13.013396315541796 397.0927810040082 58.310731586659 0.6794289725078737
1.4852785393754848 12.993206598980935 360.65560957227984 61.21927478876156 0.719204432261604
1.505159329303781 12.970541735614358 327.99064760286683 64.29660039944011 0.7602025227912823
1.5244320196186933 12.94531983310268 298.6243243205409 67.55401709709588 0.8025848381358383
1.54309888124472 12.917620937437379 272.1927591642128 71.00147604696213 0.846457583827704
1.561146413541988 12.887419149252631 248.36289760482168 74.654066446756 0.8920518825138248
1.5785399153671993 12.854667862542284 226.88353071162624 78.52425917708369 0.9395069940487517
1.5952854816964652 12.819456105150818 207.47859314873727 82.62776723484548 0.9890266987373557
1.6113526754308236 12.781794177021933 189.92667775947535 86.98148357124386 1.0408203794031066
1.6267240380172308 12.741656824425144 174.07298072473023 91.60356500274571 1.0951050349309226
1.6413492283349458 12.698983577214184 159.7135753439601 96.51396050134109 1.1521147922216664
1.6552352826381278 12.65392454896876 146.69494191781052 101.73344884493333 1.2120808541159747
1.6683403663149936 12.606398552420798 134.91916647848834 107.28760243975356 1.2753009082093503
1.680631401205934 12.556408740538725 124.226761496812 113.20070826258042 1.3420242640206503
1.6920877546689974 12.503997722516257 114.53187243460607 119.5026729231634 1.412567143398775
1.7026871816170643 12.449162722033412 105.73360476929153 126.22465017066047 1.4872160469891538
1.7123919110037271 12.39194301865776 97.73667952251759 133.40119982518235 1.5661157979304405
1.7211749779099657 12.332238628311968 90.47158646184369 141.07007420749628 1.649666253944426
1.729017676206087 12.270184873375886 83.87179548866735 149.27302163301948 1.7389691448455278
1.735886767486465 12.205778870182343 77.86483627493904 158.0570267495927 1.8345586616580898
1.7417571402441714 12.138986268041053 72.40973287614293 167.47347699025437 1.9370137438385662
1.7466070017519868 12.069916338427282 67.44460896433763 177.57912957580385 2.0469704446142982
1.7504263447981874 11.998658126924585 62.931099586101645 188.4372226900596 2.165136845887774
1.753181286182452 11.925147494592123 58.81373985691127 200.11621680481642 2.292288243419834
1.7548153150665826 11.849020212992466 55.06316775278067 212.69436167989508 2.429337694173874
1.7553817576055446 11.770985428413226 51.652382069453836 226.25687414357535 2.5773684193210578
