M[M_sun], R[km], Lambda[1], P_c[MeV/fm^3], rho_c[fm^-3]
0.24162668629717493 15.618656898711224 2160425.4255784233 3.5677272577965504 0.1711233750220791
0.2536450261251122 15.27727489126609 1723213.0546486212 3.784839684281877 0.17388842331918505
0.26604175933148205 14.981228702722106 1382939.5716231295 4.011443695040969 0.17666717121180894
0.2788179934574831 14.723459526418342 1116416.7726648792 4.2477947583041225 0.17945828602514793
0.29197387638790956 14.498348163468517 905807.9765571228 4.494518322011048 0.18226833879342322
0.30551105614530905 14.301124401646428 738599.87771777 4.7517708236262886 0.18509305207460583
0.31942824923206764 14.128074216064626 605032.3051797354 5.020233236297548 0.187939015764962
0.3337262970875234 13.975905966584481 497629.26134884637 5.3001313799040854 0.1908028873265671
0.3484107311158949 13.841945358375277 410956.02142290137 5.592191907653776 0.19369092351595127
0.3634750115092557 13.723891495486239 340611.48774009466 5.896584600181264 0.1965982334067944
0.3789300913107696 13.619916375031503 283256.51955263887 6.214172554148357 0.19953247685693895
0.39476371546117583 13.528370339606145 236366.64784162477 6.545210808974532 0.20248978974156245
0.4109905369519573 13.447791384147585 197836.08348739604 6.890406582226309 0.20547396441900945
0.42760036072716173 13.377007128732217 166049.74341790378 7.250462966931561 0.20848803670729663
0.4445972998798697 13.314859580844269 139774.53378995197 7.625635645252483 0.21152750023108388
0.46197877697803974 13.260502370932874 117948.8344662224 8.016880263368407 0.2145986189830947
0.4797470044142109 13.213101110091781 99791.10014203396 8.42489898361415 0.21770299200287627
0.4979062001997274 13.171931438252068 84622.45916305145 8.850128346054431 0.2208380239560828
0.5164465993448976 13.136359041992575 71923.84722240634 9.29345038371819 0.22400724519253318
0.5353675704754105 13.105797321353942 61260.46629636377 9.755746125176934 0.227213516802864
0.5546762321396759 13.079763594606609 52290.73426680903 10.237824192246554 0.2304581742095094
0.5743611246877595 13.057832472244105 44718.1126767387 10.74015304510492 0.23373787890610478
0.5944195911737243 13.03949535835458 38318.83231230847 11.263986669778772 0.23705893332778108
0.6148580880251122 13.024487630141474 32893.387832156164 11.810258152595528 0.24042289091223734
0.6356658067016605 13.01242871266361 28284.202233142973 12.379946858226232 0.24383138525494452
0.6568388153945598 13.00299754401445 24169.974771116253 12.973733189068362 0.24728226842011958
0.6783722217741506 12.995984835999153 21021.614314098653 13.592961372702256 0.2507805193491456
0.7002625726317028 12.991048924942557 18166.359898947194 14.238821315685856 0.25432868203177045
0.7225007746157749 12.988000306540211 15723.831777915666 14.91250317496852 0.257928741985252
0.7450909523709933 12.98664299806587 13629.517428454543 15.61502419354635 0.26158046912843513
0.768013780458487 12.986754000819445 11832.270099124034 16.347675803763966 0.2652860086353958
0.7912620029832945 12.98814560949101 10218.034996251505 17.11206266523053 0.26904993060718374
0.8148386970579026 12.9906699395455 8953.250150048789 17.909640441389424 0.2728746688390516
0.8387233956552629 12.994145737618235 7804.958900324487 18.741755508830458 0.27676113225435733
0.8629062169173376 12.998422242021563 6811.620986352742 19.609790812784578 0.28071014312107223
0.887391185738994 13.003362740130306 5953.1991188042575 20.515814634703734 0.2847278967700257
0.9121490970475148 13.008869173713737 5209.302143299175 21.46162191657362 0.28881740816649565
0.937170995388498 13.014757951891955 4563.409159979776 22.448672552673745 0.29297840121455887
0.962456642394741 13.020969436012152 4002.9287095162053 23.479041363796533 0.29721506859698055
0.9879801400379005 13.027356949848194 3515.1399202187617 24.555128181296748 0.3015333205774258
1.0137259077237386 13.03381167023562 3090.6407466259734 25.67884640250347 0.30593457069681
1.039691837506774 13.040271150445314 2720.302214133619 26.852216408066003 0.31042051318264824
1.0658463808078418 13.046598842331498 2397.230638713129 28.07830809460956 0.3149996735012432
1.0921811232642618 13.05272663860096 2114.7380875449276 29.35914146039692 0.31967225271624716
1.11868213222436 13.058554491569126 1867.5777129468865 30.697544019970046 0.3244434236595994
1.1453142183248288 13.064014256008461 1651.3534267994605 32.09684327151059 0.32932075178340864
1.1720807145698513 13.0690212177312 1461.419802199401 33.559057933274765 0.3343024357075505
1.1989389171449898 13.073476243081288 1294.8430826110114 35.08869529388172 0.3394018012442805
1.2258871377159644 13.077343217364314 1148.5404820247736 36.68773426976656 0.3446153353413405
1.2528846896541372 13.0805078986997 1019.6498940425778 38.36127156045305 0.34995774716283873
1.2799294284962757 13.082945634810608 906.2940789380248 40.11159727629599 0.35542589794308915
1.3069746018771937 13.084525842189105 806.4061258094665 41.94409044773149 0.36103380442968336
1.3340139431978117 13.085239037262408 718.2550953810556 43.86233303691688 0.3667839433972637
1.3610239885551734 13.085030014582294 640.312441871022 45.87091846609646 0.3726835341692239
1.3879575750898123 13.083764756779548 571.5234672954094 47.97523025494647 0.37874280600824317
1.4148079395609428 13.081458462060553 510.5811322657597 50.1800837580585 0.38496770114469336
1.441539936349295 13.078014535031613 456.6610432446202 52.4905919537675 0.391364628603257
1.468135377324335 13.073411807182202 408.80398317479217 54.91322792311886 0.39794556595713493
1.4945466059912171 13.067539916484703 366.34603553329686 57.454184766967565 0.4047195796515931
1.5207594491956429 13.06038835597928 328.68832044435214 60.12009398475674 0.4116964466646046
1.5467428371368535 13.051895162506794 295.13855259717997 62.918064942633116 0.4188867130177414
1.5724603704928335 13.042006443833596 265.3261956438086 65.85572812084183 0.42630175706523243
1.5978745737038185 13.030664901259168 238.79466489050785 68.94128252412736 0.43395385812046317
1.6229721448857157 13.0178437662922 215.12440115000314 72.18354768657606 0.4418562710476958
1.6477246944196124 13.003493358988665 193.9803964556633 75.5920207564325 0.45002330752268616
1.6720725339031874 12.987552497096875 175.1453536918203 79.17654901160172 0.45846879539600827
1.696010126067956 12.969992230799686 158.28428439039658 82.94752009862069 0.46720681380215306
1.7194886486134655 12.950774703867209 143.19835187284448 86.91758642966047 0.4762585312710915
1.7424709651477903 12.929822994436448 129.71599662371716 91.09823276168724 0.4856379013766746
1.7649529898639178 12.907164996304031 117.61304143526297 95.50375554076652 0.49536764943830613
1.786878830033581 12.882724477253356 106.76370108008801 100.14762834903004 0.505464509824555
1.8082151394905734 12.856451003091411 97.03402236687602 105.04648780151484 0.5159545979106364
1.828928452020668 12.828315855271065 88.28426152662072 110.21688633895371 0.5268604674662937
1.8490018909554096 12.798324080514792 80.42183341618706 115.67659293135296 0.5382059703695203
1.8683747640619637 12.766376993890542 73.34650723304627 121.44558553996832 0.5500195544514819
1.887050279511703 12.732547184792965 66.96924772200995 127.54530545925132 0.5623310694983357
1.9049711405166814 12.696718000550574 61.22200357696506 133.99842126322235 0.5751705971858639
1.9221115769799448 12.658885466210524 56.044443751762415 140.83055080617896 0.5885741551248146
1.9384214558614705 12.618984527450287 51.36376163607924 148.06938406851452 0.6025800089260919
1.953914474884602 12.577126261397387 47.138444571055565 155.74330484425528 0.617223484313591
1.968526681769188 12.533185491494265 43.31777787264613 163.88611272133377 0.6325526607249161
1.9822383675589568 12.487170684998489 39.85707207929794 172.53176226191619 0.6486096526816372
1.9950221039865599 12.439077553315876 36.72638560469583 181.71927258070357 0.6654466536528609
2.0068548559757424 12.38890274978523 33.88492823182585 191.4908295425833 0.6831186308674178
2.0176966756906047 12.33661388671368 31.311841963916216 201.8925047588497 0.7016848667714256
2.027528875065607 12.282218661066748 28.9760172819055 212.97411297567746 0.7212075133347539
2.0363330942879907 12.22573216193742 26.855725857313477 224.7915327199441 0.741758094258141
2.044071432175819 12.167123478498569 24.92945056505333 237.40562362454259 0.7634126431859765
2.05072568747681 12.106398468864812 23.175946327927594 250.88348518786268 0.7862544015258126
2.0562924709501282 12.043634954590432 21.5828504306229 265.29844924538924 0.8103721519530838
2.0607327276874132 11.978769704267123 20.13212962329109 280.7318472556676 0.8358641036296723
2.064030936315868 11.911857888199215 18.811675254424106 297.27396608525544 0.8628388698984345
2.066186418869642 11.842939802247038 17.610770094204895 315.0251355459647 0.8914165881107996
2.0671714099361393 11.772033929651297 16.515767141803483 334.09463364048156 0.9217224696823395
