M[M_sun], R[km], Lambda[1], P_c[MeV/fm^3], rho_c[fm^-3]
0.24162668629717493 15.618656898711224 2160425.4255784233 3.5677272577965504 0.1711233750220791
0.25364040918646696 15.277380397677367 1723224.042954464 3.784772736818204 0.1738875888513469
0.26603430690351443 14.981385331795499 1383051.7860591281 4.011302958661799 0.1766654704957236
0.27880666603199267 14.723674800231176 1116592.1343783683 4.247575472245702 0.1794557426373273
0.2919585835432634 14.498584681513808 906022.7413809206 4.49421473262731 0.18226495825517589
0.30548968659229864 14.301426490630691 738817.402629634 4.751372623337415 0.18508875075150932
0.3194028643526474 14.128357999159071 605248.475409206 5.019737492486216 0.1879338722315799
0.33369731228975874 13.976201194791685 497831.004330176 5.299525041822234 0.1907967825081797
0.34837372947374423 13.842212803873505 411142.4957965517 5.591473462071571 0.19368397235730586
0.36343313096447316 13.724218535224631 340779.61493498273 5.895737907226406 0.19659028108738302
0.3788811893001709 13.620274674476137 283413.7377571341 6.213187368620479 0.1995234931511653
0.39471032838136394 13.528663819993186 236518.05791243652 6.544088154391366 0.20247994557750015
0.4109309511901596 13.44809260624899 197961.64138267955 6.889124787178035 0.20546304811449392
0.42753305791931817 13.37726201337119 166129.9289149208 7.2490100044306 0.20847601672088856
0.4445248469287802 13.31511689321536 139878.59347879348 7.624015531727284 0.21151460308569373
0.4619011237193892 13.26073148877634 118041.01046697737 8.015064742015994 0.21458457445764784
0.47965986773293096 13.213317666585695 99865.76808296879 8.422873898761965 0.21768776619580454
0.49781148160864436 13.172133394365595 84693.76051751 8.84790116498736 0.22082189821355594
0.5163445335531364 13.136539188402782 71984.52504578233 9.290985066165907 0.22398988920327045
0.5352576869760182 13.105962335723035 61318.77980858826 9.75302595744952 0.22719489309473345
0.554558683058026 13.079928048980262 52338.420022180086 10.234832685929003 0.23043825963541797
0.5742355104955355 13.057939865117268 44763.98028302027 10.736900722338635 0.23371699798650172
0.5942848763279548 13.039602451452895 38354.75812006033 11.26042586470193 0.23703668535322356
0.6147160889493974 13.024565947985447 32926.48546735881 11.806367832010052 0.24039923127222107
0.6355114700557514 13.01248219859118 28317.0081580542 12.375704676825748 0.2438062669840898
0.6566746714322045 13.003088924839938 24390.597737539607 12.96915862746694 0.24725612210189313
0.6782019774242036 12.99601259553576 21045.6105584885 13.58798947623518 0.2507528371616677
0.7000834738028777 12.991072840221884 18188.242604695097 14.233425428886239 0.2542994090825362
0.7223106321282113 12.988021882850552 15743.130004055858 14.906654929831829 0.25789782010870166
0.7448901308653014 12.986664016151927 13646.619724909016 15.608750456353059 0.2615484019454373
0.7678040689445933 12.986750687250836 11846.557658580168 16.340891622316583 0.26525219119241206
0.7910418814382747 12.988123520931905 10299.503130435312 17.1047339950918 0.269014293765995
0.8146085934972322 12.990644000020223 8965.090583155767 17.901730981182805 0.2728371390159247
0.8384839186316169 12.994102462290494 7814.950000020425 18.73330033854652 0.27672228512172525
0.8626571106845194 12.998366288996985 6821.472352956222 19.600680005016542 0.2806692686725028
0.8871252678099425 13.003316054227616 5961.856715851967 20.506004344643337 0.2846849065578715
0.9118769315609934 13.008797896419152 5216.528492337808 21.451065297246885 0.2887722077795982
0.9368914975006485 13.014685259340334 4570.077968209278 22.43741357640816 0.29293163783704057
0.9621606865482629 13.020884067592188 4009.001587721142 23.466938753015654 0.29716591629856337
0.9876781284850847 13.027276764911932 3520.400595779937 24.542124977344788 0.30148166502103546
1.013417715619558 13.033743381149277 3095.660466284217 25.664992935404577 0.30588110749924824
1.0393684697633139 13.040194679250972 2724.6665005976724 26.83734333506835 0.3103643253910506
1.0655148031900639 13.046524183749439 2401.1795027667827 28.062345804554422 0.31494062204939355
1.0918351637250923 13.052652733855588 2118.088113064163 29.342146521798647 0.3196110813722388
1.1183271978075302 13.058485737019746 1870.8733496246691 30.67931355449496 0.32437911451133133
1.1449525433069248 13.06395296088633 1653.9750284403146 32.07743677426806 0.32925407297034637
1.171706280210834 13.068957551764305 1463.9237175927406 33.53824779662016 0.33423230340140964
1.1985555635617833 13.073422912431612 1297.0787813469133 35.066383312611116 0.3393280215710104
1.225495504989917 13.077291941320834 1150.4766639844079 36.66398518505991 0.3445387244703561
1.2524846873921904 13.080465966348013 1021.4989971626509 38.335868789686685 0.3498774295402896
1.2795196951411296 13.082913984186815 907.8749763330951 40.08449392618496 0.35534204923248985
1.3065577114607523 13.084504491485482 804.4826081308381 41.91523112603566 0.36094655832802874
1.3335875458084145 13.085230046349277 719.5199226740551 43.831394228410744 0.36669197725801
1.360590150351832 13.085039600917908 641.4782664511089 45.837964990262954 0.37258770993789136
1.3875171356079707 13.083798281050656 572.5792692699462 47.94012137766607 0.378642874810111
1.4143679121470867 13.081518967747341 511.51464253615393 50.14243455681281 0.3848622039337752
1.4410947748124967 13.07810171531911 457.4982750692791 52.45046218797242 0.3912544473017076
1.4676773130465641 13.073504657739806 409.5865961241316 54.87043992890865 0.39783038837197404
1.4940838556794986 13.067651418580141 367.06215779956887 57.408546490762504 0.40459906945793245
1.52029311346568 13.060528184988774 329.30020749366133 60.071397695040886 0.411570241424128
1.5462736154406354 13.05206123303226 295.7179600441793 62.86608581320472 0.4187544220008221
1.5719875436847952 13.042202325511958 265.84766665378476 65.80022267122371 0.4261629588556196
1.5974097519393258 13.03089969626928 239.26623764704377 68.88198690108534 0.4338080979789973
1.6224966320362721 13.01810443490981 215.53604909733255 72.12017576872042 0.44170305800870585
1.6472486601363294 13.003789596838383 194.38477564579406 75.52426206163831 0.4498621111935377
1.6715977944294163 12.987884190581966 175.48703576996908 79.10442012886702 0.4583005195377962
1.6955369761496564 12.970363628588478 158.60918839490017 82.87031742168098 0.4670294022753963
1.7190084676464987 12.951172342306984 143.49204062259702 86.83491261061269 0.47607131574724115
1.7420152057345928 12.930295658759702 129.97808900952333 91.01005338550222 0.48544173472232455
1.7644925305454144 12.907666968720433 117.85152134237272 95.40922130242579 0.4951602202109169
1.786419761703719 12.883258140625133 106.97574247084071 100.04665693977513 0.5052466179039035
1.807762369535499 12.85703506730821 97.2281772804449 104.93855572461165 0.5157254039190979
1.82848950535373 12.828962984668063 88.46689602983413 110.1011891230891 0.5266181944652987
1.8485643631182243 12.799010943544001 80.58395959306037 115.55250254732339 0.5379496424564147
1.8679590005007591 12.767144180876617 73.4923738212486 121.31264277575166 0.5497489317016248
1.8866370828119585 12.73333845886391 67.11002322039941 127.40288141197992 0.5620454092609733
1.9045682709307195 12.697560887628537 61.34857297438785 133.84598850805628 0.5748696475972157
1.9217213544043312 12.659793260624324 56.158363535412576 140.66682772775303 0.5882551603073007
1.938052561503766 12.61997553964388 51.46990597784058 147.89339041421536 0.602241476375817
1.9535468683003585 12.578127407169571 47.23432751004717 155.5545435052631 0.6168657626809243
1.9681831799655782 12.534273615708036 43.40302823608387 163.68316335260562 0.6321731298665909
1.9819148093949959 12.48832668800993 39.93811903583891 172.31331254104649 0.6482063091568496
1.9947157512297706 12.440297586741154 36.79908205315798 181.48425406250527 0.6650185641632465
2.006563785847922 12.3901744514239 33.95251385617204 191.2377163746047 0.6826636062897067
2.017434170576022 12.337969821429086 31.373422132516858 201.61961376864693 0.7012005121822922
2.0272876550378918 12.283639846277438 29.034373097316447 212.68027339056556 0.7206934585604645
2.0361173396681793 12.227229048117518 26.909520421539142 224.47402544782048 0.7412092753794992
2.043881694126509 12.168693867522592 24.97653406075864 237.0629021497421 0.7628282715885106
2.050562802133012 12.10804906837363 23.220400581410615 250.51260964280632 0.7856296281157252
2.056151057440892 12.045331185081709 21.623870848004053 264.8968913496861 0.8097040185620379
2.0606266848991024 11.98056304455039 20.16944042800638 280.2972561613472 0.8351508554618731
2.063961841018292 11.91374058567644 18.84721843263461 296.80275020378866 0.8620754157374714
2.066141510682073 11.844884914541968 17.641690269446208 314.5132549630369 0.8905971679766942
2.0671593978706184 11.774057657521135 16.545695696519903 333.5387130112545 0.9208444374551019
