M[M_sun], R[km], Lambda[1], P_c[MeV/fm^3], rho_c[fm^-3]
0.24162668629717493 15.618656898711224 2160425.4255784233 3.5677272577965504 0.1711233750220791
0.25364188265455895 15.277351798001748 1723144.3267041037 3.7848011435383486 0.17388794292740964
0.26603777171548004 14.981303177653729 1383002.98493926 4.011362674591833 0.17666619212749612
0.27881109843451635 14.723624371697525 1116514.474165411 4.247668516983863 0.17945682181607453
0.29196493028251713 14.49848060301172 905959.4851205015 4.494343547029938 0.1822663926334454
0.3054991054813467 14.301313422652575 738693.9725477867 4.751541580426736 0.18509057581053343
0.31941384706945536 14.128234357695348 605162.6106300848 5.019947836093742 0.18793605462769314
0.33371021982017846 13.976032515505791 497739.52107859537 5.29978230873955 0.19079937275915404
0.3483899817464757 13.842115666122533 411065.52485620533 5.591778293859607 0.19368692168871143
0.3634516492598125 13.724066502061698 340702.9960106714 5.896097151180654 0.19659365518262545
0.37890321928516046 13.620082390461036 283352.838593912 6.213605370961174 0.19952730482920486
0.39473230976875046 13.528558981460304 236442.84264958577 6.544564480358045 0.20248412231274307
0.4109561618066815 13.447951701384035 197902.74238054475 6.889668630646633 0.20546767971368757
0.4275631012977789 13.377122998125184 166119.13746625782 7.249626467371637 0.20848111656081383
0.4445555651756881 13.314997647168322 139831.5941444981 7.624702909595406 0.2115200750555065
0.4619354646753941 13.26063560349529 118005.46096592052 8.015835022232832 0.2145905331978699
0.47969765167707556 13.2132161192976 99838.30774643195 8.423733086175382 0.21769422608403147
0.49785181855269267 13.17205163031207 84666.54380822886 8.848846091061603 0.2208287398820693
0.5163877701853785 13.136462745385497 71957.54646855865 9.292031019982046 0.2239972527833437
0.5353044263265873 13.105887906223268 61292.42926809949 9.754180028819258 0.22720279447821623
0.5546082824858646 13.079850680547942 52314.17678312362 10.236102395380577 0.23044671540505018
0.5742884257024059 13.05788384609471 44743.465579809796 10.738280552699372 0.2337258569248356
0.59434285242327 13.039562503204387 38340.710497334316 11.261936562621834 0.23704612422116517
0.614776780736516 13.024529866141496 32911.87229638378 11.808018319353911 0.24040926898904907
0.6355750812910902 13.012453977420689 28303.147590366858 12.377504431959457 0.24381692346778366
0.6567454616226795 13.003048339396381 24379.550633595867 12.971099385802827 0.24726721468069562
0.6782745016426631 12.996003243956835 21034.80930884556 13.590098791262509 0.2507645812626206
0.7001598362296021 12.991073330867449 18179.016414677826 14.235714607016375 0.2543118279856155
0.7223903417326566 12.988009312933025 15734.310848701974 14.909136003792952 0.257910938481982
0.7449758584975988 12.986655968618557 13639.405210023087 15.611412028851674 0.26156200613855946
0.7678931084382096 12.98674801868055 11840.013101732506 16.343769728529697 0.26526653783003046
0.7911350621861283 12.988133253299578 10293.202269949337 17.107843075203615 0.2690294121697559
0.8147065796845198 12.990658291455045 8960.163729182037 17.905086432559454 0.2728530603927806
0.8385838957207805 12.994126247372114 7810.044843773145 18.736887280186323 0.2767387652626267
0.8627633571990109 12.998393069966884 6817.648702098632 19.60454506455652 0.28068660875709317
0.8872329876583918 13.003331059293119 5957.551376074617 20.510166118638633 0.28470314409681213
0.9119919920286503 13.008830751798348 5213.537905837307 21.455543655452935 0.2887913828125622
0.9370095240765263 13.014718527020312 4567.396912146454 22.44218986653572 0.29295147582702324
0.9622851632426148 13.02091538500563 4006.6440797464884 23.472072898347133 0.2971867675882577
0.9878062688218001 13.02731168602718 3518.215444305778 24.547641135895947 0.3015035781003158
1.01354563647622 13.033765892382494 3093.551464741736 25.67086975876999 0.3059037872924276
1.0395065297691963 13.040223865996659 2722.7943357924105 26.8436526485426 0.3103881608412411
1.0656568815180227 13.046558090343872 2399.378607366243 28.06911713181941 0.31496567213334553
1.0919810718590148 13.052684864008993 2116.829374840801 29.34935586906162 0.31963703059582377
1.1184778525977088 13.058514847857783 1869.5283189411352 30.687046968529152 0.3244063946304497
1.1451066204912825 13.063965874410206 1653.0039642887048 32.08566902049514 0.329282358157539
1.1718655464616359 13.068984457120997 1462.9244773710388 33.547075408471876 0.3342620533635148
1.1987188721840267 13.073447793039373 1296.0948408001184 35.07584793949449 0.33935931852624757
1.225661245107024 13.077313370492229 1149.6409788421133 36.67405936818896 0.34457122222568043
1.2526538721301228 13.080485396172934 1020.7282271761761 38.34666839992288 0.3499116403380079
1.2796926922462912 13.082926852411843 907.218146103947 40.09599081852514 0.3553776167765268
1.3067346427941686 13.084519872156921 807.1965485471537 41.92747280824519 0.3609835667879549
1.3337702646158383 13.085232242772298 718.937863179513 43.844517902487326 0.36673098760443
1.360773914122182 13.085037131866944 640.9750624017024 45.85194316571272 0.3726283565733077
1.3877037590073915 13.083783093495327 572.138596296938 47.95501373875257 0.37868526327712193
1.4145590020795984 13.081501700673556 511.1212745049761 50.15840434326173 0.3849069530353119
1.4412796562798513 13.078054799860466 457.1189083749502 52.46748405616028 0.39130118297420863
1.4678731395807971 13.073464498969225 409.27096743349637 54.888589222516345 0.39787924300628663
1.4942800519977226 13.067603586565134 366.7483578551377 57.42790465506761 0.40465018567710864
1.5204904653749032 13.06046753304884 329.0320174284284 60.09205282307605 0.41162377292346736
1.5464735568797596 13.051991511458153 295.47655620746195 62.88813324639976 0.41881053447115213
1.5721894886089534 13.042118800187977 265.62852616015346 65.82376566059715 0.42622183099874156
1.5976102973071113 13.030803621942589 239.06553720707342 68.90713733578806 0.43386992262527174
1.622691555536451 13.017964494032833 215.37302508599268 72.14705497957162 0.4417680433479463
1.6474497695015258 13.003666886737443 194.21773730221904 75.55300170824228 0.4499304821317273
1.6718001999746848 12.987743111146806 175.34704773151185 79.1350131808515 0.4583718927780688
1.6957375459266373 12.970207005761676 158.4612817692461 82.90306223535599 0.4671046497618531
1.719200856226566 12.950969781124837 143.37928746392876 86.86997767522102 0.476150720866239
1.7422055855403646 12.930086723886758 129.86678138358414 91.0474532993374 0.4855249357641944
1.7646867459253077 12.907449265948154 117.75361908193248 95.44931619054489 0.49524819734820363
1.7866148895463405 12.883028990365556 106.89031082535834 100.08948170894617 0.5053390318978745
1.8079556628663287 12.856787000893526 97.14797037429805 104.984332350148 0.5158226106793758
1.828667969576444 12.828671108449836 88.38652425777673 110.15035331072565 0.526721299555931
1.8487499246389218 12.798719435292233 80.51198429273411 115.60513138478291 0.5380583554737906
1.868140284348389 12.766832537132585 73.4306518136972 121.36902557632806 0.549863706421607
1.8868134082300283 12.733000788769674 67.05169207040485 127.46333458686513 0.5621667383006036
1.9047402608706792 12.697202663853913 61.297567771515446 133.91063618764056 0.5749972821896414
1.9215626860713235 12.659716968549763 56.18383359605702 140.78981019200526 0.6982909101444565
1.933547984088162 12.62093446461125 52.304088114640855 148.6234964463852 0.985421419851666
1.9401578313846934 12.577237822230703 49.40071556622878 157.57016930426735 1.26041628624534
1.9422476132296094 12.527348534803133 47.145550426770725 167.6592309963088 1.5247776002274138
