M[M_sun], R[km], Lambda[1], P_c[MeV/fm^3], rho_c[fm^-3]
0.24162668629717493 15.618656898711224 2160425.4255784233 3.5677272577965504 0.1711233750220791
0.25364431324168035 15.27726842419521 1723165.7803037309 3.7848247285187506 0.17388823690281258
0.26604062325326905 14.981241202745831 1353457.2758468199 4.01141225485868 0.1766667912757607
0.2788154919335826 14.723486146935622 1116395.2660732428 4.247745769843648 0.17945771783283046
0.29197076183041526 14.498409023646573 905897.7984559969 4.494450499582803 0.18226758357494394
0.30550616435585976 14.301222006983805 738653.6281294262 4.751681864119826 0.18509209114215425
0.31942351376863787 14.128109291448581 605126.8423222299 5.020122484211451 0.18793786666932236
0.33372111396807125 13.975923496307212 497650.7155528755 5.299995919178431 0.19080152346182977
0.3484026697986863 13.842013566958371 410998.1630971175 5.592031399868268 0.19368937055897228
0.3634661673158525 13.723997690905321 340634.87069358805 5.896395438999397 0.1965964567649435
0.3789198675330899 13.619985876786213 283296.7887644938 6.213952450158061 0.19953046977356992
0.39475072301232333 13.528469740665958 236404.76094742346 6.544959990492695 0.20248759040231593
0.41097722148217214 13.447857975802597 197861.53426525273 6.890120206821952 0.20547152552589318
0.42758601626695375 13.377036799821257 166078.73638258452 7.2501383469459855 0.20848535120934894
0.4445809449758649 13.314916154908571 139791.90820621903 7.625273677710406 0.21152461873670458
0.4619627100426673 13.260558869105248 117975.1610577359 8.016474634175708 0.21459548111335208
0.4797280807693393 13.213138368387682 99804.48250234376 8.424446529322957 0.217699590179126
0.49788509368758027 13.17197547728837 84639.91483284284 8.849630734776376 0.22083442103781672
0.5164248899684175 13.136389325306554 71936.87645677419 9.292899561877242 0.22400336737243315
0.5353429276649511 13.105836329950344 61276.54184856118 9.75513835756465 0.22720935570408016
0.5546497260820863 13.079818065111619 52297.84107610459 10.237156757454226 0.2304537370451527
0.5743325289624316 13.057842962048197 44728.79969800671 10.73942636687012 0.23373321340674064
0.594390220081704 13.039530416265253 38324.889997323306 11.263191059735853 0.23705396234183532
0.61482710418313 13.0245150501187 32899.936153730436 11.8093889100282 0.2404176044671288
0.6356316654107625 13.012429519653423 28290.618619941783 12.378998989125531 0.24382577285166457
0.6568026169878083 13.003018058902192 24369.957801353976 12.972711046240857 0.24727642627086696
0.6783349492592275 12.99599054476579 21027.15311013183 13.591850440126759 0.2507743339742019
0.7002239242504169 12.991062389188361 18171.943113731973 14.237615635904405 0.25432214116011287
0.722458398441727 12.987994868483606 15728.878817241237 14.911196407711108 0.2579218326141724
0.7450456261537927 12.986655399532074 13633.455032377371 15.613622342349087 0.2615733037949993
0.7679664385968411 12.986761494046064 11835.446579101073 16.34615988273359 0.2652784521492655
0.791211830817972 12.988148777515391 10288.53717303897 17.11042506520348 0.2690419675127901
0.8147876268554893 12.990665632558587 8955.889906923772 17.9078730486795 0.2728662826870177
0.8386696952326846 12.994137349184285 7806.9343299506545 18.73986616293167 0.2767524516875262
0.8628515756889142 12.998396743570114 6814.153514950204 19.60775494500063 0.28070100946628024
0.8873322166962795 13.003361434633849 5955.128658593579 20.513622445048863 0.28471829025505363
0.9120881782710345 13.008852393853992 5210.917157909169 21.45926293392326 0.2888073076859175
0.9371077308319683 13.01473719892485 4564.917364624627 22.446156604345553 0.2929679513975673
0.9623924288984463 13.020950084311249 4004.352383829568 23.476336872877038 0.29720408485577393
0.9879134811014176 13.027332098622542 3516.357710374006 24.552222416148798 0.30152177735192454
1.0136566810344756 13.033801598201835 3091.7415979635634 25.67575061182029 0.30592262344434795
1.0396201684545467 13.040248100698252 2721.290584958864 26.8488927407365 0.3104079569659686
1.0657713957158856 13.046583274686922 2398.190141782365 28.07474099037917 0.3149864772315992
1.0921040465202476 13.052700797821979 2115.6346754765573 29.355343562809356 0.3196585826168529
1.1186034129658617 13.058535112015251 1868.4909163063464 30.693469980443545 0.3244290522211785
1.145234101620803 13.063997802900419 1652.0129640110074 32.092506388093724 0.3293058506791541
1.1719970765691334 13.069015398010652 1461.9368634823238 33.55440732847532 0.33428676268987895
1.1988534250538359 13.073463208941108 1295.3405957913724 35.083709014607244 0.3393853129705032
1.2257989714098865 13.077335891792195 1148.9801409110496 36.68242678727272 0.34459821422439596
1.2527955452724484 13.080491880749406 1020.0943824509457 38.35562133287403 0.3499399551378602
1.2798392752653593 13.082932659094881 906.6623345121135 40.10554007436067 0.3554071589838817
1.3068813857663861 13.084522475883256 806.688891476495 41.93764076164112 0.36101430605150897
1.3339195838143023 13.085233888314395 718.5426292566718 43.8554185451533 0.36676338995183055
1.360935638145124 13.085028774774397 642.3310530421509 45.86355365848536 0.37266211830912427
1.387858636272132 13.083775376592438 571.7701754856957 47.96738366999572 0.37872047209454063
1.4147156563045076 13.081481581350838 510.7869489480858 50.17166934319038 0.3849441230269452
1.4414387885305115 13.078032432862035 456.82403899710823 52.48162306828012 0.39134000340405967
1.468034308065948 13.073429143653136 408.97661613201313 54.903664848208315 0.39791982387935726
1.4944427954325978 13.067564495640799 366.496287756918 57.44398456628038 0.4046926455019625
1.5206546817730504 13.060419166844158 328.806716867053 60.109210216286 0.41166823941051695
1.5466385346816083 13.051930876025256 295.267962750473 62.90644734186511 0.4188571453001466
1.5723550170443368 13.042050886445727 265.4381487208766 65.84332225194997 0.4262707346628787
1.5977789693897688 13.03072251286271 238.89849328265956 68.92802939562202 0.43392127936023267
1.622866139349876 13.017898563667009 215.21554489485573 72.16938332737972 0.4418220261551432
1.647617752809781 13.003560557347395 194.08615623662718 75.57687574784184 0.44998727790616017
1.6719672435932227 12.98762571011779 175.22237673705877 79.16042706560876 0.4584311830804537
1.6959041767159615 12.97007415765954 158.3486782357618 82.93026389534002 0.46716715909727236
1.7193846282312575 12.950864163227452 143.26579940268783 86.89910712457731 0.47621668473706924
1.7423655954680943 12.9299136762559 129.7721319159031 91.07852266346048 0.4855940536631464
1.7648495545791727 12.907276743878588 117.6692639695624 95.48262474325209 0.49532128375028167
1.7867756750761377 12.882837379553498 106.81167873702711 100.1250584520601 0.5054158049660611
1.8081147032196583 12.856581528294665 97.07984803023979 105.02236175064968 0.5159033661910539
1.8288243596825247 12.828446817911592 88.32478252632917 110.19107645507401 0.5268065058647307
1.8489039737748814 12.798480496878618 80.45665579504883 115.64885436124406 0.5381486720555201
1.8682803464853448 12.766541642277392 73.38206829623688 121.41586780903506 0.5499590600416353
1.8869593445275565 12.732721294609433 67.0024426026761 127.51355469749561 0.5622675228625085
1.9048827392610224 12.696905441278654 61.2534321459344 133.96434601102774 0.5751033220577598
1.9220243136769497 12.659088589711377 56.07026230622799 140.79395121820343 0.5885028452093184
1.9383386547591137 12.619200654149775 51.38873496473689 148.03004093051823 0.6025043304427128
1.9538343370053168 12.57735677116373 47.15814048507615 155.70110699785874 0.6171435151706055
1.9684499612038115 12.533427649844 43.33699296113177 163.84080440572978 0.6324680244148295
1.9821657104942463 12.48742631298842 39.87573946570347 172.4829262189915 0.6485194822679993
1.994956077136 12.43935060074534 36.74270807408948 181.66673174940473 0.6653509498001302
2.0067911187269263 12.389190632024375 33.90022091943553 191.43424266839094 0.6830169039650246
2.0176401126256596 12.336916051212803 31.32653779869094 201.83149539431616 0.7015765811674561
2.0274747159534923 12.282531672248545 28.98907848230058 212.90841928870745 0.7210925861597283
2.0362843977461713 12.226067449605384 26.866808554972977 224.7205465344918 0.7416353929466454
2.0440303517524523 12.167471365645575 24.940438646497604 237.32899905650842 0.7632819912586255
2.050689274654967 12.106766107080643 23.185695803964474 250.8006685386029 0.7861150526491822
2.056262272558542 12.044020608766376 21.592095705626303 265.2087073042256 0.8102228984265167
2.0607090162121415 11.97917153532224 20.140591224616045 280.63473544870135 0.8357048176636726
2.0640157692088885 11.912274799935798 18.820951928169226 297.16860609422264 0.8626681678344408
2.0661757759608133 11.843375417405793 17.617666858811972 314.91068115099057 0.8912333691358929
2.067168547345144 11.77248330719489 16.522444283819496 333.9703298122275 0.921526141714932
