M[M_sun], R[km], Lambda[1], P_c[MeV/fm^3], rho_c[fm^-3]
0.24162668629717493 15.618656898711224 2160425.4255784233 3.5677272577965504 0.1711233750220791
0.25364504237997504 15.277261907805853 1723174.4577825647 3.7848414757429913 0.17388844564888362
0.2660421200385642 14.981234966992654 1353406.832996388 4.011447461083556 0.17666721672221103
0.2788178759212756 14.723482432056622 1116354.2413076728 4.247800626374041 0.17945835408591598
0.29197433976429893 14.498328489124983 905812.0400082523 4.494526446126865 0.18226842925733835
0.30551109026537493 14.301147390079262 738605.3138353911 4.751781479680901 0.18509316718033303
0.31942899399849894 14.128065317697217 605038.1839917944 5.020246502823737 0.1879391534102916
0.33372697244069693 13.975962575483779 497665.48564962693 5.300147606221599 0.19080305069866013
0.3484116857353295 13.841937235853903 410950.77695895603 5.592211134314277 0.19369110953918067
0.3634762775308486 13.72387766144015 335679.98382752435 5.896607259195552 0.19659844622505174
0.3789313293736939 13.619911172605791 283255.4119151325 6.214198919777615 0.1995327172797315
0.3947653031801736 13.528395446449384 236364.94567577555 6.545240853882892 0.20249005319482008
0.41099217484228 13.447787438690277 197822.79745712626 6.8904408865033036 0.20547425656862756
0.4276022457100813 13.376996893286123 166045.7360972587 7.2505018525498155 0.2084883583980509
0.444598692795551 13.314887773108945 139775.55236124134 7.6256790047715795 0.21152784540073596
0.4619806382345803 13.260496376384886 117950.9017388515 8.016928853179477 0.21459899486456652
0.4797500515415709 13.213090189057624 99782.78546492504 8.424953182691425 0.21770339950416845
0.49790931005037337 13.171920333833798 84622.61446438746 8.85018795458662 0.2208384555473246
0.5164495732121747 13.136351821669141 71921.9545840504 9.293516366485173 0.22400770971532627
0.5353695285563653 13.105805293496484 61260.28537116419 9.755818929652717 0.22721401526084287
0.5546793176797657 13.079781760723973 52288.95533381566 10.237903514095605 0.2304586976334953
0.5743632094666432 13.057830311421686 44717.093203125194 10.740240094311911 0.23373843778897813
0.5944236844844251 13.03951858087432 38318.67502812073 11.264081976617488 0.23705952880663408
0.6148632334805633 13.024503200242036 32891.51585875749 11.810362280213544 0.24042352418188798
0.6356701829343252 13.012427215465992 28282.49881816655 12.380060404909536 0.24383205757328189
0.6568428411538849 13.002996285956645 24362.25478552834 12.97385563338474 0.24728296826162136
0.6783777694099535 12.99595962306574 21020.692329260124 13.593094453648737 0.2507812603082011
0.7002688620179505 12.99105378248513 18165.99347620776 14.23896574697659 0.2543294655785716
0.7225048962347999 12.9879970299274 15724.612145283147 14.912659716181649 0.25792956967765446
0.7450957291323748 12.986639992313838 13629.308652066968 15.615192125487527 0.26158132748512475
0.7680189823223218 12.986755727382912 11831.914700968875 16.34785740094643 0.26528691385180425
0.7912676400322014 12.988142240092337 10286.383749977127 17.112258839256512 0.269050884535042
0.8148459432620715 12.990659535158962 8952.707252468248 17.90985216430788 0.27287567344916075
0.8387298174685807 12.99414468689644 7804.493422613065 18.74198184148807 0.2767621721358114
0.8629123986878952 12.99842891279513 6811.348622082048 19.610034698558344 0.2807112372827284
0.8873971639598723 13.003375164704682 5952.801720656552 20.516077247677906 0.28472904758079726
0.9121565136215575 13.008866876019338 5209.012284748916 21.461904511242206 0.28881861815503085
0.9371796514269611 13.014758992652077 4563.525712022894 22.448973951723197 0.2929796530546197
0.9624660407936784 13.020968893129604 4002.824000307281 23.479365350258725 0.2972163844022693
0.987988651949461 13.027356190595349 3514.96156217525 24.555476280501026 0.30153470341031396
1.0137337887679878 13.033816805359534 3090.4484288110725 25.679217266835963 0.3059360019336935
1.0397019750347227 13.040268428790032 2720.1904971989316 26.852614572283326 0.310422017375364
1.065854820462658 13.046598313567479 2397.092966428424 28.078735422945417 0.31500125437457416
1.0921900140445535 13.052725488912207 2114.6203214678794 29.359596438110316 0.3196738903566576
1.118691281426204 13.058557206578309 1867.5014494721677 30.69803208011742 0.3244451453233948
1.1453239772511268 13.06401032162703 1651.2460059144144 32.09736282092417 0.32932253690402014
1.172091130009619 13.069024070409075 1461.331646492566 33.559615067459454 0.33430431330719584
1.1989482178813797 13.073484017611207 1294.8327579747204 35.089292643026155 0.33940377651595943
1.2258977457015134 13.077350934704253 1148.4598837277942 36.68837010012286 0.34461738643164547
1.2528963622664866 13.080509762518691 1019.644650976788 38.36194845292655 0.34995987863234645
1.2799395488715635 13.082941777726742 906.2417836990434 40.11232292616248 0.3554281428613521
1.3069935023868013 13.084544868919282 806.3910786962746 41.94486311894867 0.36103614033183207
1.3340252830020398 13.085241343286063 718.1488034094875 43.86316139436283 0.366786405703988
1.3610374119618842 13.085030024480387 640.2930601835624 45.87180077375748 0.3726860998000497
1.3879751769133724 13.083781888992156 571.4771214325349 47.976170282259986 0.37874548162942484
1.414820163752132 13.081456642346753 510.5827503933049 50.18109181516398 0.3849705258317931
1.4394160224978947 13.077157008789321 460.3159828241366 52.58070742099598 0.6183395215112831
1.450150692466987 13.060297737614224 435.3637960247257 55.672870995845024 1.0301977613411286
1.4512270404621972 13.028470435959195 423.60741716300384 59.509784118002564 1.397959017727202
