M[M_sun], R[km], Lambda[1], P_c[MeV/fm^3], rho_c[fm^-3]
0.24162668629717493 15.618656898711224 2160425.4255784233 3.5677272577965504 0.1711233750220791
0.2536434345197371 15.27728732707183 1723245.8113070508 3.784808503497391 0.17388803466574854
0.2660380276434749 14.981324788265868 1383080.609735069 4.01137814662603 0.17666637909789842
0.2788126158745897 14.723607842156408 1116447.5521950843 4.247692624465572 0.17945710142653315
0.29196633286164086 14.498466121657657 905930.0208102238 4.49437692248475 0.18226676427688077
0.30550100568763766 14.301289448792994 738667.4140319064 4.751585357020587 0.18509104868129592
0.31941695982056517 14.128195684795065 605086.474786909 5.020002336218176 0.18793662008751927
0.3337144043138008 13.97600991055982 497720.86030035984 5.2998489671307505 0.19080004389854716
0.3483936018673526 13.842041149946938 411025.3584208642 5.591857276866736 0.19368768587103288
0.3634549198696338 13.724066220233244 340671.68622457405 5.896190233142199 0.1965945294281065
0.37890862286894456 13.620050191820942 283340.82765359676 6.213713678179054 0.19952829246062154
0.39473828171918957 13.528515869696665 236423.41278569598 6.54468790030176 0.20248520453891725
0.41096329957783284 13.447939449645187 197888.5451214472 6.889809545761738 0.20546887980594053
0.42756969709028225 13.377124003784024 166104.9713653567 7.2497861998379065 0.20848243798657137
0.4445631065212119 13.31497374608033 139822.8047124931 7.624881017855412 0.21152149291177938
0.46194383100645625 13.260602916545547 118001.38639335302 8.016034612692627 0.21459207719143836
0.4797069027049368 13.213195435704062 99826.89389816977 8.423955715027967 0.21769589994177346
0.49786275644670214 13.172016328693834 84653.65440977042 8.849090937379785 0.22083051267402773
0.5163991527058557 13.136436423153313 71948.66142594483 9.292302045839616 0.2239991608222775
0.5353146244348705 13.105885268114866 61286.69059799 9.754479071620075 0.22720484188352322
0.5546213395952673 13.079851673255456 52310.02405543298 10.236431404167021 0.23044890647522118
0.5743019623764372 13.05788607410574 44738.325811194074 10.738638097899186 0.23372815247577206
0.594357036183062 13.039558047556104 38336.79371557312 11.262328020757698 0.237048570058682
0.6147920467472592 13.024523394784183 32908.85853505294 11.80844600268618 0.24041187001728315
0.6355922637518271 13.012442034969792 28299.82096512611 12.377970796992194 0.2438196848497482
0.6567634734244064 13.003026666143533 24375.978645057163 12.971602290932967 0.24727008908019357
0.6782937764047854 12.995989072922967 21033.0095527195 13.590645377224964 0.2507676245068204
0.7001798934019148 12.991061137365744 18040.49569431658 14.236307804143289 0.25431504610898004
0.7224109801634008 12.988008891707336 15733.575327388167 14.909778930680343 0.25791433787878876
0.7449981671953104 12.9866410987482 13637.553343882648 15.612101731964472 0.2615655314433739
0.7679149171348181 12.986765218373712 11838.461750502354 16.344515546992188 0.26527025554800826
0.7911592184796883 12.98812887104838 10291.787111924876 17.108648751636867 0.26903332990142587
0.8147318842490995 12.990650230092053 8958.88213833574 17.905955957695337 0.27285718622737637
0.8386117386694593 12.99411723176327 7809.564194007967 18.737816797532325 0.2767430359138864
0.862789893076761 12.998395173885681 6816.604891474545 19.60554665882899 0.2806911022789213
0.8872637487150435 13.003342052016889 5956.9289855633 20.511244609837032 0.28470787021246624
0.9120222714701465 13.008834486442954 5212.661204935422 21.456704193611387 0.28879635190088
0.9370401657756185 13.014719593769648 4566.549232825702 22.443427617605256 0.29295661674029755
0.9623166878405786 13.02093085435047 3983.0481080136647 23.473403393442496 0.29719217112416857
0.9878399989011677 13.02731867478775 3517.6513847772258 24.549070636650207 0.30150925682819657
1.01357999868045 13.033770604826728 3093.1243614582795 25.672392732221116 0.30590966474028364
1.0395415027404586 13.040230180984882 2722.254430484899 26.84528771106764 0.3103943378130357
1.0656912297144612 13.046557251573121 2399.1450865858556 28.07087193596587 0.3149721639169306
1.0920195406691968 13.052681332215167 2116.295817042104 29.351224196062304 0.3196437554258676
1.1185163507382505 13.058519817179969 1869.1947806759295 30.689051121388083 0.3244134644095254
1.145146165849432 13.063983934332578 1652.552722895493 32.087802458724944 0.32928968844116135
1.171906531749748 13.068997394372095 1462.6632091011563 33.549363153608034 0.3342697633005
1.1987604742821232 13.073456601029344 1295.8256282184186 35.07830078747576 0.33936742942955306
1.225704370149908 13.077324618155785 1149.456501203717 36.6766702018272 0.344579644370849
1.2526981970275377 13.080485610755707 1020.4809982993902 38.349467253833 0.3499205064936254
1.2797372841648438 13.082934622728377 907.0107345770429 40.098970397508324 0.35538683459848774
1.306780132672946 13.084519416304293 807.0246878035612 41.9306454268379 0.3609931580946103
1.3338148446034928 13.085235650686919 718.8265005426184 43.8479191254602 0.3667410977980884
1.360822722694431 13.085039349945317 640.8553919950109 45.85556586729774 0.3726388908974101
1.3877530518752668 13.083780308192573 572.0344982836226 47.95887339016044 0.3786962490909513
1.4146071982908812 13.081497275935599 510.9974463561562 50.16254325981462 0.38491855073561115
1.441329510499136 13.07804557156065 457.05275305994104 52.471895668371985 0.3913132956084537
1.4679228444377332 13.073454983349711 409.1647916733995 54.89329306132432 0.39789190489439075
1.4943305197407282 13.06759435022836 366.668590441124 57.43292183328374 0.4046634337918214
1.5205418753346345 13.060453946700102 328.96005635591666 60.09740617700078 0.41163764710820233
1.546524351246848 13.051972341827899 295.4019933743659 62.89384749156505 0.4188250776794004
1.5722400047826355 13.04209829709946 265.56539663082 65.82986756321127 0.4262370895573858
1.5976637083064507 13.030776827806736 239.01850914387745 68.91365590164732 0.43388594652439033
1.622750363503453 13.017965755902342 215.31496019938913 72.15402166242025 0.44178488656000353
1.6475019276564202 13.003634657646412 194.16811265324858 75.5604506398084 0.449948202963396
1.671851810317596 12.98770608349509 175.30555343252036 79.14294253756141 0.4583903918765553
1.6957892349513384 12.97016589699621 158.425539086737 82.91154936548217 0.46712415316216455
1.7192544152593878 12.950927418435363 143.34324795215423 86.87906625965869 0.4761713020383217
1.7422563056273297 12.930033898754365 129.82887824852776 91.0571471214647 0.48554650095026
1.764737145903469 12.907394789349434 117.7280803961512 95.4597086152234 0.49527100064846397
1.7866650539823448 12.882968443264438 106.86388941242532 100.1005817845619 0.5053629853794902
1.8080045754082774 12.856723791414703 97.12433675108102 104.99619762517578 0.515847806615768
1.8287167587962003 12.828601757436214 88.36422225761405 110.16308643455756 0.5267479861773935
1.8487978476959868 12.798646482864202 80.49818642098491 115.61877297040671 0.53808653428234
1.8681874291588263 12.766752171461844 73.41273696077988 121.38364031857598 0.5498934566811182
1.8868593136323242 12.732913341982252 67.0354683038876 127.47900452144854 0.5621981877342799
1.9047842522698835 12.697110577756929 61.28183868691052 133.92739349463048 0.5750303663167372
1.921929642522202 12.659309135755292 56.097275241796055 140.75426151723354 0.5884255145785985
1.9382462042147182 12.619433282729577 51.412464841414874 147.98737637642606 0.6024222630502225
1.9537572469062876 12.57764087607879 47.18147133910801 155.65534706786048 0.6170567955226253
1.9683673030243047 12.533692143968324 43.35582761115509 163.79167181052082 0.6323762443186589
1.9820872886765726 12.487708160624422 39.89553263022564 172.42996859521986 0.6484217018059717
1.9948817967670407 12.439646642337658 36.76014637892071 181.6097571300037 0.6652471697408934
2.006715632692159 12.389489903018045 33.91757926698188 191.37288108865906 0.6829065935172192
2.01757515544151 12.337245525716838 31.34046791628618 201.7653387413654 0.7014591596342843
2.027416507433669 12.282877198191628 29.00313798326855 212.83718369607135 0.7209679637523015
2.036232049812412 12.226428220220996 26.880418743487965 224.64357269549006 0.7415023418334437
2.043983291278887 12.167852196585118 24.951404233144327 237.24591199276566 0.7631403201824364
2.050649706988881 12.107165511190805 23.1965366746423 250.7108007384818 0.7859637335041365
2.0562235209498905 12.044415180172335 21.60185789092605 265.11134253117723 0.8100608777873902
2.0606838164009296 11.979605918689808 20.150119000383096 280.52943636770294 0.8355321026626887
2.0639962841462722 11.912727664185782 18.828411458047203 297.05436466064504 0.8624830762421376
2.0661650923673864 11.843846175843078 17.625225969253364 314.78658006407886 0.8910347077045525
2.066539679521975 11.77622212803618 16.61061460098502 334.48895696484647 1.3600647891648887
