M[M_sun], R[km], Lambda[1], P_c[MeV/fm^3], rho_c[fm^-3]
0.24162668629717493 15.618656898711224 2160425.4255784233 3.5677272577965504 0.1711233750220791
0.25364494091257134 15.277273479826466 1723051.5147389402 3.7848534909285956 0.17388859541237586
0.26604320068064324 14.981198986349577 1382851.067586544 4.011472719693628 0.17666752195760713
0.27882084588168476 14.72339892420154 1116380.2973823843 4.247839983247186 0.17945881056633492
0.29197699556125695 14.498302323380853 905632.6742660144 4.4945809343281455 0.18226903599610567
0.3055148676530685 14.301111493024766 738519.3847752401 4.751852949696339 0.18509393919290232
0.31943369671683314 14.128011121817423 604993.5116140146 5.020335481444839 0.18794007659782813
0.3337348402683611 13.975828475710067 497589.75552797364 5.30025643643186 0.1908041464382955
0.34841813847858505 13.841882979509776 410917.05625356757 5.592340088169816 0.19369235720320702
0.3634835551789533 13.723846354303099 340567.4114583128 5.89675923432048 0.19659987360758643
0.3789392652529548 13.619872109189592 283223.9366840251 6.214375755764815 0.19953432981101038
0.3947751269949153 13.528325816099198 236347.75681869828 6.545442367463711 0.20249182019669237
0.41100271115014614 13.447735406535518 197805.69133146552 6.890670968534039 0.2054762160437515
0.42761325757124086 13.376945328132221 166024.47390682242 7.250762662663386 0.20849051601328059
0.4446120509863865 13.314818226146803 139758.89983929053 7.6259698224221975 0.21153016049623002
0.4619949799207083 13.26045906267855 117929.94362977514 8.017254751774223 0.21460151595367458
0.4797654102670487 13.213053119167514 99776.90628316964 8.425316704221853 0.2177061326778835
0.49792524886821365 13.171909688366023 84609.21512770478 8.850587758944334 0.22084135030169771
0.5164688485698229 13.136310443461017 71911.45217901756 9.293958924871111 0.22401082535395359
0.5353907471860916 13.105760276490711 61249.63616415875 9.756307243547313 0.2272173585162449
0.5547011403603488 13.07974911701266 52279.6192903541 10.238435542298047 0.2304622083474496
0.5743868482368633 13.057795160545972 44710.52492720371 10.740823952784403 0.23374218634122826
0.5944481374653663 13.039492013776004 38310.7629658896 11.264721222255181 0.23706352282494636
0.6148887482871848 13.024460912479217 32885.95193480217 11.811060690427478 0.24042777168126042
0.6356969196093781 13.012420514890715 28277.58697637771 12.380821992818822 0.24383656699180484
0.656872017953946 13.002986107744988 24357.849271947685 12.97467690158782 0.24728766229389326
0.6784071949511673 12.995971832892325 21016.13485633202 13.593987066620171 0.2507862301380807
0.7003013521436362 12.991038313937317 18162.32902123538 14.239934492125897 0.25433472106828625
0.7225393381920339 12.988006682664825 15720.80744365045 14.913709688575352 0.2579351212774901
0.7451318014357557 12.986651427144295 13626.286388343891 15.616318501178297 0.2615870847705014
0.7680577940692453 12.986752589434728 11828.999173699827 16.34907543660897 0.2652929854540881
0.7913061841825262 12.98815670385364 10283.314225373182 17.113574649743043 0.26905728287586717
0.814884415652458 12.990688479953402 8950.411408844824 17.911272269951855 0.272882411748899
0.8387731190476323 12.994153207484832 7802.775450459756 18.743499942870336 0.27676914702617617
0.8629583819474699 12.998419914482321 6809.619898008123 19.611670539106665 0.28071857626759805
0.8874432894503229 13.003391502215694 5951.501968098945 20.51783870300203 0.28473676655114555
0.9122047827590254 13.008870711214557 5207.759774419727 21.463799996353938 0.28882673407337145
0.9372301037002481 13.01477283104045 4562.503521695098 22.450995569600952 0.2929880497043492
0.9625179109577264 13.02098749543296 4001.618078929192 23.481538476837894 0.2972252101150061
0.9880440246469584 13.027371181756806 3514.063157668067 24.557811147607516 0.3015439787289146
1.013789549192535 13.033824411984664 3089.9304712048215 25.681704835024068 0.30594560193841003
1.0397596365862976 13.040290087018555 2719.4408072121087 26.855285260219652 0.3104321067534779
1.065914108139871 13.046612249880937 2396.5487884089002 28.081601735909896 0.3150118581125982
1.092251253784393 13.052734617583917 2114.187473393731 29.362648215493042 0.3196848748814346
1.1187542433850677 13.058575056254035 1866.9515771563788 30.701305766642562 0.3244566934647418
1.1453905404893696 13.064030487037682 1650.7107270092413 32.10084772982629 0.3293345107077581
1.1721569091289918 13.069032984371193 1460.9750335553294 33.56335208741113 0.3343169074497359
1.1990186899943427 13.073489284501333 1294.3983818486527 35.09329941758505 0.33941702583318667
1.225967614596403 13.077359024203483 1148.097456813522 36.692634999395956 0.34463114433650827
1.2529671929383996 13.080514487243976 1019.386037752084 38.36648878979301 0.3499741757178725
1.2800141966645893 13.082948816386109 905.9632615379553 40.11719032127101 0.35544320095572624
1.3070674203017336 13.084554406997626 806.1059188288767 41.95004592687824 0.3610518087453951
1.3341024893790132 13.085239506519166 717.9596682059384 43.8687177403605 0.36680292203782366
1.361112313775736 13.085027388092836 640.0475638598715 45.87771901250215 0.3727033092343872
1.3799086591035123 13.079196776123844 589.0628933328626 48.32315175193776 0.9304387217146087
