M[M_sun], R[km], Lambda[1], P_c[MeV/fm^3], rho_c[fm^-3]
0.24162668629717493 15.618656898711224 2160425.4255784233 3.5677272577965504 0.1711233750220791
0.253639856830821 15.277400089414936 1723194.770218134 3.784760493171717 0.17388743624019998
0.2660328446013491 14.981424189596575 1383171.118139423 4.0112772205560905 0.1766651594659057
0.27880412749855626 14.723759429723351 1116761.1750877476 4.247535369417552 0.1794552775049544
0.2919552460950739 14.49862760762927 906112.0460678078 4.494159213262095 0.18226434003415884
0.30548604425351295 14.301483377690438 738864.9910135037 4.751299802892399 0.18508796415172324
0.31939593978871844 14.128508698004708 605253.9394578756 5.019646835090126 0.18793293162610492
0.3336917483109929 13.9762250508061 497846.12373589556 5.299414161421668 0.19079566612652984
0.348368004625832 13.842302389967744 411159.26786592725 5.591342082383639 0.1936827012226838
0.36342606025176327 13.724249681099806 340817.2065811993 5.89558307746959 0.19658882689354154
0.37887281683799356 13.62032845207862 283443.21465222514 6.213007215955635 0.19952185037577985
0.39469980504309166 13.528737553199363 236527.94264545222 6.543882866418249 0.20247814547930637
0.4109199950292069 13.44811506477765 197985.05020812486 6.8888904019492685 0.2054610519915298
0.42752097604088335 13.37733178330837 166196.86917761137 7.248744323499371 0.2084738188106327
0.4445112768841437 13.31514490479166 139893.59372962324 7.623719289919081 0.21151224481041758
0.4618858069606061 13.260777910108763 118060.47488081774 8.014732773660842 0.21458200641403585
0.4796440805082056 13.213353910673886 99885.78820077484 8.422503616422041 0.21768498219025353
0.49779436678036243 13.172170126893885 84708.26822467007 8.847493934370144 0.22081894968989105
0.5163256523181813 13.136566835046342 71995.71948056754 9.290534298987113 0.2239867157742297
0.5352364866841641 13.105993702616784 61324.62407354703 9.752528598837477 0.22719148791440813
0.5545368194775298 13.079956599996859 52348.756110611735 10.234285495449505 0.23043461556028422
0.5742088439486793 13.057953500383174 44769.076668699105 10.736306077741892 0.23371318018399279
0.5942623944741801 13.039661091649332 38029.44510412836 11.25977482624724 0.2370326176531773
0.6146904055967558 13.024581418597409 32934.7877487557 11.805656555539425 0.24039490552454107
0.635483457816828 13.01249612857862 28321.504628398394 12.374929078433485 0.24380167460845753
0.6566472311581426 13.00307406811953 24395.414055723697 12.968322268700268 0.24725134181814787
0.6781713894235508 12.996017467072875 21050.286863495778 13.58708048468132 0.2507477761402292
0.7000499141502219 12.99108747734868 18191.894477392896 14.23243893309915 0.2542940572947453
0.7222750350404437 12.988024825882505 15746.905274447457 14.905585745466828 0.25789216692793177
0.7448536053045576 12.986665121715745 13649.736214535615 15.607603494677415 0.2615425394381612
0.7677647011151562 12.986751929318253 11849.197111375 16.339651356812812 0.2652460087799451
0.7910019823232162 12.98812601668006 10301.418380763642 17.10339420428606 0.26900777881699794
0.8145661649087866 12.990643987524143 8967.868006637764 17.90028503125683 0.27283027808691634
0.8384391267614264 12.99409301340761 7816.615816810715 18.731754641615744 0.2767151834440934
0.8626112957369857 12.998359855143525 6823.182988560554 19.599014471291355 0.28066179647307504
0.8870767020647035 13.003300248120496 5963.226215558012 20.50421096213852 0.284677047677667
0.9118273887806624 13.008795482977114 5217.888467465682 21.44913550551201 0.28876394497023206
0.9368378161871179 13.014672185592953 4571.463598732917 22.435355412188617 0.2929230893946136
0.9621065126354961 13.02087219569625 4010.107766889361 23.464726398959698 0.2971569312713877
0.9876218079868733 13.027271647613638 3521.3969088137687 24.539748025737172 0.3014722225206903
1.013359689820844 13.033726877913121 3096.5515717374683 25.662460584349777 0.3058713346688245
1.0393102666728726 13.040174754529387 2725.4093310592543 26.834624640219015 0.31035405465146393
1.0654541997226104 13.046507082041988 2401.6879666126088 28.059428046872835 0.3149298279949911
1.0917736494080807 13.05263121201532 2118.8217145116178 29.33904003881678 0.3195998999408944
1.118262588716824 13.058469542806858 1871.4292736501711 30.675981275923426 0.324367359682744
1.144884499721968 13.06392662209381 1654.619185721606 32.073863707190014 0.32924171781810146
1.1716386568876966 13.068945337394236 1464.4294655298893 33.53444408330911 0.33421948449537214
1.1984852474079275 13.073406993934173 1297.4520474158362 35.062305146141206 0.33931453618008783
1.225423448183698 13.077284511547322 1150.8389365151752 36.65964439515447 0.344524721754061
1.2524104660878945 13.080455366784475 1021.9035455542886 38.33121545986514 0.34986268881152627
1.279445243089214 13.082906872244921 908.2156903097302 40.0795401815285 0.3553267240014619
1.3064807343553255 13.084510700921392 808.0749210392086 41.9099565007816 0.36093061233678353
1.3335079027731847 13.085231133059382 719.7897521491894 43.82573961856811 0.36667516883320883
1.3605084998917196 13.085046839530534 641.7454494931278 45.83194223853269 0.37257019659398877
1.3874372529596029 13.083802075446586 572.7649791970958 47.933704773539716 0.37862461108344253
1.4142861032617815 13.081526674782754 511.69508629066064 50.135553781993984 0.3848429232444558
1.4410125047986309 13.078111795327501 457.6544591059154 52.44312815991821 0.39123431080849363
1.467594553703033 13.07351704174841 409.7314025257192 54.862620192421346 0.3978093390476991
1.4939993895232477 13.067673241378417 367.19200843497003 57.40020596266838 0.404577045868537
1.5202076105454696 13.060555094035943 329.418310904856 60.06249842899381 0.4115471773669259
1.546187327096563 13.052092210705297 295.8185280168544 62.856586741030625 0.4187302461069293
1.5719014544302228 13.042240205179747 265.9673962270988 65.7900793181954 0.42613759415270325
1.5973182524385563 13.030929278852238 239.34281995690293 68.87115107219786 0.4337814614100482
1.6224097568973213 13.018148283895341 215.61392177921866 72.10859520267796 0.44167505990202666
1.647161618995358 13.003841277445588 194.45207595076243 75.51188004885663 0.4498326546785629
1.6715149928115192 12.987944436872446 175.5575766492862 79.09121154103634 0.45826965214384996
1.6954505416279417 12.970433145571949 158.66750913395325 82.85621006058396 0.4669969836006827
1.718915055993005 12.951221359366018 143.54897044620807 86.81980575107178 0.4760371061430973
1.7419284327107707 12.930377262036187 130.025332705813 90.99394073750146 0.48540589001137535
1.7644087684815164 12.907758419934144 117.90108902219949 95.39194775963209 0.4951223182010328
1.7863365434520089 12.883356286879751 107.02054401490592 100.02820746509363 0.5052068047379487
1.807679499311531 12.857136139551192 97.27057070674591 104.91883471273727 0.5156835263090458
1.8284072573830483 12.829081589423096 88.4979717216411 110.08000892252639 0.5265737762291066
1.8484850682804945 12.799134360533824 80.61404438482654 115.52982995429993 0.5379028087029387
1.8678809122331033 12.767279346957892 73.5201746864626 121.28835318767675 0.5496994870014453
1.8865609094687938 12.733484130363045 67.13160240010214 127.37683855762472 0.5619931414600821
1.9044947076459544 12.697715666770659 61.37362456236932 133.81813892132098 0.5748146638657803
1.9216493664408072 12.659958699368431 56.17954953472742 140.6369159686652 0.5881968808257305
1.9379831575312911 12.620151436296114 51.48985818495502 147.86123749664048 0.6021796286391544
1.9534813999763518 12.578312995826426 47.25485230515797 155.52005864841774 0.6168004104252196
1.9681208277423476 12.534471157270898 43.42051393471045 163.6460294517594 0.6321035990869891
1.981855228931113 12.488536722273965 39.95279887336559 172.27340554932783 0.6481326252599814
1.9946601803827169 12.440518028809988 36.81195933589475 181.4413211239 0.664940361220278
2.0065130564435725 12.390411542106158 33.96824755130738 191.19147891523508 0.682580484654463
2.0173857615421005 12.338217469895307 31.38584063232556 201.5697645034779 0.7011120346538418
2.027243484554048 12.28390068561436 29.044556263550113 212.62659856068757 0.7205995576568561
2.0360774596857176 12.227502827724656 26.91767788500513 224.4160286992709 0.7411090266189245
2.0438472313420544 12.168981530586304 24.985489530311366 237.00030114645182 0.7627215311272746
2.050527917259395 12.108349697826808 23.22344746706599 250.44481674381734 0.7855153446118622
2.056126505359026 12.045644899079527 21.631309474816824 264.82353766306215 0.8095819537657363
2.060606266341679 11.980891467551704 20.17677660377844 280.2177843657126 0.8350202708816369
2.0639484660905154 11.91408547035493 18.85403529127509 296.71668738364986 0.8619359785480144
2.0661338699173397 11.845242662171454 17.648569084078648 314.4197677744142 0.8904475133752241
2.0671572996884215 11.774427541670864 16.551135313728903 333.43718539222874 0.9206840826908197
