M[M_sun], R[km], Lambda[1], P_c[MeV/fm^3], rho_c[fm^-3]
0.24162668629717493 15.618656898711224 2160425.4255784233 3.5677272577965504 0.1711233750220791
0.2536391087724601 15.277421970400013 1723339.0231358483 3.7847492530665368 0.1738872961377113
0.26603150372841117 14.981467329307872 1383200.7469030311 4.011253592158912 0.17666487393067032
0.27880301653663714 14.723738720498755 1116738.3947782554 4.247498553906211 0.17945485050050267
0.29195218874446266 14.498707099698821 906187.392080631 4.494108245152244 0.18226377249242656
0.305483317389646 14.301511900896347 738955.3067681292 4.751232952256903 0.1850872420372735
0.31939264413570084 14.128491496336954 605289.9859164604 5.019563610104835 0.18793206813476063
0.33368697384107043 13.976263344680492 497911.35842931754 5.299312371801584 0.19079464127395512
0.3483622626936119 13.842351366941243 411207.6050376138 5.591221474617244 0.19368153430936588
0.36341768731077523 13.724340736737474 340833.2847649212 5.895440942892355 0.19658749193551325
0.3788648130732692 13.620347804057475 283472.4710808173 6.212841835465083 0.1995203423048371
0.39469131317309136 13.5287623699789 236548.84867643152 6.543694412350453 0.20247649299172077
0.4109100354940961 13.448165917924586 198002.2696014335 6.888675237480081 0.20545921956061994
0.4275116004427598 13.377322371260112 166212.16646441957 7.248500430675836 0.20847180114780797
0.4444993591713422 13.315203743647825 139913.00157410023 7.62344734341437 0.21151007994137905
0.46187322371465156 13.260807255680083 118078.72034281606 8.01442803176545 0.21457964898910176
0.47962883722088495 13.213388535285167 99902.15711721254 8.422163704160262 0.2176824265252336
0.49777960841141217 13.17219031176516 84716.91944869894 8.847120105525972 0.22081624300933447
0.5163091196644681 13.13659165291885 72011.20082643161 9.290120506074313 0.2239838026463266
0.5352198492844928 13.106003413421858 61337.74717162633 9.752072037864885 0.22718836205631798
0.5545163335688537 13.079988832616316 52356.32708292735 10.23378319211625 0.2304312704160339
0.5741881873292266 13.057983652258773 44777.506230075756 10.735760214791284 0.23370967557476272
0.5942403665192346 13.039655986135408 38369.40297097765 11.259177197908496 0.23702888366050195
0.6146656173311863 13.024603986598104 32940.85285017099 11.805003633414515 0.2403909346686451
0.6354577040973579 13.012511545940134 28326.234041928186 12.374217114086186 0.2437974590147273
0.6566203672405009 13.003084985311629 24401.91771982315 12.967554531444431 0.247246953746819
0.6781422001084221 12.996030241150876 21054.549519696036 13.586246077062944 0.2507431303821613
0.7000201472430174 12.99108599000077 18195.690428526657 14.231533383888092 0.25428914464607993
0.7222419789217909 12.988021676146515 15750.046549747898 14.904604296261649 0.2578869776360239
0.7448210580268069 12.98665341406734 13652.752403862858 15.606550653610173 0.26153715801300254
0.7677306262563024 12.986746855642995 11851.97597364652 16.338512872682937 0.2652403337220993
0.7909642809316506 12.988119094055776 10303.565247466995 17.10216436684309 0.26900179853397066
0.8145282727805828 12.990631399556383 8970.017839879263 17.898957751816113 0.2728239802408752
0.838397987224645 12.994097600296746 7818.530764922369 18.730335805784843 0.2767086646275758
0.8625693003999746 12.99835179705137 6824.794117656391 19.59748563979358 0.2806549375703281
0.8870333455017654 13.003283680939534 5964.665206823912 20.50256478146613 0.28466983385871625
0.9117803713747537 13.008780843611719 5219.097240242037 21.447364118805123 0.2887563604053237
0.9367927147382672 13.014661473155307 4572.599750618621 22.433466196077113 0.292915242666443
0.962057808449577 13.020853722657444 4011.1314970460207 23.462695657663634 0.29714868382759235
0.9875717564916578 13.02724862335467 3522.393709054428 24.53756620708686 0.3014635551909506
1.013307918605811 13.03371858743403 3097.3010812897264 25.660136130772973 0.3058623641548071
1.0392541352318603 13.040160180119507 2726.075427316982 26.832129150717485 0.3103446271414888
1.0653980900055846 13.046495861801526 2402.3454887898943 28.0567498481138 0.31491992017321135
1.0917154649102971 13.052616448986527 2119.396590961599 29.336188618856156 0.3195896365798169
1.1182026710273936 13.05845919233263 1871.8899723387387 30.67292261188606 0.3243565700471557
1.144823366106792 13.063921565205828 1655.0924900867183 32.07058345862019 0.3292303734424989
1.1715768925322185 13.068940541632477 1464.7148900554514 33.530952719697204 0.3342077182400254
1.198427421858364 13.07341341194308 1297.8145909312866 35.058561882064 0.3393021582205857
1.2253582011859196 13.07727886888246 1151.2092050517335 36.65566008788371 0.344511868995563
1.2523440600387918 13.080445757206316 1022.1072977535456 38.32694429769276 0.349849158706096
1.279376229190783 13.082898545623104 908.466741212576 40.07499329265767 0.355312657446313
1.306411229031659 13.084505199578995 808.3293595334774 41.90511510256619 0.36091597605650977
1.3334379819474083 13.085234010999626 719.9716518907475 43.82054946826822 0.3666597410223695
1.3604392079563603 13.085049904986205 641.966012190262 45.826414204968366 0.37255412182331027
1.3873634199318725 13.083806135804762 572.9612401643104 47.92781526104269 0.37860784762969996
1.4142110276691096 13.081536691798577 511.85623621050945 50.1292382570774 0.38482522644765427
1.4409365629113835 13.078122888028137 457.79799516845713 52.43639664203972 0.39121582858248105
1.4675174820867738 13.073533453522218 409.85840342600034 54.85544289654485 0.39779001905800815
1.4939212652264884 13.067690822127792 367.2918007305987 57.392550692181636 0.4045568317367688
1.5201293845873767 13.060577123525341 329.5309928927352 60.054330359898934 0.4115260083388467
1.546108596168334 13.05212060122166 295.91281228306906 62.84786818461021 0.4187080566876834
1.5718224822633886 13.042272349545406 266.02687942559385 65.78076945976039 0.4261143137056225
1.5972385142565224 13.030968250873237 239.42001757115037 68.86120568322858 0.43375701371511344
1.6223355951645815 13.018193109197583 215.6101098014781 72.09796632334186 0.44164936266957344
1.6470814158969718 13.003889398772376 194.51762171410581 75.50051563751265 0.449805619013293
1.6714359034749549 12.987999991322365 175.6178546245653 79.0790550869068 0.45824118195359814
1.695370780707438 12.970494826164494 158.72385362743208 82.84326220973625 0.4669672294771449
1.7188352111455407 12.951286517350221 143.59822816805615 86.80594062085449 0.47600570844492895
1.7418510178138964 12.930452151292226 130.07222540696952 90.97915255452858 0.4853729917475952
1.7643306290634833 12.907843248188662 117.94420649128814 95.37609419010798 0.49508753192956684
1.7862593929253632 12.883448120736373 107.06186076303793 100.01127470874769 0.5051702645843609
1.807603870476419 12.857235973723673 97.29941963553954 104.9007350369393 0.5156450916095504
1.8283330884918894 12.82918693699063 88.52908420643551 110.06057013230777 0.5265330100063005
1.8484122421505074 12.79924855342531 80.64357985600691 115.5090215790603 0.5378598257801119
1.8678102811758184 12.767403739604989 73.54569812527151 121.26606088813425 0.5496541080487932
1.8864911155908664 12.73361629373485 67.1548318628139 127.35293728803805 0.5619451718027332
1.9044268992740245 12.697857704078857 61.39178131035686 133.7925796167799 0.5747642018625226
1.9215655988111078 12.660048448699474 56.20065747903425 140.60946423723377 0.5881433944135362
1.9379214454759444 12.620313584095587 51.511396868583546 147.83172910061393 0.6021228677712631
1.9534256569142507 12.578497576221936 47.268363929181405 155.48841028385644 0.6167404336063299
1.9680633697026317 12.534655215578276 43.43799981240724 163.61195015091428 0.6320397878443764
1.981801112005591 12.48872931314772 39.96702039454642 172.23678148513977 0.6480650029298505
1.9946088442286725 12.440721824171328 36.82562104450634 181.40192028179558 0.6648685920400612
2.006465127050338 12.390626008419892 33.97928749846045 191.14904568511858 0.6825042019277725
2.0173481927602723 12.338463640832751 31.398636341430144 201.52401693374745 0.7010308372301958
2.0272038643510184 12.28413846788482 29.05530998278687 212.57733737610292 0.7205133733743948
2.036028705622412 12.227718315885728 26.927222801730803 224.3628047487416 0.7410170277533521
2.043815036410308 12.169244080093248 24.99433660983917 236.94285223660168 0.7626235754586334
2.0505045893672387 12.108623637723474 23.236900965748223 250.38260370860448 0.7854104674970595
2.056103771807284 12.045933597667783 21.638141034746763 264.75622203227124 0.8094699366451445
2.0605892111723145 11.981191187180828 20.184006318227073 280.1448547947501 0.8349004361989687
2.063935840709798 11.914396597601291 18.859423057055515 296.63770996466735 0.8618080209780008
2.066125338880824 11.84556770820117 17.653482931833643 314.3339779369702 0.8903101807190386
2.067154584802969 11.774767103170158 16.5555368945862 333.34401790535225 0.9205369320874647
