M[M_sun], R[km], Lambda[1], P_c[MeV/fm^3], rho_c[fm^-3]
0.24162668629717493 15.618656898711224 2160425.4255784233 3.5677272577965504 0.1711233750220791
0.25364432154734035 15.277280830849312 1723204.0467365754 3.784825712770762 0.1738882491710391
0.26604061286664865 14.98125052976698 1382900.291915714 4.011414323959486 0.17666681627962283
0.2788157459356206 14.723481660809266 1116446.0680825035 4.247748993800995 0.17945775522587729
0.29197092116024165 14.498388274559355 905857.2290950493 4.494454963002855 0.18226763327616213
0.3055062992314365 14.301208418296556 738608.1185748101 4.751687718564494 0.18509215438133003
0.3194231793406013 14.128121269598028 605079.9704607226 5.020129772813329 0.18793794229137997
0.3337211596654011 13.975974245685022 497673.4427307281 5.300004833835735 0.19080161321763672
0.3484031989351238 13.842009102498144 410995.3814445722 5.59204196284616 0.19368947275868917
0.36346670022061095 13.723954923040731 340630.2881959799 5.896407887620631 0.19659657368502856
0.37891962085328634 13.619991757578594 283295.82043197134 6.213966935078806 0.19953060185860613
0.3947516723932262 13.528453175225419 236404.35225937073 6.544976496681353 0.2024877351392917
0.4109777795528457 13.447854331096647 197856.52325348047 6.890139052943102 0.20547168602736934
0.4275847695263005 13.377066092685038 166070.39112896362 7.250159709861217 0.2084855279392718
0.4445823882380813 13.31490381039407 139793.64507859858 7.625297498381686 0.2115248083645646
0.46196393646435596 13.260582374239585 117976.3413298966 8.016501328109952 0.21459568761251457
0.47972917687128513 13.213136602595403 99807.25307149674 8.42447630468943 0.21769981404825667
0.4978865104376167 13.171980720840923 84639.38592602423 8.849663481794341 0.22083465814021852
0.5164250549618974 13.136398964318737 71941.23445272807 9.292935810518248 0.22400362256512568
0.5353442790225134 13.105843891213805 61272.723652082794 9.755178353620524 0.22720962953824983
0.5546513030019047 13.079799436858622 52302.50038162995 10.237200761652856 0.2304540300959495
0.5743343973065255 13.057832636442807 44728.07027339035 10.739474188016196 0.23373352043331155
0.5943912241306173 13.039540183904917 38322.281602638104 11.26324341702254 0.23705428947111
0.6148293711018002 13.024496153733528 32899.50708064942 11.809446112778529 0.24041795235529148
0.6356342809102151 13.012427633912955 28290.469392540446 12.379061365961265 0.24382614218953752
0.6568051292497883 13.003009940095746 24369.417840395556 12.972778310716363 0.24727681072702584
0.6783375065096376 12.99599136707006 21026.940398390154 13.591923547457927 0.2507747410162352
0.7002258883556132 12.99106147416976 18171.075821190698 14.237694978108303 0.2543225715954413
0.7224559412884735 12.988023317407762 15728.007295242283 14.911282401993699 0.25792228729836025
0.7450488539481149 12.986640016507666 13633.031489846026 15.61371459364292 0.2615737753224207
0.767970108186959 12.986760657342462 11835.497574071413 16.346259640376374 0.2652789494160947
0.7912153618013269 12.988139289722907 10288.03145689143 17.11053282989402 0.26904249153598797
0.8147909469773296 12.990668222335692 8955.691532102206 17.907989354313727 0.2728668345489358
0.8386742311427636 12.994130882992485 7806.871823198769 18.73999049363473 0.27675302292277637
0.8628527732161634 12.998416754083632 6813.624040257448 19.6078889174584 0.28070161051620623
0.8873346232144858 13.003364868890351 5954.762425087735 20.51376670411422 0.2847189224206458
0.9120920358751264 13.00885072831647 5210.750626419625 21.459418168608902 0.2888079723558875
0.9371116733948189 13.014744442317896 4564.898159330386 22.446322167979453 0.2929686390546449
0.9623967334162074 13.020952783256584 4004.2255629626393 23.476514843278412 0.29720480764645407
0.9879179777044167 13.027337086925224 3516.223384622469 24.55241363106819 0.3015225369580253
1.01365969927513 13.033794916044187 3091.508899855713 25.675954331063153 0.3059234096361403
1.0396262525186795 13.040242180828542 2721.192881882069 26.84911145495177 0.31040878322889015
1.065776221172898 13.046579245805889 2397.9682695182746 28.074975723433973 0.31498734561123864
1.092108591439722 13.052709586283477 2115.605566268289 29.3555934827341 0.3196594821751304
1.1186074103375816 13.058542262420206 1868.4314002991205 30.69373807120006 0.3244299979286939
1.1452385772631162 13.063995060863272 1651.9328653819048 32.09279177465142 0.32930683123925686
1.1720021381095103 13.069007998103501 1461.9489523249015 33.55471335857915 0.3342877940428819
1.1988589175055986 13.073464508646685 1295.3831493645207 35.08403713275333 0.33938639796825926
1.225805493296743 13.077333617919777 1148.9631433921402 36.682776041242775 0.34459934086364
1.2528009433712515 13.080495783265073 1020.0728764233106 38.355993140112524 0.34994112592321036
1.2798450350178725 13.08293342755792 906.6054772581726 40.105938661102655 0.35540839207810215
1.3068883557239086 13.084523449327554 806.6851103828801 41.93806517443301 0.3610155891156771
1.3339264539368954 13.085236243659772 718.511094264872 43.85587354265951 0.3667647424397264
1.360934143524858 13.085035141138158 640.5435709195848 45.86403828728483 0.3726635275438413
1.3878646226234181 13.083771874385976 571.7280097921322 47.967900000205475 0.3787219417369926
1.4147222975127949 13.081480063181381 510.7702974107104 50.17222303689901 0.3849456745377351
1.441445265659721 13.078027775611977 456.8206185719792 52.48221324646502 0.3913416238122347
1.4680408774398468 13.07343149418717 408.97965477480784 54.90429412427725 0.397921517777362
1.494449602830581 13.067563564137526 366.49285046028274 57.44465576533869 0.40469441783727456
1.520661912215281 13.060416326544964 328.8112389417154 60.10992639409112 0.41167009551480427
1.5466453191869236 13.051929465378945 295.2543776464548 62.907211805673064 0.4188590909213154
1.572361582685452 13.0420486137266 265.4291516284063 65.84413858346281 0.4262727760003187
1.5977859201758686 13.030719115319924 238.89505892239836 68.92890147627524 0.43392342310361304
1.6228730333872623 13.01789573101538 215.20609008975768 72.17031536623129 0.4418242795271373
1.6476248720021844 13.003555622687776 194.0808469825651 75.5778723123649 0.44998964870954367
1.6719736912370935 12.987622295476607 175.20075365443583 79.16148791162122 0.45843365802206393
1.6959105483106214 12.970068279071102 158.34795753221982 82.93139937377168 0.46716976842340124
1.719391353411747 12.950858489539666 143.26250719436445 86.90032308097004 0.4762194382800368
1.742373036340174 12.929918328425343 129.76555835044306 91.07981960393185 0.48559693887830857
1.7648561952824902 12.907268426799897 117.66751508765473 95.48401516259307 0.4953243346407813
1.7867831760887314 12.882831195218527 106.81402580013538 100.12654356097609 0.5054190097666722
1.8081211235155035 12.856572813506054 97.07439129501988 105.02394925069217 0.5159067372507217
1.8288308945367526 12.828438044969003 88.32091722772319 110.19277474680241 0.5268100565409759
1.8489109347753685 12.798470638521033 80.45589429308126 115.65067955436852 0.5381524422746895
1.868286445109345 12.766530557691063 73.37870399155739 121.4178232245465 0.5499630405510367
1.8869653946436105 12.732709408918042 67.00103830652203 127.51564387985532 0.562271704195593
1.9048890158469707 12.69689245095634 61.25074428142479 133.966588136142 0.5751077487089091
1.9220300388267277 12.659075476468518 56.06865771030971 140.79635943442764 0.5885075373303215
1.938343678799561 12.619187257378133 51.386633366588505 148.03262966046069 0.6025093099935545
1.9538394214939623 12.577341154912988 47.15568562232494 155.70388355506634 0.6171487770244513
1.9684553417302215 12.533411029898524 43.33656814492546 163.84378561722718 0.6324735933426823
1.9821708320393936 12.487408947744095 39.8764404726705 172.4861395365736 0.6485254153075777
1.9949607300798002 12.439333424216345 36.7424175063952 181.67018882233356 0.6653572469064051
2.0067958777725687 12.38917245256198 33.900417158078334 191.43796594809777 0.6830235973496076
2.0176421806711806 12.336897228942565 31.325145349386194 201.8355096474541 0.7015837060708026
2.0274784106696444 12.28251102852188 28.98976917080472 212.9127417416032 0.7211001480324654
2.0362875942923915 12.226045552717311 26.866950148024106 224.72521719859608 0.7416434663007423
2.044032639063182 12.167449221098144 24.93988686809297 237.3340406876891 0.7632905877029207
2.0506862276695768 12.106743907828276 23.180413382516125 250.80611756420782 0.7861242212837933
2.0562644405056734 12.04399515887173 21.591678591111474 265.21461535610325 0.8102327297680917
2.0607103863940095 11.979147762961048 20.14009482750109 280.6411249846733 0.835715297989818
2.0640163593939165 11.912248207720326 18.81871081093364 297.17553829185994 0.8626793992367321
2.0661763056733844 11.843347139113805 17.617107319501393 314.9182116807679 0.8912454240329253
2.06716912993305 11.772452368727079 16.521799728395575 333.97850834572466 0.9215390590552941
