M[M_sun], R[km], Lambda[1], P_c[MeV/fm^3], rho_c[fm^-3]
0.24162668629717493 15.618656898711224 2160425.4255784233 3.5677272577965504 0.1711233750220791
0.25363089814869527 15.277623005743031 1723503.5061895668 3.784574781913023 0.1738851214389504
0.26601226561118213 14.981857044126356 1383609.854405396 4.010886840234358 0.17666044195010427
0.27877219301805695 14.724319586280329 1117230.235503917 4.2469271353047455 0.17944822290583512
0.29191039179741163 14.499347557720927 906702.7803625724 4.493317188048909 0.18225496388798615
0.3054295286389389 14.302230868242399 739523.6379253786 4.750195422844544 0.1850760347394654
0.3193277813017339 14.129206830197951 605843.855236719 5.018271989510661 0.18791866707257632
0.3336088217583865 13.977022718546477 498425.2717969198 5.297732686194294 0.19077873646106214
0.34826808644134716 13.84310165686884 411699.5495895639 5.589349804408993 0.19366342538522233
0.36331041889455956 13.725103818741411 341299.31477872445 5.893235275356247 0.19656677583924512
0.37874291431725104 13.621083546117895 283879.9768286967 6.210275514670348 0.1994969405492405
0.39455391735558143 13.529491755911655 236922.73748983885 6.540770127161934 0.20245085096113324
0.41075455723095006 13.448883272607626 198328.55305645886 6.885336583648354 0.20543078618357724
0.42733952435620903 13.377997669298114 166500.69469407946 7.244716121908917 0.2084404945312145
0.44430911117483096 13.315837609181543 140175.95982535344 7.619227861574939 0.21147649015281925
0.4616644733231242 13.261421484209805 118313.94634724045 8.009699843815655 0.2145430726327343
0.4794040204207163 13.213915854721014 100109.08829605213 8.41688999244688 0.2176427755856627
0.4975330276467549 13.172707721823908 84908.41512329319 8.841320333438876 0.22077425018137192
0.5160403812283069 13.13706687220873 72180.20434882674 9.283700900762865 0.22393860822471828
0.5349323662443735 13.106438530403196 61481.402894428196 9.744989135339857 0.22713986875643286
0.5542092065448082 13.080362602066579 52485.84098086942 10.22599089011452 0.23037937672448924
0.5738590766849072 13.058320594407549 44892.249165589645 10.727292380006581 0.23365530945243798
0.5938899749699116 13.039940314107763 38470.18954221179 11.249906609678202 0.23697096085747574
0.6142908789110111 13.024848027080997 33029.55576246638 11.794875606184965 0.24032933936484913
0.635059842094329 13.012720719707541 28408.18049333794 12.363173554041389 0.2437320692762371
0.6561947005750579 13.003233399639809 24473.973593612027 12.955646147004202 0.2471788903046215
0.6776976117767161 12.996157376935773 21119.39182861913 13.573303942086662 0.25067107204201877
0.6995498175125887 12.991190793310352 18252.14862889459 14.217488209244198 0.25421294888816187
0.7217493471281013 12.988071681803504 15685.081463915354 14.889382345213976 0.25780649344287704
0.7443003783708939 12.986666468558786 13696.694924116575 15.590221830280994 0.26145369589948037
0.7671838947815781 12.986726965047549 11891.816435046938 16.3208562978689 0.2651523201250732
0.7903961680053142 12.98808652281163 10339.00612824147 17.083091562417923 0.26890905394464454
0.8139231639947132 12.990554498717618 9001.171108428525 17.878374379339903 0.2727263136102572
0.8377735664319998 12.993987302330734 7847.152697328995 18.708229030295126 0.27660665076173585
0.8619198858336797 12.998242927228626 6849.857244676588 19.573777871015395 0.2805485757635277
0.8863509220332368 13.003151591294595 5986.714459243065 20.47703801830651 0.2845579716245636
0.9110753104728153 13.00861654871758 5239.104804944247 21.419896643284375 0.2886387526293674
0.9360603942461043 13.01449615270729 4590.071847766576 22.40417233926668 0.2927935726626452
0.9612959459022249 13.020668233439977 4026.6882461604405 23.431208279746677 0.29702080423006
0.9867833402012594 13.027051974423564 3536.3504544574657 24.503737341933356 0.301329169169012
1.0124882756030167 13.033505096266055 3109.8215996219315 25.62397878210857 0.3057224143193464
1.0384084874278687 13.039942315135512 2737.5928868387723 26.79343898368399 0.31019846265735707
1.0645293327923822 13.046286924907264 2412.393237984514 28.0152282334973 0.31476631366576313
1.0908183542056664 13.052413495986118 2128.4573677680237 29.291982566345208 0.3194305219334321
1.1172807845592376 13.058265084720464 1879.8272515835163 30.62550511168696 0.32418930174262595
1.143878067143961 13.06373242510332 1662.2509142671304 32.019732422356796 0.3290545107775601
1.1706034097116866 13.068764461276215 1471.2767839955468 33.47683033827734 0.33402532023438936
1.1974223010882155 13.073241033756794 1303.6198140640593 35.00053648050215 0.3391102839483426
1.2243373963188335 13.077140363136543 1156.3964898886002 36.59389984705182 0.3443126400189192
1.251298340120984 13.080332827673487 1026.873840172801 38.260739761881695 0.3496394372501238
1.2783090628813134 13.082824515466463 912.6422689245669 40.004516821538395 0.3550946267893378
1.3053234024926716 13.084458948361762 812.1165887425743 41.82993197762885 0.3606883149960653
1.3323379062321286 13.085249320712858 723.3921306676141 43.74010751281537 0.36642062592924773
1.359311268261308 13.085073261379211 645.0281948523751 45.74073787086414 0.3723049866819855
1.3862176973970202 13.083875718109352 575.7449815187102 47.83633683604533 0.37834698778046344
1.4130417842084009 13.081639362040624 514.3582102260204 50.031363387878066 0.38455097027812424
1.4397578312051882 13.078297808848204 460.05200891633416 52.33207809134574 0.39092940892705874
1.4663215457830714 13.073754851010163 411.91035125390914 54.74421955948677 0.39749062583772876
1.4927174580374984 13.067993805779635 369.14660033334286 57.27392415339623 0.4042435923168992
1.5189130989810395 13.060940684700196 331.1839796866725 59.927761556969756 0.41119798239880656
1.5448834959365485 13.052550693143647 297.4211507806101 62.71277373897883 0.4183642305830669
1.5705904939252566 13.04277873257288 267.3922186520647 65.63651763811744 0.4257535942678883
1.596006234357014 13.031562527907736 240.63738821439816 68.70711194790188 0.43337822142812954
1.6210998325659651 13.018870705604405 216.79596020745598 71.93328842510327 0.4412512241549543
1.6458409473430693 13.004648369758245 195.52827488709613 75.32444819845705 0.44938675874828143
1.6701889455686496 12.98883803501615 176.52708250981078 78.8907236145121 0.45780011313596847
1.6941350202282879 12.971447241048221 159.54261165433704 82.64267656974357 0.4665062842606419
1.717623939584894 12.952383161071149 144.36029514119156 86.59115303779885 0.47551932024680943
1.7406294397623923 12.931615060030216 130.7585654057028 90.74989687919923 0.4848626744349202
1.7631114418095 12.90909172273448 118.56927635378561 95.13052168705298 0.4945486910241888
1.7850629979339385 12.884840428643766 107.63093219436205 99.74899503115851 0.5046042764188051
1.8064155917343778 12.858734378100925 97.82092529557451 104.61970165192575 0.515047174233521
1.8271720032038392 12.830829155965255 88.99921789133174 109.7594978632159 0.5259016137586682
1.8472636824697708 12.800998982754237 81.07720051252353 115.18674968762937 0.5371941232598958
1.8666967412067352 12.769313136973516 73.94122999724637 120.92082074073612 0.5489513256250902
1.885395768939551 12.735638065356607 67.51725278595197 126.98279476919888 0.5612022987208419
1.903371621597575 12.700056459436539 61.723747131581355 133.39565021129192 0.5739787868947881
1.9205565167211753 12.66243550368148 56.50085954726507 140.18437372567237 0.587315156443263
1.9369486194361063 12.622853340676363 51.784623243595036 147.374812464145 0.6012439658879949
1.9524962003634738 12.581212105672288 47.51929518371696 154.99798323048594 0.6158104223443911
1.967166929731985 12.537487147272694 43.666383346678295 163.08430534594052 0.6310518077559214
1.980952274169369 12.491738066340927 40.1732112219624 171.6697628494422 0.6470180650155699
1.9938232166426006 12.443936357761737 37.01882636163252 180.79194066874913 0.6637575057170508
2.0057198930419555 12.393977485489334 34.15732971203617 190.49215345421578 0.6813232988860412
2.016645108986642 12.341951263317696 31.560297265397722 200.8158535676637 0.6997739171099531
2.026575273216691 12.287848693673665 29.20446880278169 211.81308959305852 0.7191736427840956
2.0354678689217867 12.231628305759557 27.06575696512343 223.53899545426594 0.7395930537757331
2.0433167279296347 12.173328596224904 25.121302951329973 236.05203941807363 0.7611020787754511
2.0500829324238024 12.112916463128862 23.35414716844807 249.41976970343714 0.7837873470022882
2.0557467201997777 12.05040391043193 21.744931927600387 263.7144789920866 0.8077364157022823
2.060300904297857 11.985845577458129 20.281165337302358 279.0163017739038 0.8330460472132328
2.0637335111912436 11.919262590966538 18.95012308532722 295.41417848800364 0.8598232540014512
2.0660050252555138 11.85063142324858 17.737222646550652 313.00658414967387 0.8881852843438415
2.067127159602866 11.780045756368121 16.63203356729647 331.90157022017775 0.9182569700314006
