M[M_sun], R[km], Lambda[1], P_c[MeV/fm^3], rho_c[fm^-3]
0.24162668629717493 15.618656898711224 2160425.4255784233 3.5677272577965504 0.1711233750220791
0.2536450830430786 15.277251346128528 1723210.5201898129 3.7848411461859026 0.1738884415411135
0.26604200575251213 14.981228283656943 1382945.5593380197 4.011446768282368 0.17666720835011754
0.2788178166486869 14.723474482582741 1116424.38461514 4.247799546883629 0.17945834156545395
0.2919742643514753 14.498335803004228 905836.3297866851 4.494524951613755 0.18226841261558802
0.3055111852361674 14.301152314605856 738578.1306486654 4.751779519391585 0.18509314600546714
0.3194289710549347 14.128063706966989 605030.6770499642 5.020244062311091 0.18793912808903096
0.33372841451201213 13.97589718612224 497635.6633812036 5.3001446212244225 0.19080302064469157
0.3484115032066342 13.841939705096282 410949.8973063487 5.592207597372466 0.19369107531829569
0.3634750280180402 13.723901780132318 340620.70311746607 5.896603090835935 0.1965984070749361
0.3789300173620902 13.619935209432269 283251.1818946785 6.214194069546723 0.19953267305146583
0.39476514144128366 13.528361191461695 236371.87316318168 6.5452353268092 0.20249000472985051
0.410991904274591 13.447790130365734 197834.2885208508 6.890434575872883 0.20547420282465076
0.42760208710838676 13.376997172455798 166046.59745173072 7.250494699132048 0.208488299219659
0.4445984764746818 13.314875038349415 139777.2924956928 7.625671028331039 0.21152778190314045
0.46198029895039083 13.260497250690376 117945.91678742177 8.016919914569499 0.21459892571719177
0.47974899464466475 13.213099430897316 99787.0796998011 8.42494321219521 0.21770332453997543
0.49790862764976407 13.17192609120814 84623.62865901661 8.850176988961394 0.22083837615151272
0.5164492281638929 13.136349222720593 71923.37016958886 9.293504228248645 0.22400762426138437
0.5353697644042775 13.105798688787802 61258.936780241194 9.755805536486728 0.22721392356413908
0.5546803383041916 13.07974894470038 52289.94978754239 10.237888921985837 0.23045860134400697
0.5743634538495064 13.057818133792301 44717.43301012769 10.740224080667584 0.23373833497642116
0.5944237000249769 13.039487080688199 38317.85061788599 11.264064443888374 0.2370594192618253
0.6148626667885007 13.024500541131943 32892.222497128496 11.810343124801754 0.2404234076850242
0.6356694193686034 13.01242616173569 28283.5675964921 12.38003951675312 0.24383193389295776
0.6568421408025671 13.003006071605931 24362.204814418667 12.973833108406906 0.24728283951808483
0.6783772578808532 12.995962983056831 21020.377593288962 13.593069971940336 0.25078112400060776
0.7002678486995602 12.99105416733231 18165.7469412904 14.238939177241035 0.25432932143645953
0.7225042453811894 12.988002990067038 15724.503597377367 14.91263091868518 0.2579294174144353
0.7450947877160048 12.986643358026226 13628.912788685711 15.615161232534179 0.2615811695808393
0.7680181025278424 12.986762648049858 11832.003892338127 16.347823994111863 0.26528674732711266
0.7912666391374036 12.98814764442271 10286.416997967319 17.11222275084019 0.26905070904929396
0.814844085699228 12.990673592104464 8952.963221314638 17.909813215489077 0.2728754886398005
0.838728682014698 12.994146317332879 7804.609170660501 18.741940205035135 0.27676198083785347
0.8629112447880863 12.998416170584568 6768.9701469971915 19.60998983300076 0.2807110359992667
0.8873957754777326 13.003366397990902 5952.852523975105 20.516028937027926 0.28472883587603837
0.9121544998025142 13.008859811225598 5209.110972344659 21.461852524719575 0.2888183955637955
0.9371783339525536 13.01475465420945 4563.34448156959 22.448918505909052 0.2929794227642738
0.9624649393258878 13.020967790393271 4002.627728859353 23.479305749216735 0.29721614234472854
0.9879857733361956 13.027360029505779 3495.686574820033 24.55541224362706 0.30153444902221344
1.0137323179063158 13.033817417168148 3090.4665081846397 25.679149042040322 0.30593573864106777
1.0396987726115838 13.040269216721082 2720.217452309935 26.852541325339526 0.3104217406615999
1.0658530497077678 13.046595544874805 2397.0678081713686 28.078656810903265 0.3150009635544471
1.0921885406629734 13.052724604857838 2114.6693310009537 29.3595127396255 0.3196735890935034
1.1186890927696438 13.058559971789677 1867.4774898558915 30.6979422957087 0.3244448286030751
1.145322704990137 13.064018097100027 1651.2830714396928 32.09726724367502 0.32932220851000604
1.172088321949336 13.069026122116899 1461.3405066626897 33.55951257602198 0.3343039679004843
1.198946691295946 13.07347901483759 1294.7824133149745 35.08918275354193 0.3394034131412262
1.2258956084025052 13.077342930472327 1148.4821332179117 36.68825313153728 0.34461700910909476
1.2528945808768608 13.080506091245423 1019.6829716665872 38.36182393044778 0.34995948652299835
1.2799379459849978 13.08294680904735 906.2542091997921 40.1121894341417 0.3554277298816366
1.3069908382745856 13.084551504504926 806.3745327875354 41.94472097675375 0.36103571061444234
1.3340230638938475 13.085239493987952 718.1717551729134 43.86300900797247 0.36678595273282744
1.3610341493161513 13.085030607498023 640.2866851100938 45.87163846253449 0.37268562782106157
1.387972288091058 13.08378230231891 571.4732433412101 47.97599735276518 0.3787449894162598
1.4148181148068801 13.081457316353369 510.57119115341305 50.180906370705806 0.38497000619598487
1.4415500278561697 13.07801556276463 456.6276194084843 52.491468775103876 0.3913670360261301
1.4681454246623389 13.073412208625786 408.79151506721746 54.91416283651039 0.39794808257584446
1.4945555505359902 13.067539719210005 366.34189877161543 57.45518197038241 0.40472221281801907
1.520768806178658 13.060385342033502 328.65371699815137 60.12115801893665 0.4116992043015895
1.5467532520192815 13.051891022100214 295.12337729032 62.91920072207635 0.4188896036667229
1.5724710237215525 13.042002280551182 265.3131801158211 65.85694096791137 0.42630478993863397
1.5978845957663053 13.030661320113236 238.77852807187386 68.94257820663314 0.4339570431593522
1.6229928858444527 13.017849673335485 215.10431512523226 72.18493245923037 0.4418596189852974
1.6477351313119764 13.003487614149774 193.97605366021637 75.59350140661564 0.450026829954383
1.6720824931314853 12.987546291040953 175.13788937942633 79.17812517628425 0.45847247257018015
1.6960201906493282 12.969983810107482 158.26911052366825 82.94920715983683 0.4672106906639143
1.719500425154073 12.950763627997922 143.1945542970891 86.91939307426483 0.47626262243223433
1.7424802335708682 12.92981912029385 129.701300084601 91.10015974159595 0.4856421881976757
1.7649632035258025 12.9071531853625 117.60469780101822 95.50582142444067 0.4953721824483766
1.7868746126937305 12.882678738073729 106.76054006401402 100.14983493545337 0.5054692715423265
1.8082253326334266 12.856438287132702 97.02953604419065 105.04884653591299 0.5159596066880748
1.8289381228681978 12.828301877024709 88.28201950642867 110.21940970546981 0.5268657431544437
1.8490104203569282 12.798310821603156 80.41682118385815 115.67930487153134 0.5382115723021103
1.8683837763956155 12.766361006513062 73.34202880387252 121.44849098900104 0.5500254688809842
1.8870592337294037 12.732530454471911 66.96777845919944 127.54840968419833 0.562337282358794
1.904980881171077 12.696698496775923 61.22192673994493 134.0017527631035 0.5751771746010509
1.9221194387779776 12.65886645414389 56.041794627581965 140.8341291219458 0.5885811270446931
1.9384296011073445 12.618962629209166 51.36125211360783 148.07323063515213 0.6025874079883978
1.95392264588384 12.577103650505746 47.136763005273416 155.74743053062355 0.6172313029022458
1.9685350844860554 12.53316152895759 43.316733907861966 163.8905425360934 0.6325609356557014
1.9822457376585476 12.487145420537367 39.85606638702973 172.53653700598306 0.6486184687244969
1.9950290054881261 12.439049265302323 36.7248921676773 181.72440956726675 0.6654560107451141
2.0068609674881492 12.388874867856552 33.882760284995584 191.49636214070014 0.6831285768854058
2.0177022409744425 12.33658485091183 31.30994226880376 201.89846977912796 0.7016954540940188
2.02753422717696 12.282188814590194 28.974474384214272 212.98053602068327 0.721218750067713
2.0363376087494376 12.225699537393105 26.854470046642682 224.79847326096058 0.7417700911485189
2.044076192718704 12.167089367678937 24.928595864759725 237.41311548358 0.7634254174938491
2.050729390441567 12.106365200755958 23.174970819782637 250.89158250919255 0.7862680262334181
2.0562959514995423 12.04359729340395 21.582941273877065 265.30721209630957 0.810386707258175
2.0607364933742516 11.97872964267026 20.13265942612038 280.74134237325177 0.8358796778324795
2.06403291523738 11.911817150620701 18.810853176603292 297.2842677277281 0.8628555604051
2.066186648614066 11.842897798277432 17.609836240689585 315.03632646500705 0.891434502571102
2.0671715754678957 11.77198981434446 16.515133370361017 334.1067876697827 0.9217416660007637
