M[M_sun], R[km], Lambda[1], P_c[MeV/fm^3], rho_c[fm^-3]
0.24162668629717493 15.618656898711224 2160425.4255784233 3.5677272577965504 0.1711233750220791
0.2536434126140274 15.277287793505405 1723258.8088733458 3.7848094967142654 0.17388804704571775
0.2660381336871813 14.981294517238428 1382992.555325082 4.011380234560152 0.17666640432935007
0.2788126760018149 14.723565035724608 1116458.374187717 4.2476958777488445 0.1794571391597165
0.2919666262179894 14.498464692617546 905958.4821475922 4.494381426479411 0.18226681442990664
0.3055012608358429 14.301287636913404 738724.5700892999 4.751591264650632 0.18509111249497529
0.31941693491778594 14.128197675370277 605143.8911436514 5.020009690993845 0.1879366963961555
0.3337146595881165 13.975973652814872 497710.19381693227 5.299857962674033 0.19080013446874172
0.34839448308293447 13.84208175677511 411037.95042786904 5.591867935630189 0.19368778899750141
0.363456343775332 13.724042325352825 340679.89186313975 5.896202794578628 0.19659464740777574
0.37890799461638763 13.62006343773154 283324.70737121283 6.213728294288689 0.1995284257419425
0.3947392521143544 13.528521411509422 236436.7263216084 6.5447045559023005 0.2024853505860334
0.41096364433147503 13.447943021220606 197889.93649002633 6.889828562373224 0.20546904175938396
0.42757021323188243 13.377115786103184 166107.29372500675 7.249807755896214 0.20848261631431741
0.44456440489520216 13.314967672995152 139821.58840544304 7.624905053775346 0.2115216842531571
0.4619446276903355 13.26060779499154 117996.08559010085 8.016061547697257 0.2145922855554752
0.479708482294437 13.213186869150622 99823.72870158858 8.423985759135615 0.21769612583146208
0.49786423284297127 13.172014699789047 84654.10804175206 8.849123979807887 0.22083075191532514
0.5164003742546738 13.136435511165013 71947.96128380715 9.292338621289856 0.2239994183157274
0.5353180037157552 13.105889138934613 61288.31697534743 9.754519428063126 0.22720511818509426
0.5546236665763742 13.079844390613594 52310.38072227744 10.236475804640389 0.2304492021650531
0.5743038808174985 13.05786351266435 44737.40486854865 10.738686349480318 0.2337284622658694
0.5943599587339226 13.039536347939194 38335.29744700845 11.26238084904002 0.23704890013074595
0.6147947262039046 13.024543465675869 32630.9405191656 11.808503719727478 0.24041222103319299
0.6355952725432451 13.012439387934124 28298.218932291245 12.37803373431767 0.24382005750632246
0.6567656107613388 13.003027425766689 24376.02964553439 12.971670159526166 0.24727047698924146
0.6782953207418261 12.995999853124559 21031.85151677328 13.59071914077677 0.2507680352025144
0.7001826506252503 12.991070241942463 18040.62900155824 14.23638785812756 0.25431548040575175
0.7224141034908116 12.988010799597912 15733.43995436203 14.909865695979395 0.2579147966396313
0.7450007299722902 12.986646960336609 13540.956881123739 15.612194809984123 0.2615660071964693
0.767919090205886 12.986748587584897 11838.169097606205 16.344616198119958 0.265270757268636
0.7911624993164098 12.988129319527195 10291.5887532193 17.10875748097501 0.26903385861537843
0.814734878736405 12.990662861867483 8958.39727200306 17.90607330383192 0.2728577430264038
0.8386152619527633 12.994121309675428 7809.5977720640585 18.737942240009 0.27674361225716104
0.862793538520559 12.998393818103427 6816.168305915714 19.60568182858416 0.28069170870036564
0.8872678470551325 13.003337486820131 5956.731386088895 20.511390157379402 0.28470850802436437
0.9120265357212427 13.008829444499854 5212.428891228812 21.456860813992417 0.2887970225039963
0.9370442253303755 13.01472647150488 4566.435061063933 22.443594658432623 0.2929573105327958
0.9623203368907466 13.0209282947787 4005.767754979206 23.473582950791975 0.2971929003599165
0.9878449257349702 13.027323891225167 3517.5262398123173 24.54926355559933 0.30151002320359854
1.013584608363225 13.033779943809392 3093.0731978911854 25.672598266048382 0.3059104579349067
1.0395459427672238 13.040227682847428 2722.256593404368 26.845508372249768 0.31039517143124745
1.0656955823725014 13.046557668905143 2399.0275176532223 28.071108757304806 0.31497304002204113
1.0920259730414705 13.05268625811575 2116.327864131758 29.351476338275297 0.31964466298301825
1.1185215807041857 13.058520889151486 1869.1716163286742 30.689321594518916 0.32441441852102065
1.1451506718762663 13.06398223243788 1652.5814377802935 32.08809038006759 0.3292906777105356
1.1719120811540817 13.068997395344528 1462.5987266977836 33.54967190011637 0.33427080380806623
1.1987664680965622 13.07344955432852 1295.8325576032541 35.07863181620219 0.33936852405180923
1.2257101168002706 13.077321265640888 1149.4175755894234 36.67702255222741 0.34458078099869743
1.2527033420394287 13.08049267956347 1020.478292618594 38.34984497946085 0.3499217030456087
1.279743796526043 13.082930294755307 907.0052559424178 40.0993725137902 0.3553880786119255
1.3067867760682 13.084516151350108 807.0423554642923 41.93107359578239 0.36099445251419676
1.3338219698878284 13.08523399635146 718.7865590415038 43.84837814701664 0.3667424622475426
1.3608281117203884 13.085036372567085 640.8380293995446 45.856054779752206 0.37264031258841396
1.3877587000705316 13.083781967043524 571.9999600394319 47.95939428156879 0.37869773171604687
1.414613933309342 13.081494509373183 510.9859287286576 50.16310184124242 0.3849201159423288
1.441336824931705 13.078044751700443 457.03353988612724 52.47249105317618 0.3913149303120546
1.467929084115411 13.073452337912675 409.159365173293 54.8939278854942 0.3978936137268854
1.4943380637717394 13.06758913002777 366.6657258875641 57.433598946311754 0.4046652217432718
1.5205483903174475 13.060450508126028 328.95446075876896 60.09812866099702 0.4116395195561243
1.5465313000028753 13.051969987931958 295.3922905725975 62.894618682278164 0.4188270404210777
1.5722479225507078 13.042094404936758 265.5597841771399 65.83069107316902 0.42623914884541103
1.5976707480228385 13.030774575005154 239.00583281306024 68.91453564565447 0.43388810910578096
1.6227578380873342 13.017961478870284 215.31398684024276 72.15496188568254 0.44178715971928634
1.6475095953239667 13.00362795600308 194.1688766120601 75.56145594898081 0.449950594570093
1.6718586645343207 12.987701405093759 175.2970440511741 79.14401268649003 0.4583928885217624
1.695796245151495 12.9701604539303 158.42224415279955 82.91269479368162 0.46712678535283086
1.7192619360144776 12.950921680634435 143.33890885927465 86.88029286264927 0.4761740796905952
1.7422639993001785 12.9300257706944 129.82602809642427 91.05845540984186 0.48554941141033553
1.7647441002362159 12.907386671254994 117.72158451906702 95.46111119032294 0.49527407821141217
1.786671838702781 12.882960280580685 106.85870298757145 100.1020798675878 0.5053662181776676
1.8080107718843403 12.856714919150326 97.12302319662103 104.9977989833676 0.515851207103245
1.8287235909990278 12.828591825016069 88.36337204422802 110.16479954003204 0.5267515678252412
1.8488051194356685 12.798636310990299 80.49411622324702 115.62061406954537 0.5380903373578461
1.8681931217226477 12.766737755761715 73.40754135424412 121.38561276077533 0.5498974718506167
1.886865474283143 12.732901189958415 67.03363462389186 127.4811193790881 0.5622024322366878
1.9047901764181625 12.697098108843889 61.28095391460897 133.92965511096392 0.575034831449605
1.9219354280786995 12.65929615119948 56.09617815853095 140.75669064928286 0.5884302474515828
1.9382520092987394 12.619418185359345 51.41203641769533 147.98998756862485 0.6024272858083318
1.9537485552507436 12.577594235643716 47.176088470950326 155.65814769595514 0.6170621029932114
1.968371786741216 12.533676458593133 43.35496701942263 163.79467884351476 0.6323818614812817
1.9820921512557015 12.48769111189661 39.8951905257685 172.43320971543824 0.6484276861800782
1.994886321834147 12.4396290241756 36.75976203066119 181.61324408512846 0.6652535212780025
2.006719273232266 12.389467702371459 33.91695508526821 191.37663651862076 0.6829133446987009
2.017578930132778 12.337225690060082 31.3396085014467 201.76938762039993 0.7014663459951815
2.027420545571597 12.282855533706742 29.00196201819186 212.84154339552364 0.7209755907856609
2.0362358747471188 12.22640570357308 26.879559113972523 224.6482835604495 0.7415104846756758
2.043986092788832 12.1678287954017 24.950877819149326 237.25099696981263 0.7631489905354154
2.0506520499927157 12.107141097330658 23.19648053611364 250.71630759645814 0.7859730168219204
2.056225321013281 12.044389709512924 21.60140817502666 265.11730125430756 0.8100707934488736
2.0606849037760604 11.979578823844035 20.149239426872576 280.53588064026474 0.8355426727695814
2.0639972979403187 11.912699645997874 18.82782594545112 297.06135616615313 0.8624944037338065
2.06616579211723 11.843817281457447 17.624582743914978 314.79417493323615 0.8910468655962775
2.0671661615050705 11.772942607426984 16.52870821778336 333.8437989270149 0.9213262962889546
