M[M_sun], R[km], Lambda[1], P_c[MeV/fm^3], rho_c[fm^-3]
0.24162668629717493 15.618656898711224 2160425.4255784233 3.5677272577965504 0.1711233750220791
0.2536435963912432 15.277276786104258 1723240.7817475076 3.784812249296031 0.17388808135532155
0.26603907883441824 14.981288787900104 1383067.4216319632 4.011386021023853 0.17666647425534895
0.2788136565076914 14.723543969209056 1116458.8620878328 4.247704893846642 0.179457243732864
0.29196701608955894 14.498459488033674 905953.3414136646 4.494393908787215 0.18226695342330104
0.3055034631768104 14.301223332952253 725461.3815635003 4.751607636984873 0.18509128934743216
0.31941856415980197 14.128167771130203 605136.7595775402 5.020030073942863 0.18793690787711867
0.33371504107926153 13.976056558150786 497723.9597763214 5.299882892845668 0.19080038547420344
0.3483959553918916 13.84206924845924 411031.36599113233 5.591897475253995 0.1936880748014878
0.36345675336892813 13.724056895392888 340675.6525461883 5.896237607279431 0.19659497437602885
0.3789107511212216 13.620034989884745 283312.21819107217 6.21376880132601 0.1995287951173492
0.3947413330158391 13.528500694462908 236414.25948453005 6.544750715204569 0.2024857553407561
0.4109655736586056 13.44793841485693 197884.5098622237 6.889881265009874 0.20546949059715347
0.4275737378985233 13.37708180831484 166102.1635445123 7.249867496392571 0.2084831105321336
0.4445670881821424 13.314971650222919 139818.52906095263 7.624971667001263 0.21152221453726755
0.46194883638031625 13.260594113137811 117991.66142746374 8.016136195501202 0.21459286301658886
0.47971198576924884 13.21317455190251 99831.02071670989 8.424069023573269 0.21769675186363172
0.49786728128749524 13.172018178703745 84652.66143312892 8.849215553859214 0.2208314149505833
0.5164046433098649 13.136432746620814 71946.98016460231 9.292439986847665 0.22400013193557378
0.5353222672133147 13.105864858962518 61284.344343517056 9.754631272367607 0.22720588393040536
0.5546282955525543 13.079835030657275 52306.18683747296 10.236598856689403 0.2304500216436968
0.5743090051169161 13.057878277579817 44735.3149290829 10.738820074607496 0.23372932082260875
0.5943637752536711 13.039563345689018 38333.536048264585 11.262527258188902 0.23704981489775762
0.6148004461128541 13.024515897218558 32906.936284321666 11.80866367775531 0.2404131938448863
0.6356015407721103 13.012436284873658 28297.840551468595 12.378208160035511 0.2438210902939407
0.6567712521760851 13.003030599353814 24374.578107564535 12.97185825194735 0.24727155204839002
0.6783030890237068 12.995985769110268 21031.332008703303 13.590923570727554 0.2507691734137103
0.7001897826189022 12.991070601327229 18175.735075027886 14.236609721652659 0.25431668402620344
0.7224218238148428 12.987999341144437 15732.483365076896 14.910106159543348 0.2579160680611373
0.7450084970250298 12.98665537664949 13636.205541022211 15.612452768908003 0.26156732571137725
0.7679276482186158 12.986753116182818 11837.479942324433 16.34489514552238 0.2652721477514747
0.7911714539810916 12.988131598701658 10290.878043186689 17.109058816736685 0.2690353239091466
0.8147445828374086 12.990658485823195 8957.910145148575 17.906398520639843 0.2728592861569033
0.8386252499839985 12.99412930755454 7809.156105549937 18.738289895438296 0.2767452095539769
0.862805388257106 12.998385546337083 6816.109191888784 19.606056442736833 0.2806933893578119
0.8872782375924954 13.003343711443915 5956.730223735746 20.51179353313203 0.2847102756794568
0.9120374439242924 13.008846585610582 5212.247880279204 21.45729487767278 0.28879888103897644
0.9370551761152832 13.014725133111812 4566.316068858664 22.44405760195906 0.29295923333664453
0.9623326585802876 13.020930558951466 4005.301287433354 23.47408058340198 0.2971949213938068
0.9878559490196909 13.027320963254377 3517.3399636842346 24.54979821942095 0.301512147169145
1.0135973044114244 13.033781903466393 3092.5103939363503 25.673167891563825 0.30591265622947444
1.039559366860402 13.040239519517986 2722.07696946088 26.84611992276196 0.31039748175896087
1.0657096763722613 13.046557436773256 2398.895263247823 28.07176509522589 0.3149754681014088
1.0920390267692563 13.052691078199093 2116.283537347775 29.352175137548816 0.319647178231338
1.1185367963692676 13.05853145755928 1869.025811052263 30.690071197472125 0.32441706279401117
1.1451657961874422 13.06397917446513 1652.508760753519 32.08888834029178 0.32929341942327
1.1719286836099123 13.06899531171465 1462.5425633619298 33.550527576846065 0.33427368752686926
1.1987819904170312 13.073452083983115 1295.7492849520074 35.079549247676205 0.3393715577489776
1.2257250780247928 13.077323010808657 1149.2504037754913 36.67799907630036 0.34458393111419405
1.252720775094286 13.080491811352289 1020.437798067338 38.35089183059714 0.34992501924051594
1.2797607583065922 13.082929085866102 906.9120852238062 40.100486963242425 0.3553915263462172
1.306804264469931 13.084517314526531 806.9506018146801 41.93226024982968 0.360998039949159
1.3338402690006381 13.085239761175773 718.7848012865999 43.84965030880288 0.3667462437702849
1.3608467808604503 13.085033727501347 640.7989013492315 45.85740978387739 0.3726442527563466
1.3877768838790059 13.083777038191736 571.9673268304401 47.96083791512263 0.37870184076315616
1.414632908889769 13.081492094110757 510.9647408404364 50.16464993259021 0.3849244538648885
1.441354923248268 13.078041815612547 457.0012771021171 52.474141144969394 0.3913194608458828
1.467948902303424 13.073447511136894 409.1221606020962 54.89568728345252 0.3978983497097684
1.4943566247583193 13.067586080032758 366.63052969341976 57.43547554789333 0.40467017700536373
1.5205679601130175 13.060447182823905 328.93136773050645 60.10013100837462 0.41164470900143485
1.5465506313371153 13.051962673588715 295.3688085637891 62.896756020601586 0.4188324801170367
1.5722666187583536 13.042087079310837 265.5373343208864 65.8329734147017 0.42624485612137475
1.597690375824525 13.030763920364917 238.98951995323947 68.91697384044474 0.4338941026614486
1.622777663796243 13.017948500728806 215.2972230561965 72.15756769951017 0.4417934597441094
1.6475292583166306 13.00361504559706 194.1491305038458 75.56424214941335 0.4499572228748938
1.6718780564743079 12.987687789368572 175.27873010682188 79.14697859126105 0.45839980794366103
1.6958154209297533 12.970146098163278 158.41008258182862 82.91586933647805 0.4671340804429313
1.7192804205909846 12.950906651089568 143.3252194437853 86.88369238324422 0.47618177793214683
1.7422825708753114 12.930007519741425 129.81638305033786 91.06208132333316 0.4855574777332029
1.7647632044519492 12.907367721776833 117.71392130038767 95.46499842212724 0.4952826076659675
1.7866909156161022 12.882938290267642 106.85206695230295 100.10623180229504 0.5053751778726392
1.8080301328184931 12.856690832816314 97.11376988403697 105.00223714838002 0.5158606315559515
1.828742093173624 12.82856544531349 88.35603398525095 110.16954741639272 0.5267614943717395
1.8488225965948364 12.798608604219023 80.48498530041849 115.62571668537672 0.5381008776013763
1.868210156881226 12.766707648582473 73.40149338042697 121.3910793991181 0.5499085999229831
1.8868825757403271 12.732868815314507 67.0293398831733 127.4869807279145 0.5622141959170138
1.9048067698989117 12.697063150153971 61.275469806676895 133.93592320781988 0.5750472066190255
1.9219513802753638 12.659258551530279 56.091540605330486 140.7634230241214 0.5884433646779611
1.938267248744918 12.61938002761625 51.4065615799086 147.99722453265446 0.6024412064687042
1.9537673294499183 12.577547852378224 47.176495278444314 155.66590969158688 0.6170768127519203
1.9683864257065489 12.533630276278043 43.351600645603085 163.80301290192176 0.6323974295716469
1.9821055674468484 12.48764365468481 39.89160138982691 172.44219256111447 0.6484442720224552
1.994898607005579 12.439578033363492 36.756759650391324 181.62290827782743 0.6652711247390053
2.006733420975361 12.3894125907703 33.91637757098539 191.38704480731693 0.6829320558041186
2.017589620351891 12.337169816135177 31.33778348670856 201.7806092239578 0.7014862632345769
2.0274297211259698 12.28279715417625 28.999830933377467 212.85362646034983 0.7209967293846674
2.036245617462947 12.226343458894881 26.878120176385654 224.6613399079842 0.7415330528832171
2.043994597312382 12.16776413185599 24.949524423557957 237.26509019905313 0.7631730207858965
2.0506589022583994 12.107073167654384 23.19441323743519 250.7315701051504 0.785998745961655
2.0562360851645063 12.04434151668547 21.598493525720983 265.13381614741905 0.8100982751905061
2.058337368483427 11.98603371171788 20.419366625856053 281.92519668159406 1.5381005723896586
