M[M_sun], R[km], Lambda[1], P_c[MeV/fm^3], rho_c[fm^-3]
0.24162668629717493 15.618656898711224 2160425.4255784233 3.5677272577965504 0.1711233750220791
0.253644437705407 15.277281657255097 1723188.4571285218 3.7848279306621246 0.17388827681598498
0.26604084056179944 14.981228472458215 1383082.6653454918 4.0114189864275405 0.17666687262279768
0.27881680419087124 14.723499224605012 1116383.0030526503 4.247756258602593 0.179457839486628
0.2919709900588918 14.49838142268914 905802.940256763 4.494465020790838 0.18226774527196563
0.30550743087661186 14.301183685740028 738593.2188566271 4.751700910869074 0.1850922968833974
0.31942330534385305 14.128142391257967 605082.0899311042 5.020146196831962 0.18793811269691238
0.3337227563882603 13.97591007761738 497672.0471564845 5.30002492199282 0.19080181547204628
0.34840439130770384 13.841999041640296 410989.1145297387 5.592065765316918 0.1936897030541416
0.36346731493474266 13.723951725088 340660.0792359789 5.896435939189716 0.19659683715130175
0.37892209792801385 13.619973284092834 283292.4414614423 6.21399957523775 0.1995308994975544
0.39475462709943726 13.528427333522998 236399.3997012714 6.545013691561273 0.20248806128814076
0.4109800320817859 13.447864332065835 197858.87590370647 6.890181520625998 0.20547204769997776
0.42758979295921273 13.37701484193469 166071.96650634593 7.250207848891044 0.2084859261811286
0.4445850520054394 13.314894773094926 139790.22678782075 7.625351175725588 0.2115252356707365
0.461966574662173 13.260568161863173 117973.82671302871 8.016561480076993 0.2145961529366104
0.4797325133342435 13.213126071623885 99805.86557852817 8.424543400373812 0.21770031851400518
0.49788955590396766 13.171966250417627 84637.42983763402 8.84973727381909 0.2208351924260066
0.5164292631355734 13.136384204371739 71934.51966986968 9.293017493130758 0.22400419761581006
0.5353482645478072 13.105845032029125 61269.29622314904 9.755268480695728 0.2272102465959137
0.5546556574042936 13.079809695158108 52300.977019636295 10.237299920723485 0.2304546904566778
0.5743389806672609 13.057826254027788 44726.15350699681 10.73958194824398 0.2337342122873539
0.5943959339778777 13.03951555802419 38322.06303721079 11.263361399054295 0.23705502662497946
0.6148343254827914 13.02449273939938 32899.258057292645 11.809575013653987 0.24041873628768062
0.6356392637718974 13.01242519061331 28289.48134403721 12.379201926209229 0.2438269744571957
0.6568104823284313 13.003022421654492 24368.102260031552 12.972929884858074 0.24727767706266396
0.6783429832855049 12.995972307090218 21025.886694985198 13.592088288005304 0.2507756582474664
0.7002314174850887 12.99106532569887 18170.211967360454 14.237873768448706 0.25432354154176384
0.7224664925066759 12.9880005515516 15727.656169987999 14.911476182276983 0.257923311887764
0.7450547544921251 12.986642443786891 13632.120395199086 15.61392247361719 0.26157483786695696
0.7679778167442094 12.986758808254537 11835.244446047545 16.346484435343903 0.2652800699626273
0.7912232761360808 12.988145399697718 10288.100199868531 17.110775668152733 0.2690436723762082
0.8147977345743808 12.990663678115878 8955.176504011208 17.908251438970414 0.27286807812189184
0.8386817245515868 12.994129880826652 7806.637973873654 18.740270662203308 0.2767543101523859
0.862862120382477 12.998408801262245 6813.427790124203 19.60819081304655 0.2807029649313147
0.887344642684338 13.003356730365326 5954.524662268634 20.514091779866796 0.28472034695299736
0.9121004991672839 13.008849884090418 5210.557626923472 21.459767977184036 0.2888094701349062
0.9371217380027264 13.014741483521375 4564.542203523102 22.44669525214364 0.292970188633861
0.9624064056709488 13.02095670422437 4004.0280326652914 23.476915885289948 0.2972064363972241
0.987927017960818 13.027337038220738 3516.112932761855 24.552844518762605 0.3015242486702832
1.0136715411328447 13.033798319409277 3091.6836297086957 25.67641339645505 0.30592518125789864
1.0396362955656098 13.040247037832515 2721.046831127876 26.849604310602523 0.3104106451487904
1.0657873053600306 13.046582219833441 2397.8097824513334 28.075504676589176 0.3149893024389662
1.092120279341954 13.05270772000491 2115.349000322738 29.356156658593374 0.31966150926243203
1.1186200448048063 13.058541911132506 1868.3137680022896 30.694342193998086 0.32443212901101015
1.1452503713983102 13.063997773730472 1651.8685759802572 32.0934348725491 0.3293090408602907
1.1720147988797316 13.069015581252017 1461.8948593812518 33.55540297559251 0.3342901181233194
1.1988726982697167 13.073467294538002 1295.230962776696 35.084776524009705 0.3393888429346946
1.2258177664685899 13.077333454767595 1148.8514056777622 36.68356306095879 0.34460187966741584
1.2528139823545938 13.080498574563162 1019.9901573986207 38.35683098245196 0.34994376420841616
1.2798580657508867 13.082939353805909 906.587143901384 40.1068368497559 0.35541117077372986
1.3068998103091742 13.084528297352392 806.6156297051899 41.93902156082714 0.3610184804166385
1.333939815266536 13.085239295647883 718.4773438251802 43.856898850315545 0.3667677901843302
1.360948588913116 13.085032577367734 640.527818848534 45.86513036769862 0.3726667031653367
1.3878801984913147 13.083769826757141 571.7180044596721 47.969063518334785 0.37872525348518044
1.4147371734129828 13.08147795897325 510.72808954398937 50.17347075213865 0.3849491707733376
1.4414614864531534 13.078025637357062 456.8083508100114 52.48354317796058 0.39134527530583924
1.468054998298625 13.073428008826129 408.9421298951088 54.90571216129233 0.3979253348779782
1.4944649647972996 13.067561162054051 366.46395501830693 57.4461682741987 0.40469841169398413
1.52067726274339 13.06041085650204 328.77878465118044 60.111540260897996 0.41167427814246743
1.5466609948282042 13.051923637375031 295.2361981485061 62.90893448328204 0.4188634752727892
1.5723779505563575 13.042040443962902 265.4197974731045 65.84597814319784 0.42627737604589
1.5978014758208452 13.030712052030895 238.87943889783315 68.93086666491241 0.4339282539184197
1.622888574718944 13.017886406805623 215.19418874261672 72.17241566885079 0.4418293573874581
1.647640625196821 13.00354743784047 194.06339741822904 75.58011802174117 0.44999499119893027
1.6719892508574603 12.987613482474273 175.19494061953546 79.16387847746486 0.4584392351848273
1.695926779073013 12.970058379695267 158.3365442037872 82.93395812188996 0.4671756484191248
1.7194072295533103 12.950844781753181 143.25441537796414 86.90306318429592 0.47622564326591343
1.7423889811182078 12.929902821297334 129.760280519817 91.08274220296876 0.4856034405853957
1.764871432783423 12.907252052532513 117.65697969638943 95.48714841442275 0.4953312096949168
1.7867989192266784 12.882814233696694 106.81007603132758 100.1298901938916 0.5054262316553143
1.8081363249196105 12.856554357015147 97.06619421523315 105.02752662018047 0.5159143338023285
1.828845530359888 12.82841646423946 88.31608584984613 110.19660178358755 0.5268180578568722
1.8489246603811968 12.798446725135149 80.44794315687568 115.65479256192882 0.5381609383290192
1.8683007590856924 12.766505998328306 73.3751710582471 121.42222968673425 0.5499720104932627
1.8869791515142718 12.732683919102517 66.9965310119166 127.52035178407729 0.5622811266931509
1.9049018145448327 12.696865084302438 61.24500953596881 133.97164069569658 0.5751177240302756
1.9220423910493998 12.659044894291448 56.0637054423301 140.80178627940418 0.5885181108880606
1.9383562151459925 12.619154897287414 51.38309687077533 148.0384632925458 0.6025205312751114
1.9538510066557635 12.57730860223555 47.15535863743692 155.71014045541395 0.6171606344769345
1.9684664801230154 12.533374192174668 43.32950415764468 163.85050370596656 0.6324861427882786
1.982181078383218 12.487370286674077 39.87236017595626 172.4933806772633 0.6485387852821313
1.9949691727557992 12.439292620661293 36.73757754545433 181.67797926685512 0.6653714373091217
2.006804539567748 12.389130003634975 33.896677753768756 191.44635629152816 0.6830386807706195
2.017650319105851 12.336851987671206 31.321865842465694 201.8445557023816 0.7015997619259792
2.0274868946425157 12.282463951886076 28.9870545597818 212.92248232806548 0.7211171886057203
2.0362959893296484 12.225994732090522 26.86488911923502 224.7357424842896 0.7416616595076351
2.0440388993589744 12.167396644795373 24.937937501978183 237.34540195382664 0.7633099597053489
2.0506968998003026 12.10668746890589 23.183476761926777 250.81839690157796 0.7861448827315044
2.0562688488261505 12.043937567503495 21.589910854856406 265.22792912002893 0.8102548846447775
2.0607137450225386 11.979085937039027 20.138948931113312 280.65552378463576 0.8357389153730478
2.064018917950299 11.912187299422646 18.81878144469041 297.1911599953322 0.8627047091954714
2.0661784240263645 11.843282144293072 17.61589243340882 314.93518174467624 0.8912725897674878
2.0671687218254906 11.772389905684552 16.52121375084653 333.9969387079631 0.9215681683402428
