M[M_sun], R[km], Lambda[1], P_c[MeV/fm^3], rho_c[fm^-3]
0.24162668629717493 15.618656898711224 2160425.4255784233 3.5677272577965504 0.1711233750220791
0.25364407869686734 15.277270254411796 1723183.3416158857 3.7848218565885676 0.1738882011055883
0.26604007360083204 14.98126217033853 1383009.3448485427 4.011406217473217 0.1766667183175204
0.27881527923699734 14.723509238400878 1116461.09056603 4.247736362733298 0.17945760872452662
0.29196996641126777 14.498396916408653 905899.3534965966 4.494437475881847 0.18226743855301117
0.30550582794102243 14.30119493857553 738654.4878482734 4.7516647815950215 0.18509190661828387
0.319421571536491 14.128141978841313 605106.8598334068 5.020101217012164 0.18793764601392138
0.33372009733862384 13.975922107935828 497685.1310619357 5.299969907376836 0.19080126156614907
0.34840112588201133 13.842026592665535 411006.2811600414 5.592000578502535 0.19368907235378016
0.3634642950501874 13.72398227487439 340663.0852789549 5.896359115600933 0.19659611560789828
0.3789170745866564 13.620000213754045 283302.5683289158 6.2139101851396585 0.19953008436749248
0.39474954887550967 13.528464658727652 236404.95344516684 6.5449118277195595 0.20248716807986022
0.4109745211296365 13.447870708785098 197860.11204330708 6.890065216484927 0.20547105720510728
0.427582402589454 13.377061488949806 166083.60730176076 7.250076012996656 0.20848483553656097
0.4445777151074258 13.314932383233112 139794.89418447157 7.625204172417917 0.2115240654298846
0.4619592248915088 13.260568921437649 117984.0100779112 8.016396745163838 0.21459487857887471
0.4797244315258199 13.2131551543739 99807.22162379966 8.424359649194797 0.21769893696201842
0.49788175196626216 13.172010647943308 84645.0616618465 8.849535183859684 0.22083372920835412
0.516419398249948 13.136407932485257 71939.48408480608 9.292793793811468 0.22400262275865623
0.535338572876147 13.10584238378867 61276.43881743479 9.755021655179116 0.22720855669777462
0.5546440826291086 13.079813458916329 52297.275120998005 10.23702835999841 0.230452881968185
0.5743277628930089 13.057836086727798 44731.89507363151 10.73928683222419 0.23373231755109133
0.5943834485699897 13.039526178154203 38330.12302177793 11.263038289431558 0.23705300783020952
0.614820467202659 13.024505119372556 32901.513702291864 11.809222001526196 0.24041658938495591
0.6356252274596695 13.0124353216034 28291.91312445499 12.378816983577348 0.24382469518330843
0.6567950348955927 13.003025944613357 24370.594568540073 12.972514779447815 0.24727530449036092
0.678329592291316 12.99596401199386 21028.135325037823 13.591637124959899 0.25077314629250336
0.7002156773643011 12.991066030380448 18172.703307905875 14.237384128543916 0.25432088522138346
0.7224491974589844 12.987995733135682 15729.266891421668 14.910945490842154 0.2579205059221024
0.7450380684223497 12.986642362384332 13537.331626022316 15.613353168706778 0.2615719279578898
0.7679584204918677 12.986760475623653 11836.311175575971 16.345868807012362 0.26527700120979947
0.7912021852611868 12.988136195410743 10288.914562301024 17.110110626477983 0.26904043850374587
0.8147783726355695 12.990659127490876 8956.63139901338 17.90753368916364 0.27286467245038026
0.838659052139713 12.99412419622337 7807.587254754112 18.73950338784718 0.27675078492371785
0.8628414690612383 12.998399865018323 6814.616691954312 19.607364037213095 0.2806992557095702
0.887320179050743 13.003352974252312 5955.344337999568 20.513201523029437 0.28471644570949955
0.9120761276701856 13.008843558942843 5211.076026538018 21.458809987296195 0.2888053682996279
0.9370969109760849 13.014740320308356 4565.302179271168 22.445673519964416 0.2929659449400746
0.9623799611699284 13.020952919701672 4004.640566451429 23.475817588142768 0.29720197588617353
0.987900850191022 13.027328057834282 3516.6469601674885 24.55166448670915 0.3015195609631223
1.0136427855773322 13.033786167734148 3091.7768470301958 25.67515619740114 0.3059203294846267
1.0396065648008348 13.040246674283736 2721.4440063038146 26.84825457421574 0.31040554608776755
1.0657570377900574 13.04657120372147 2398.3247281481226 28.074056084368536 0.3149839434664459
1.0920888275264822 13.052700308634924 2115.746338612816 29.35461434480653 0.3196559578797849
1.1185879115100013 13.058537189321708 1868.6407569963862 30.692687743979906 0.32442629283136537
1.145217300975469 13.06399131160199 1652.1071290285254 32.09167368630311 0.3293029895978194
1.1719807399181843 13.069008474434492 1462.0529610431388 33.55351439347777 0.3342837534068718
1.1988369663691145 13.07346440344839 1295.4351988821577 35.08275163174162 0.33938214716491366
1.225781731470225 13.077329211348685 1149.077463679633 36.68140773487896 0.34459492691911964
1.2527775366912106 13.080492381709643 1020.1419367558017 38.354536475215575 0.3499365390250953
1.279819604938484 13.082933543690512 906.6864172613313 40.10437708039084 0.35540356106907023
1.30686354440216 13.084525581905627 806.7462961192127 41.936402413294964 0.3610105623368496
1.3339007831825385 13.08523387376782 718.5885965445622 43.8540909579226 0.3667594436760034
1.3609081247348718 13.085034006893013 640.610503829039 45.8621396142052 0.372658006460441
1.3878398836214763 13.083777683962603 571.8039570076021 47.965877128625486 0.37871618399147877
1.4146965284442914 13.08148469708125 510.83101239123874 50.170053784322285 0.3849395960529585
1.4414191596706352 13.078033097672298 456.8866808282352 52.47990105666463 0.3913352754053455
1.468014221446056 13.073436402236778 409.0134457537339 54.901828758652776 0.3979148814564873
1.4944229858432247 13.067569479808324 366.52283123987445 57.44202615592602 0.40468747421963774
1.5206346102522639 13.060424656372716 328.8349816946274 60.107120569305266 0.41166282371249857
1.5466184105028995 13.051939517461836 295.289635305261 62.90421680863975 0.4188514684157528
1.5723343635927844 13.042060226504299 265.4584980107715 65.84094038211708 0.4262647785041481
1.5977586892993874 13.030731382435512 238.9149205366808 68.92548486429789 0.4339150244087414
1.6228452066293924 13.017911365228983 215.24191093746748 72.16666385378659 0.44181545133734135
1.6475979335291646 13.003573010694128 194.09624861323832 75.57396800546928 0.44998036045596446
1.671946844947422 12.987638573669194 175.2308320217987 79.15733176686335 0.4584239617838932
1.695883707889947 12.97009307863324 158.35885558481567 82.92695083940006 0.4671595457043715
1.719364051646337 12.95088312301171 143.28064701584083 86.8955592559694 0.47620865056025685
1.7423468901134405 12.929942122543363 129.78259752486954 91.07473850543876 0.4855856353044466
1.764829778116602 12.907296226284032 117.67982676863387 95.4785678400013 0.49531238199868693
1.7867561744636855 12.882859710184979 106.8234431885907 100.12072527106761 0.505406454149469
1.8080948288479295 12.85660745986159 97.08433619946166 105.01772982123812 0.5158935302792396
1.828805253006779 12.82847415971636 88.33205074627718 110.18612126711683 0.5267961458848306
1.848885026087744 12.798511071473056 80.46234413082215 115.64352891198249 0.5381376715150169
1.8682625179338166 12.766572397416503 73.38904359873507 121.41016240884699 0.5499474459376482
1.8869426989093447 12.732753750309353 67.00880735802289 127.50744165581348 0.5622552608360465
1.9048642860578233 12.696942430491688 61.25556179358147 133.9578040768604 0.575090406248461
1.922007376835738 12.659126332065389 56.07522091019632 140.7869246802763 0.588489154841379
1.9383211574355914 12.61924183363732 51.392125848374434 148.02248770865634 0.6024898014446652
1.953818579025943 12.577400048938504 47.16175507539246 155.69300575352216 0.6171281625016417
1.9684356738483504 12.533474567015242 43.34207731797337 163.83210604354377 0.6324517758019776
1.9821518456622564 12.48747673749999 39.879557856019034 172.47355064459524 0.6485021712949806
1.9949416115026724 12.439403466480687 36.74483099608936 181.65664497427932 0.6653325765993782
2.0067785194309025 12.389246436698818 33.90229333610199 191.4233791874337 0.68299737455502
2.0176269395261106 12.336975686710844 31.32804726489503 201.81978294757096 0.701555792729821
2.0274640340577346 12.282593195720441 28.9909424058009 212.8958076158906 0.7210705227926676
2.036276314813376 12.226130606275872 26.87067825573095 224.70691889754204 0.7416118372517496
2.0440215738454643 12.167539806015021 24.94232298783528 237.31428906220344 0.7632569093670524
2.0506826113938694 12.106836423279237 23.187838670103282 250.78476990598108 0.7860883013061176
2.0562554175044214 12.04409498690183 21.59255626312162 265.191469392165 0.8101942135393463
2.0607045645970037 11.979247974472834 20.141523027992225 280.6160927334596 0.8356742392716221
2.0640121175643 11.912356074700051 18.821559790281256 297.1483800845629 0.862635398074673
2.0661739039413702 11.84345866420922 17.61906077016171 314.8887094231986 0.8911981967212043
2.0671684009131406 11.772571903725293 16.523418452071876 333.94646744469145 0.9214884530115213
