M[M_sun], R[km], Lambda[1], P_c[MeV/fm^3], rho_c[fm^-3]
0.24162668629717493 15.618656898711224 2160425.4255784233 3.5677272577965504 0.1711233750220791
0.2536435514544365 15.277306262518655 1723312.2663940801 3.784811426336051 0.1738880710975224
0.2660386355572917 14.981315985729005 1382986.1254386697 4.01138429100083 0.1766664533490417
0.2788133584554164 14.723554645136119 1116439.3235672177 4.24770219823444 0.17945721246782464
0.29196683046395255 14.498477815081616 905917.421094731 4.4943901768542345 0.18226691186736116
0.3055030478671448 14.301232237998349 738707.1558787018 4.751602742018644 0.18509123647245468
0.3194179441986415 14.12818203024423 605134.190459617 5.020023979889426 0.18793684464896215
0.33371465572797904 13.975987932503465 497711.6845778965 5.299875439270177 0.19080031042906595
0.34839551285724674 13.842072984539225 411033.65244421264 5.591888643550461 0.19368798935232662
0.36345757422419794 13.724023600678017 340676.9559941663 5.896227199037404 0.1965948766196171
0.3789108323515305 13.620030196461208 283327.19980914635 6.213756690596975 0.19952868468208265
0.39474248496173947 13.528466290335908 236419.407446108 6.544736914566318 0.2024856343278024
0.41096479789376866 13.447922609778278 197895.16048350235 6.889865508050373 0.20546935640427422
0.42757232384997695 13.377100236570042 166103.44489783485 7.249849635258086 0.2084829627715454
0.44456575907795803 13.314970397572717 139813.4182928781 7.624951751061517 0.2115220559935813
0.4619470631833237 13.260599908032244 117989.44721094145 8.016113877386301 0.2145926903679267
0.4797101562987383 13.2131915547834 99830.86205189512 8.42404412925933 0.2176965646931925
0.49786691199392186 13.172008682030468 84654.37948751658 8.849188175138245 0.22083121671694547
0.5164046409906824 13.136421323584173 71948.37934621825 9.29240968066228 0.22399991857813928
0.5353210622763594 13.105868258156319 61283.91983865946 9.754597833245517 0.22720565498847517
0.5546267677994973 13.079854411827947 52307.74058553482 10.236562066673427 0.23044977663654223
0.5743073791124436 13.057859984712962 44737.25205511776 10.738780093551552 0.233729064131845
0.5943653487067905 13.039522169641707 38334.727842821536 11.262483484858715 0.23704954140119847
0.614798671022995 13.02451765180802 32907.52716655088 11.808615853573976 0.2404129029940709
0.635599775343589 13.012434357268827 28299.049228480813 12.378156010294788 0.24382078151145622
0.6567700430209903 13.003027999295256 24375.384697860514 12.971802016126091 0.24727123062749629
0.6782987255379457 12.996011469429188 21031.118873066487 13.590862450297715 0.2507688331115321
0.7001875354288197 12.991068530538106 18175.653860234463 14.23654338891594 0.2543163241678694
0.7224199516257026 12.988001634129683 15733.16765546451 14.910034265747012 0.2579156879315355
0.7450059193468556 12.986644415605877 13636.364031929752 15.612375644329703 0.26156693150169175
0.7679254829667636 12.986761007707022 11838.002724908127 16.344811745782053 0.2652717320246865
0.791168871241798 12.988130185966423 10291.204466764151 17.10896872329379 0.269034885815242
0.8147417539598577 12.99065444891068 8958.372932878152 17.90630128720612 0.27285882479121276
0.8386221967639784 12.994122114468627 7809.225247435209 18.73818595327201 0.2767447319935039
0.862800636513929 12.998391015824499 6816.026049109016 19.60594444040593 0.28069288687398936
0.8872745934552946 13.003345125203381 5956.7012600704375 20.511672931606284 0.2847097471848714
0.9120339100737817 13.008839856936895 5212.327385954647 21.457165101011874 0.28879832537289607
0.9370526736705131 13.01472437658942 4566.3487750557815 22.44391919074704 0.2929586584552692
0.9623290412839319 13.02092305813776 4005.3328320285036 23.473931800774626 0.2971943171433495
0.9878521486387047 13.027320269930408 3517.379269506302 24.549638365119797 0.30151151214389293
1.0135937266479957 13.0337810037697 3092.610863699072 25.672997584338688 0.30591199898109334
1.0395557811895293 13.040230048505649 2722.14364631246 26.84593708069972 0.310396791014574
1.0657061096561176 13.046557665480945 2398.933780784692 28.071568862510507 0.3149747421512661
1.0920356239978555 13.052687485795099 2116.208710147206 29.351966209631847 0.3196464262191193
1.1185321039735436 13.058524369243123 1869.074373217023 30.689847080131397 0.3244162722055693
1.145161132764534 13.063979953393483 1652.5282475653348 32.088649764962994 0.329292599701939
1.1719217520228813 13.06900121179299 1462.5049044060072 33.55027174526553 0.3342728253480655
1.198777106618002 13.073452077867133 1295.7731617321513 35.07927495247188 0.33937065072909844
1.2257211090199276 13.07732279983359 1149.3591838069308 36.67770711341086 0.34458298928710746
1.2527161819052963 13.0804843090785 1020.4682082649501 38.35057884108971 0.3499240277583705
1.2797555644302228 13.082934498065638 906.9624251477128 40.100153762969356 0.3553904955358873
1.3067984501081746 13.084516876267383 806.9569163422148 41.93190546158332 0.3609969673705401
1.333833743877555 13.085234533463524 718.7322861410247 43.849269955141295 0.3667451131624983
1.3608416411019097 13.085035169247167 640.8133005710996 45.85700466171425 0.3726430747161279
1.3877710997852335 13.083779170066014 571.9707724309288 47.96040629420344 0.37870061223068985
1.4146272702637133 13.081492935634264 510.97075077769824 50.16418708046195 0.38492315690221773
1.441349571845931 13.07804297946403 457.0102603961106 52.473647796343116 0.3913181062953968
1.4679424436627941 13.073449738218637 409.13449014831195 54.895161254022156 0.3978969337331462
1.494351120563302 13.067586614289462 366.63791280343634 57.43491447643049 0.40466869546757867
1.5205616149499435 13.060448330206162 328.9285413355646 60.09953234088896 0.41164315744638963
1.5465448900556547 13.051966255224562 295.37667433803944 62.89611699292107 0.4188308537407849
1.5722607444659074 13.04209172630535 265.5454752645426 65.83229103329646 0.4262431497426683
1.5976844287699148 13.030767674215635 238.9902744623884 68.91624486129656 0.4338923106893213
1.6227717437066265 13.017953434848353 215.30358350353816 72.156788604808 0.44179157614217623
1.6475235662077006 13.003620581947313 194.15829142310005 75.56340912182269 0.449955241121997
1.6718718047048595 12.9876921636324 175.28518486821318 79.14609183477653 0.4583977391509278
1.6958097141654636 12.970150226150324 158.41379613714764 82.91492020029801 0.4671318993307539
1.7192747783879723 12.950911727418724 143.32765918190088 86.88267598198354 0.4761794762833703
1.7422765385343548 12.930013559834185 129.81544348261176 91.06099723390292 0.4855550660332596
1.7647575326946796 12.90737337319663 117.71379113891227 95.46383620225603 0.49528005749605897
1.7866848619429707 12.882945171419129 106.85391484103125 100.10499044004082 0.5053724990667496
1.8080244937397185 12.856698564892502 97.1153017584072 105.0009102073142 0.5158578137938169
1.8287365741860475 12.828573452358116 88.35705287382179 110.16812787596781 0.5267585264903197
1.84881722049632 12.798616652860801 80.48970188867054 115.62419108270193 0.5380977262326951
1.8682049207938956 12.766716811483246 73.40082353932983 121.3894449586822 0.5499052728012113
1.8868773588319117 12.732878314328946 67.03098039512227 127.48522827436649 0.562210678756726
1.904802386033741 12.697072564387232 61.27595481885103 133.9340491420905 0.5750435066313834
1.9219466031892918 12.659269612682944 56.09288395044579 140.76141014537995 0.5884394428247136
1.938262468368031 12.619392131967494 51.407212354777464 147.99506078828696 0.6024370443987603
1.9537634497279117 12.577560691144415 47.178128287504066 155.66358896955512 0.6170724147513625
1.9683835423500406 12.533644005826583 43.35264418678771 163.8005211404075 0.6323927749404302
1.9821014287028726 12.487657132726024 39.89248380724879 172.43950682025985 0.6484393130956201
1.9948951801701897 12.439593296661268 36.7570932509456 181.6200188226203 0.6652658615562809
2.006727558496139 12.389429788735196 33.914566558742465 191.38393287643825 0.6829264614486561
2.0175865314703425 12.337186551333346 31.338224202903177 201.77725412163852 0.7014803082589137
2.0274265257492408 12.282814944767285 28.999863947293182 212.85001379131262 0.720990409236326
2.0362410367480197 12.2263628095657 26.877145781974182 224.65743623861823 0.7415263052977848
2.0439922552404677 12.167783028497405 24.948919633824588 237.26087651387363 0.7631658360655897
2.0506566422613592 12.107093599887884 23.194883537109817 250.72700681834587 0.7859910532915828
2.056234636254196 12.044362399858976 21.599681711982374 265.1288784113544 0.8100900585108182
2.060687737978046 11.979527621742088 20.14787678119349 280.5484011787757 0.8355632093668691
2.0639998405157334 11.912645807448014 18.82695487397382 297.07493993383537 0.8625164118714063
2.066167139063495 11.843761848440053 17.623598324641716 314.80893098901606 0.8910704871392884
2.0671664922240427 11.772884364254992 16.52833105618313 333.85982457908636 0.9213516075262813
