M[M_sun], R[km], Lambda[1], P_c[MeV/fm^3], rho_c[fm^-3]
0.24162668629717493 15.618656898711224 2160425.4255784233 3.5677272577965504 0.1711233750220791
0.2536438741209804 15.27728167872697 1723178.5687459775 3.784816564795608 0.17388813514594192
0.26603956843643506 14.981279469580615 1382957.0409664998 4.01139509305761 0.17666658388552298
0.2788142909190464 14.723533832890842 1116453.851437144 4.247719029327758 0.17945740768314322
0.29196801368225755 14.498481356668849 905932.6258994531 4.494413478633295 0.18226717133807907
0.30550477118151653 14.301222757319415 738710.8654670644 4.751633305673041 0.1850915666182538
0.3194207767240162 14.128114201152831 605119.1077864957 5.020062030545953 0.18793723943920984
0.333718038911135 13.975953455164529 497656.01768832933 5.299921978680684 0.19080077900370693
0.3483982760198391 13.842049656234876 411019.3792639387 5.591943787899025 0.19368852288906865
0.36345944039202316 13.724040913673752 340651.7165474249 5.896292187195828 0.19659548700215398
0.37891391733218044 13.620016424644453 279402.98442562006 6.213832308991366 0.19952937423078904
0.39474506773291507 13.52847847471834 236408.17824372798 6.544823084672165 0.20248638992322057
0.4109702389384861 13.447907749065052 197877.82868073002 6.889963893343426 0.20547019429471564
0.42757742906872315 13.377074816733607 166087.55970847438 7.249961158943965 0.2084838853784176
0.4445719231113712 13.314945972170651 139803.95423743923 7.625076104888216 0.21152304593000104
0.4619530280166675 13.260583876638265 117987.09166095404 8.016253230335273 0.214593768375649
0.47971794190770733 13.213181833816446 99815.55160067962 8.424199567946257 0.21769773337481887
0.4978740052929577 13.171995706657098 83772.02765140981 8.849359126426785 0.22083245447731636
0.5164115875249137 13.136412855197413 71943.54240872493 9.292598911014139 0.2240012507716135
0.5353290024732857 13.105859169932007 61280.65144879942 9.75480662564537 0.22720708449176483
0.5546349481147804 13.079838469773804 52302.217389430625 10.23679178206347 0.23045130645142764
0.574316992957967 13.057851667609471 44733.937327002466 10.739029733814144 0.2337306668996597
0.5943738164267178 13.039533579746339 38331.516926102755 11.262756804129035 0.23705124910494552
0.6148097458650447 13.024510810434242 32904.93729641719 11.808914466431014 0.24041471905846623
0.6356131170825937 13.012455431515518 28294.85325970289 12.37848163204443 0.24382270954199795
0.6567822127456422 13.003024201443246 24372.82018823824 12.972153151465758 0.247273237573108
0.6783134092661843 12.9959820446195 21029.619535515652 13.591244085291994 0.2507709579529341
0.7002007485796697 12.99106880152361 18174.000346268873 14.236957569750572 0.2543185711191114
0.7224351753076471 12.988003414139666 15731.083903906643 14.9104831700758 0.2579180614579376
0.7450208679408823 12.986658029936681 13538.747254156833 15.612857209890707 0.26156939294540454
0.7679414549886678 12.98676053951591 11837.481574647856 16.34533249378112 0.26527432782285376
0.7911849821893073 12.988140341438646 10289.94454666394 17.10953126715402 0.269037621275541
0.814757347118483 12.990674836891925 8956.963655550504 17.906908413613102 0.2728617055626023
0.8386417885543617 12.994121470758902 7808.073896824814 18.738834969423696 0.27674771388691094
0.8628207631020309 12.998400015796422 6815.320356569856 19.606643784800813 0.28069602439123575
0.8872965780895419 13.00334211875181 5920.327275776466 20.51242597003177 0.28471304711601236
0.9120544223592864 13.008851334612876 5211.8039197217795 21.457975429730634 0.28880179496580916
0.9370747554211251 13.014738768651247 4565.731116241942 22.444783434302842 0.2929622480309743
0.9623480933197084 13.020940586026008 4005.008870142064 23.474860804390996 0.2971980901030694
0.9878763843894866 13.027322808049059 3516.989457264107 24.550636501332814 0.3015154772652297
1.0136168907345688 13.03378516889979 3092.256317078924 25.67406098960329 0.3059161028668097
1.0395808899528098 13.040236561150557 2721.795481312444 26.84707875481221 0.3104011040537903
1.0657309334748568 13.046569114778208 2398.6340434265016 28.072794149348702 0.31497927502007617
1.0920620411217024 13.052700970216735 2115.913859693759 29.353270766700714 0.3196511218235651
1.118558787363209 13.05853307962299 1868.8197067264734 30.69124648179761 0.32442120868562585
1.145188829652129 13.063985214158746 1652.3194170262154 32.09013944403109 0.3292977180924895
1.1719516607072902 13.068998825870464 1462.2756493653922 33.5518691746281 0.3342782088497192
1.1988059353493243 13.07346212673799 1295.5865252041165 35.08098767122269 0.3393763142256883
1.2257521404964578 13.07732332598277 1149.240818835658 36.67953015157026 0.3445888701260094
1.2527458596488419 13.080491404939945 1020.2835670456194 38.35253317254231 0.34993021865198026
1.2797874326366505 13.082935869676884 906.8683748530215 40.10223429337722 0.35539693200190897
1.3068306933683134 13.084520740355408 806.8620103704852 41.93412079053656 0.36100366464558664
1.333867197241388 13.085238605977352 718.7166666239119 43.851644918708296 0.36675217278246014
1.3608749126288657 13.085033764188685 640.721439155607 45.85953428379452 0.3726504305135141
1.3878043704994993 13.083777327586231 571.8936021692658 47.963101378922985 0.37870828331179396
1.4146606667579802 13.08149039813379 510.88569198548475 50.16707717845142 0.3849312552752796
1.4413838290014063 13.078038170907533 456.9555174212071 52.47672831989383 0.3913265642588946
1.4679781721840766 13.073441970001861 409.07298200945837 54.89844584250933 0.39790577525463333
1.4943859813885405 13.06757918897979 366.5862819236472 57.438417873995505 0.4046779463673526
1.5205980218286166 13.060437125261117 328.8833864859214 60.10327049534748 0.41165284554963383
1.5465808813434956 13.051952901981508 295.3344122802441 62.900107164541055 0.41884100904479044
1.572296627503516 13.042075922445072 265.50460704024295 65.83655191454298 0.4262538046007491
1.597721142766828 13.030750397436725 238.96052440841774 68.92079670877808 0.43390350001323424
1.6228082219710718 13.017932758464372 215.2728753520236 72.16165338480637 0.44180333762506624
1.647559832993361 13.003596553549693 194.12994280544214 75.56861067096406 0.44996761548413633
1.6719092095635648 12.98766409294762 175.2578147524817 79.15162887916975 0.4584106570121493
1.6958475964627 12.97012098105121 158.38844504619868 82.92084675838875 0.46714551854398545
1.719326751518872 12.950915181326797 143.30247194628447 86.88902255975508 0.47619384815944715
1.7423130885112923 12.929977407513308 129.79777769072493 91.06776647315937 0.48557012509893777
1.764792733374553 12.907335927771513 117.6975371176211 95.47109330823437 0.49529598120700846
1.7867201648297995 12.882903795719622 106.83836631412377 100.11274173154645 0.5053892260175384
1.8080588519117882 12.856653623485986 97.0993954949194 105.00919587567333 0.5158754084279449
1.828770697910934 12.828524185648238 88.34435473949478 110.1769917600153 0.526777058514001
1.8488511305156154 12.798564706564742 80.47712201383636 115.63371724997165 0.5381174040070468
1.8682383979655484 12.766661165764011 73.39087136119427 121.39965074038778 0.549926048032762
1.8869086385779958 12.73281781964315 67.02098488984271 127.49617096498194 0.562232640649478
1.904832262228562 12.697009352670541 61.265705242463206 133.9457512153455 0.5750666101574503
1.9219762106275982 12.65919924346373 56.083824959576255 140.77397901046976 0.5884639317536065
1.9382919473842515 12.619318007374085 51.40118238108885 148.00857170679743 0.6024630333227253
1.9537902083988063 12.57748125772464 47.16952608737788 155.6780801073269 0.6170998769080235
1.9684086806506735 12.533560774673525 43.34620120132973 163.81608030544842 0.6324218395900324
1.982125787583659 12.487568222334817 39.886121428148826 172.45627725960557 0.6484702778782301
1.9949175863267339 12.439500114555859 36.753064411070305 181.63806132576096 0.6652987262259251
2.0067563044264807 12.389347147929646 33.90809986784066 191.40336459771737 0.6829613940870479
2.017605898019961 12.337083128566018 31.3320093035319 201.79820429524406 0.7015174927504993
2.0274455940070957 12.282705359886025 28.99687205492592 212.87257230773824 0.7210298740111795
2.0362585677016276 12.226247920889556 26.8734080901979 224.68181187435485 0.7415684391644571
2.0440065225645703 12.167663002291235 24.946158830075447 237.28718801062502 0.7632106995845661
2.0506693561660114 12.106967111963808 23.191668910432274 250.7554790314955 0.7860390159209738
2.0562451415282568 12.044230708884546 21.59628380545257 265.15971118119563 0.8101413660311801
2.060695416634083 11.979390585729856 20.144591070246868 280.581746474022 0.8356179034121225
2.0640038009456068 11.912502510797957 18.823439547056083 297.111116959064 0.8625750251345164
2.0661705084803286 11.843612899163194 17.62121619746089 314.84823021395954 0.8911333974688602
2.067166636314094 11.772731877128857 16.52568904728454 333.90250517560906 0.9214190181191869
