M[M_sun], R[km], Lambda[1], P_c[MeV/fm^3], rho_c[fm^-3]
0.24162668629717493 15.618656898711224 2160425.4255784233 3.5677272577965504 0.1711233750220791
0.253644971875338 15.277256391656467 1723334.1231272628 3.7848377691071744 0.1738883994474563
0.2660412731108984 14.98124862189955 1382883.0336760082 4.011439668928186 0.176667122558612
0.2788173255884476 14.723485358330594 1116335.181388008 4.247788485009301 0.17945821326438166
0.29197353644931506 14.498367518241057 905853.0782174952 4.494509636882684 0.18226824208250317
0.30551029034650706 14.301165177926867 738609.4649977969 4.751759431723126 0.1850929290203099
0.3194281868193273 14.128058850063429 605041.8590427978 5.0202190536668985 0.187938868614695
0.33372530666829037 13.975975617398742 497641.44915020856 5.300114033108401 0.1908027126731181
0.3484096381955146 13.84190824730986 410955.83527962817 5.592171353344371 0.19369072464735346
0.36347367300131816 13.723911733187787 340632.33016828855 5.896560376520787 0.1965980058930489
0.3789273483660439 13.619955570015515 283263.81010475295 6.21414436794208 0.1995322198326761
0.39476286654935916 13.528381021597454 233251.95440602774 6.545178689449099 0.20248950809671576
0.41098865107395344 13.447800374967567 197833.14209659887 6.890369909243075 0.205473652096495
0.4275989520145104 13.376993546249372 166060.56672836197 7.250421396291416 0.20848769280404436
0.44459527856556114 13.314866202706279 139776.87418386518 7.625589291817472 0.21152713122793604
0.461978348932694 13.26052868052912 117961.94807035201 8.016828318528074 0.21459821714775915
0.47974414048427066 13.213109083040646 99793.98302512968 8.424841042233682 0.2177025563646957
0.49790392381883775 13.171936223000499 84625.98408154029 8.85006462174396 0.22083756256484768
0.5164425849345204 13.136370373499869 71925.505095198 9.293379845094048 0.22400674859622163
0.5353643573639797 13.105803144606657 61261.90164013709 9.755668293876978 0.227212983928586
0.5546732618234241 13.079784071786067 52294.70641269385 10.237739393620869 0.2304576146457172
0.5743573670810791 13.057807055988388 44718.83661430186 10.740059985640144 0.2337372814355147
0.594415995399861 13.03949858122358 38320.419186984116 11.263884782598543 0.23705829673483522
0.6148557469357843 13.024474773114479 32616.20543266439 11.810146835681019 0.24042221391966895
0.6356612687298415 13.012415343929488 28283.789552501596 12.379825471995089 0.2438306665180627
0.6568341071636253 13.003014732703177 24363.84927069883 12.973602290953243 0.24728152026017086
0.6783677165194135 12.99596699401596 21022.38587468218 13.592819103665159 0.2507797272332632
0.7002580367259268 12.991046038344868 18166.843310407956 14.238666912750524 0.25432784438831063
0.7224949278340694 12.988004308088131 15724.290829001015 14.912335826129631 0.2579278571488582
0.7450847232658674 12.986642694861583 13533.386068305123 15.614844667648104 0.2615795515111275
0.7680039400698513 12.986778670974896 11832.2415512698 16.347481669293852 0.2652850409237529
0.7912533719638165 12.988142251925227 10286.694831050394 17.111852947668027 0.2690489108216936
0.8148321156779958 12.990661658549213 8953.387387402987 17.909414101596145 0.27287359487291657
0.8387164896593501 12.994132052620364 7805.281031746708 18.741513550789747 0.2767600205823527
0.8628995837866061 12.998419049058683 6811.977283761051 19.60953008996181 0.28070897342219575
0.8873827251370042 13.003376311018059 5953.361268157796 20.515533891983466 0.2847266665118956
0.9121413885155872 13.008863877232777 5209.32135940483 21.461319812882024 0.28881611464597357
0.9371631643158397 13.01476680542147 4563.696597609629 22.4483503465891 0.29297706295391956
0.9624482597592082 13.020967330719152 4003.099852495721 23.478695011188112 0.29721366195612636
0.9879716374412382 13.027352270814708 3515.2813989951446 24.55475605156698 0.3015318422826677
1.0137159595809337 13.033814379741576 3090.6956325220317 25.6784499362814 0.3059330406573039
1.039683560241607 13.04026060318822 2720.4014721744984 26.851790757625857 0.31041890515193205
1.0658367424469615 13.046595004552504 2397.3169666524886 28.077851267064723 0.314997983497511
1.0921709863198201 13.052725863689544 2114.858105907446 29.358655075033955 0.3196705020275826
1.1186711463461587 13.058555538191207 1867.6633129079808 30.697022268781733 0.324441583148474
1.1453044345339065 13.06401120883462 1651.443548792007 32.096287857619835 0.32931884343598605
1.1720694447287 13.069021849174575 1461.4318950075171 33.55846234051999 0.33430042849855873
1.1989282362483045 13.073481785428406 1294.8815496676318 35.088056710572815 0.33939968962239825
1.2258754682517454 13.07734101690058 1148.5740160441392 36.68705454930286 0.34461314266834303
1.2528737993305934 13.080497924131016 1019.7109538658104 38.360547943825345 0.3499554685634487
1.2799176814641662 13.082940848300135 906.3660826339974 40.11082153720037 0.355423498065485
1.3069633728228884 13.08452329744824 806.4496172785164 41.94326444201437 0.36103130728926114
1.3340024050914077 13.085237874837595 718.294934838954 43.861447501780034 0.36678131112887197
1.3610115140972197 13.085032099979781 640.3526009758632 45.86997525735198 0.37268079144632016
1.3879438038723853 13.083766249198096 571.5380107060209 47.974225343051685 0.378739945704598
1.4147968338158878 13.08145509277419 510.61335256239585 50.17900612145502 0.38496468148817237
1.441527088790512 13.07801620296729 456.6939912463355 52.489443303492344 0.3913614748399635
1.4681228478535646 13.073413667375581 408.83795797221126 54.91200317199409 0.39794226914737374
1.49453313971239 13.067543695645172 366.3687092512539 57.45287841569432 0.4047161301644955
1.5207455415785467 13.060391159627285 328.703003277053 60.11870008501069 0.4116928341213559
1.546731895370131 13.051898898418663 295.1571378194605 62.916577056478744 0.4188829262291863
1.57244645142491 13.042012886298341 265.3431798836556 65.85413927605225 0.4262977839632458
1.5978611328067998 13.03067114897208 238.80881035520997 68.93958516495192 0.4339496856824173
1.6229583479770466 13.017850786502727 215.1331238004087 72.1817336194381 0.4418518852132672
1.6477092600071 13.00350465562338 193.9995785664574 75.59008108997593 0.4500186931021528
1.6720588178881561 12.98756262587991 175.14701768243307 79.17448422136476 0.4584639782640082
1.6959960358667168 12.970003056194958 158.29107792175495 82.945310034437 0.46720173508109575
1.7194763153738848 12.950784468560599 143.21224304043454 86.9152197119269 0.4762531718198722
1.7424561051488077 12.929828610365615 129.71770052482267 91.09570840538 0.48563228561307314
1.7649396953586023 12.907177034461418 117.61562658724887 95.50104922163813 0.49536171116984673
1.7868658532827753 12.882739452273976 106.77094117117655 100.1447377104188 0.5054582719518388
1.808203104236535 12.856468544162999 97.03810492811895 105.0433978504418 0.515948036393056
1.8289162591370096 12.828334168001966 88.29295985494723 110.21358072150092 0.5268535562995197
1.8489886437613041 12.798345071106116 80.4222684235578 115.67304028480108 0.5381986318276683
1.868362761836044 12.766398426909124 73.3513227494825 121.44177939931457 0.5500118065439058
1.8870379232839691 12.732570286783675 66.97228155440051 127.54123892472029 0.5623229306514346
1.9049607738202754 12.6967411254957 61.22897187758134 133.99405700202752 0.5751619807791742
1.922099013669208 12.658912745372433 56.04700132039398 140.82586322031307 0.588565021924949
1.9384104821588783 12.619012312481505 51.366266609166885 148.0643450788851 0.6025703161788343
1.9539044512475385 12.577155317030977 47.14268944429025 155.73790021294434 0.6172132419962455
1.9685170701141792 12.533216529503031 43.32058447841746 163.95786645075438 0.6325150608697252
1.9738393185951213 12.495783751996072 41.287698027165156 174.57601451264273 1.8925394064051004
