M[M_sun], R[km], Lambda[1], P_c[MeV/fm^3], rho_c[fm^-3]
0.24162668629717493 15.618656898711224 2160425.4255784233 3.5677272577965504 0.1711233750220791
0.25364060187944915 15.277378586536026 1723144.401329183 3.7847751255619126 0.17388761862588487
0.26603435017309673 14.981389361423926 1383045.3048992534 4.011307980197406 0.1766655311780179
0.2788069310078337 14.723672099656566 1116625.6427157612 4.247583296376813 0.17945583338545745
0.2919587721013063 14.498571765813844 906058.4656002149 4.4942255645794305 0.1822650788714767
0.3054905232375304 14.30143544393933 738812.400575753 4.751386830806014 0.18508890421928556
0.3194022025559134 14.128391045604731 605264.4882145304 5.019755180036703 0.18793405574674296
0.33369829358895325 13.97616322968513 497821.79263817915 5.299546675001342 0.19079700031839736
0.3483751317361795 13.842254263364413 411142.457990083 5.591499094798999 0.19368422036099503
0.36343418371481434 13.724204428725297 340760.372512236 5.895768115235823 0.19659056480740017
0.378884315383624 13.620204716906013 283412.193088766 6.213222517334652 0.19952381366511676
0.3947124953299084 13.528654509957141 236506.35983619498 6.544128207224384 0.20248029678673699
0.41093306666399265 13.448082406044072 197956.4396870139 6.889170517159538 0.20546343757020627
0.42753582992848804 13.377246930587532 166160.242170037 7.249061840518745 0.20847644554756134
0.44452688300758286 13.315093477033907 139873.75555035193 7.62407333056733 0.21151506320162503
0.46190356827694634 13.26072705368404 118043.90689164067 8.015129511507824 0.21458507550203104
0.47966308924329376 13.213309802953761 99862.31818242012 8.422946143767412 0.21768830937724884
0.4978151311398986 13.172123703366214 84693.32604677121 8.847980619058035 0.22082247349497575
0.5163482339195975 13.136526512304979 71981.29418002667 9.291073014785756 0.22399050836703716
0.535260072916917 13.105965401940361 61314.34321794921 9.753122996690989 0.2271955574767464
0.5545621709039228 13.079912421898007 52336.182207980026 10.234939448073634 0.23043897062965316
0.5742341875303716 13.05797384488941 44758.11601459284 10.737016743470372 0.23371774287810632
0.5942894831730177 13.039600678757779 38354.02312690104 11.260552889133216 0.2370374790041689
0.6147216990299569 13.024585267250101 32926.230545391976 11.806506609828295 0.24040007527290166
0.6355165461874268 13.012496029053622 28316.44957715903 12.375856004901117 0.24380716300885305
0.6566837411215207 13.003052330580813 24390.298824368325 12.969321810897537 0.2472570547914659
0.6782079547336616 12.996011719322345 21044.88654230935 13.588166831581255 0.2507538246287183
0.7000901849481849 12.991087365111174 18187.845210361014 14.233617906693532 0.2543004532840346
0.7223170501914296 12.988018910740408 15743.284035088289 14.906863541703544 0.25789892311830426
0.7448980966013381 12.986644329876142 13645.85041622426 15.608974244019924 0.26154954579954615
0.7678114446283345 12.98675944769386 11846.246669422497 16.34113361536998 0.26525339746708926
0.7910497059608759 12.988121788402834 10298.285742015874 17.104995407515595 0.26901556492609024
0.8146157841524722 12.990652799498116 8964.577272373554 17.902013107424537 0.2728384776847687
0.838492692423454 12.994104809017633 7814.467501591503 18.73360192747322 0.27672367076679716
0.8626660919268002 12.9983701650139 6821.120991548349 19.601004976672066 0.28067072661537223
0.8871341569360632 13.003319949248787 5961.424758529172 20.506354262407253 0.28468643995176857
0.9118867513390218 13.008799805235943 5216.284810592912 21.45144183152589 0.28877381999034146
0.9369001914999864 13.014685728405407 4569.947793754266 22.43781515904366 0.29293330578268195
0.9621697948801917 13.020890920537374 4008.6534053188907 23.46737042171518 0.2971676694334134
0.9876894039566856 13.027283137174749 3520.336180921119 24.542588762989777 0.3014835074212336
1.0134283642160171 13.033748109670126 3095.3891432104524 25.665487043205392 0.30588301435641135
1.0393801083070224 13.04019028461714 2724.4519026580538 26.837873803217725 0.3103663294041978
1.0655264943431093 13.046525266097523 2400.955762519903 28.062915114968803 0.3149427281761715
1.091848410693525 13.052645377491086 2118.1171136614194 29.34275265733152 0.31961326308798804
1.1183399438713848 13.05848672793222 1870.6212933030931 30.679963748773538 0.3243814081137806
1.1449645610488508 13.063954040654217 1653.9100695109473 32.07812890586444 0.32925645106633933
1.1717199115314108 13.068956881220398 1463.8594198301648 33.538989980634334 0.33423480463805977
1.1985692499938094 13.073427634718003 1296.9392490856535 35.06717905021756 0.33933065285954994
1.2255087831563678 13.077293041984843 1150.4077561214126 36.66483216789571 0.34454145670587427
1.2524986813452892 13.080462244223641 1021.4128149484209 38.33677675826667 0.3498803057857045
1.2795339729035817 13.082912075201937 907.8371382723573 40.085460514492965 0.35534503953379853
1.3065721055318078 13.0845079756322 807.8265400017892 41.91626032770506 0.3609496697605987
1.3336031579391343 13.085231699322192 719.4528292631436 43.83249757690001 0.3666952569803299
1.3606062573123863 13.085038995857829 641.4037689101325 45.839140174629065 0.3725911272143913
1.387533039240193 13.083794467728636 572.54836450305 47.94137341503969 0.3786464385126428
1.4143839459423397 13.081520103547248 511.4778359577111 50.143777169152195 0.3848659660815091
1.4411109702599703 13.078097540799384 457.465382512266 52.45189324485608 0.3912583764477395
1.467694477901295 13.07350060323899 409.54832940465093 54.87196576369147 0.39783449564479395
1.4941000283671182 13.067648784644268 367.04424037015235 57.41017394965196 0.4046033668460516
1.5203093312153417 13.060520725239625 329.27955207892524 60.07313418299822 0.411574741846676
1.546290191344384 13.052056149740674 295.6958037806213 62.86793934442446 0.4187591393851386
1.5720043283305083 13.042194880128502 265.8222049706652 65.80220192470254 0.42616790822259387
1.5974266782350979 13.03089160175556 239.24897939277574 68.88410128184958 0.43381329553698716
1.622513423686897 13.018092170216882 215.5241367606835 72.12243547535577 0.44170852125697957
1.6472662061247154 13.003777274204007 194.36734259316918 75.52667816084404 0.4498678590362907
1.6716147269510013 12.987872202710298 175.47782572989297 79.1069920299397 0.45830651975357434
1.6955533313125968 12.970350703294404 158.59423192157226 82.87307020266906 0.4670357281580895
1.7190254121145885 12.951159825774745 143.48131981935848 86.83786043362169 0.476077991116
1.742024536684054 12.930261867517231 129.97148190648292 91.01319747786086 0.48544872917052373
1.7645103221414253 12.907647775200457 117.84495059324796 95.41259193334795 0.4951676161277854
1.7864369278488492 12.883239251146357 106.97574288249302 100.05025704358033 0.5052543867717291
1.8077800292373813 12.857013645992792 97.222575090403 104.94240395878921 0.5157335756524402
1.8285051144193052 12.828939333076157 88.46044716235188 110.10532210861511 0.526626861990742
1.8485803416632962 12.798986942122047 80.57785246445859 115.55692676381972 0.5379587813610165
1.8679736705575911 12.767117504761877 73.48576727895231 121.31738253993754 0.5497585801245775
1.8866520020440987 12.733310397205717 67.10545245374635 127.40796331789855 0.5620556086056028
1.904582548075044 12.697531366298351 61.34451259276384 133.85142298948108 0.5748803769509397
1.9217350185663906 12.659760717349021 56.15505698831437 140.6726646359113 0.588266532824057
1.9380652287160087 12.619942047550104 51.46666381488638 147.8996646797512 0.6022535452377394
1.9535598915244305 12.578091285314713 47.23044864430353 155.56127284434626 0.6168785154521033
1.9681959069865214 12.534231160340825 43.400136434138844 163.69040965188884 0.6321866980839587
1.9819268466414457 12.488285567686992 39.9365634268419 172.3211000091006 0.6482206878651474
1.9947269680291184 12.440253118718594 36.79654561573544 181.4926320471144 0.6650338247783792
2.006575762104623 12.390130013920983 33.952834821013184 191.24673924303303 0.6826798268084934
2.017443720312043 12.337921741971419 31.372354104019987 201.62934149189266 0.7012177779314926
2.0272969064106943 12.283588786720944 29.032791261322032 212.69074768599765 0.7207117827136658
2.036124620652727 12.22717559281734 26.906362322348983 224.48534318776274 0.7412288383624266
2.0438881422815123 12.1686382655012 24.97516540022923 237.0751184360673 0.7628491014789023
2.0505687317869055 12.10799073466653 23.219127263228053 250.52583916564822 0.7856519301008499
2.056155555992663 12.04527039691854 21.621895046477135 264.9112061047217 0.8097278391460869
2.0606304201154835 11.98049955245534 20.16860798047393 280.3127649216147 0.8351763387787321
2.063964882159694 11.913673496980728 18.845783885963893 296.8195452679433 0.8621026267507602
2.0661423891988853 11.844815904284566 17.640603643317718 314.53149897920366 0.8906263730582553
2.0671612800049073 11.773984589488112 16.543947362796693 333.558526218033 0.9208757308325408
