M[M_sun], R[km], Lambda[1], P_c[MeV/fm^3], rho_c[fm^-3]
0.24162668629717493 15.618656898711224 2160425.4255784233 3.5677272577965504 0.1711233750220791
0.2536409632827219 15.277366329617923 1723226.1475438073 3.784780313114088 0.17388768328622017
0.26603503064911055 14.981368380296479 1383106.2109807085 4.011318885308228 0.17666566295984643
0.27880794813444787 14.723649455989941 1116578.2179095985 4.247600287819331 0.17945603046058511
0.2919600327909288 14.498551746099858 906040.6729456193 4.494249088052529 0.18226534081080917
0.305492344467847 14.301402039785703 738828.577108901 4.751417684843689 0.18508923750177825
0.3194056104929825 14.12831987069496 605260.1130730773 5.019793591738567 0.18793445428297537
0.33370056931971986 13.976165890980738 497797.0986375439 5.29959365540858 0.19079747333314365
0.3483777176729168 13.842228014222705 411138.31272307073 5.591554761025867 0.19368475894705323
0.36343667766699506 13.724215430547792 340746.7104078161 5.895833717621763 0.19659118095889186
0.3788885165135637 13.620168682742817 283396.96233784856 6.213298849489992 0.19952450972246355
0.3947165084271375 13.528635876044925 236487.48112402603 6.544215189713577 0.20248105950565962
0.4109376765477434 13.448061295027811 197946.5754082176 6.88926982880167 0.20546428334982517
0.42754095846890056 13.377244815496878 166147.24548982186 7.24917441291207 0.2084773768301215
0.4445329532227821 13.315069218414168 139865.62514198737 7.6241988524047954 0.21151606243616153
0.4619097595607622 13.260713731339179 118038.22944439968 8.015270171694263 0.21458616362229202
0.47966983015645986 13.213290215034933 99861.18882432788 8.423103038751046 0.2176894890081906
0.49782095782628905 13.172119411417444 84684.76514063844 8.848153170204474 0.2208237228390014
0.5163558220236858 13.136522644226645 71976.05525169577 9.291264013854304 0.22399185301238714
0.5352685738046308 13.105954918173575 61310.90261663247 9.753333738224587 0.22719700032483742
0.5545722046577191 13.079911803125292 52334.23871534668 10.235171305255722 0.23044051470803809
0.5742496451958123 13.057913722679826 44758.48824198577 10.737268708813145 0.23371936057365603
0.5943005757546194 13.039588406126805 38352.9885876058 11.260828750883054 0.237039202593374
0.6147322723015671 13.024557154300336 32923.40860573379 11.806807997024778 0.24040190820990973
0.635527942010614 13.012475038073912 28080.46866545872 12.37618464818909 0.24380910893014746
0.6566943971456918 13.003059656242957 24387.812656626473 12.969676201135993 0.24725908034074434
0.6782223293673845 12.99600997850004 20880.69996395892 13.588551999838726 0.2507559691423832
0.7001033338147561 12.991086758177614 18185.442113379107 14.234035917376035 0.2543027210123882
0.7223310016730655 12.98801440630691 15740.653038399785 14.907316591825701 0.25790131856507864
0.7449130178735986 12.986648528913703 13644.831816700189 15.60946025245405 0.2615520299522793
0.7678276247452 12.986747104990645 11844.769675933172 16.341659161776594 0.2652560171841147
0.7910658578178031 12.988118080280273 10297.346129117313 17.10556312845301 0.26901832556076244
0.8146330932486019 12.990657456498981 8963.634763213338 17.90262581420792 0.2728413849346452
0.8385094245596229 12.994111698050185 7813.443989477914 18.73425690291964 0.27672668004008005
0.8626851773130086 12.998367324625447 6820.382217190938 19.60171073438155 0.28067389290511663
0.8871538786566792 13.0033225529074 5960.895876875524 20.507114197782492 0.2846897701064127
0.9119061053858974 13.008812124567761 5215.780655005193 21.452259572420076 0.28877732132004325
0.9369233984667902 13.014693415915058 4569.279150932774 22.438687299734173 0.29293692815858874
0.9621932396406148 13.020893292010525 4008.1475614799865 23.468307903232407 0.29717147682440775
0.9877131807350669 13.02728490446626 3519.9168941966145 24.543595996098734 0.3014875086802195
1.0134488960596242 13.033742225853064 3094.7802341503548 25.6665601299611 0.30588715560486646
1.0394056695086242 13.040192806106747 2724.128526610817 26.83902585760026 0.3103706816582051
1.0655532815534552 13.046529860727013 2400.4940293645122 28.064151527346656 0.3149473022031905
1.091875540432567 13.052648260462613 2117.9140107866288 29.344069046814447 0.31961800128185935
1.1183674484063633 13.058492302788931 1870.498910358945 30.68137582571674 0.324386389306698
1.1449927660748602 13.063949410964494 1653.7580647675209 32.07963206287711 0.32926161576577984
1.1717493506142247 13.06896921837616 1463.6726622974722 33.54060184256211 0.33424023677894626
1.1985998383995753 13.073430134476142 1296.8146482478955 35.06890722117195 0.33933636745238793
1.2255399024687883 13.077300772331759 1150.2470848310097 36.66667163446241 0.34454739054027517
1.2525292419155232 13.08047223882497 1021.2857817566336 38.338748675581606 0.34988655238747096
1.2795664997028444 13.082917125507374 907.7119185790293 40.087559743905786 0.3553515338482946
1.3066051165262518 13.084507909177264 807.7055969890281 41.91849554289347 0.3609564271547469
1.3336359948593024 13.08523718966694 719.3344141586475 43.83489382718547 0.3667023798754277
1.3606406250074954 13.085037405549157 641.3647623340389 45.841692440939234 0.3725985488581221
1.3875671575629358 13.083795880821427 572.4540033796503 47.944092594020766 0.378654178173793
1.4144190633928992 13.081514201003937 511.41432766610075 50.14669306346804 0.3848741367387203
1.441146288660531 13.078093251252955 457.40503521358016 52.45500122747333 0.391266909803546
1.4677302213697185 13.073489941442768 409.50232463268617 54.87527959002736 0.3978434158693115
1.4941359634439588 13.067638317535142 366.96222097621023 57.41370848901657 0.4046126999773341
1.5203471236263808 13.060507794817086 329.2310742623441 60.07690551829269 0.4115845159440566
1.5463265226563128 13.052043792617868 295.64782249943306 62.87196488178528 0.4187693846977663
1.572040990509055 13.04217849854744 265.7805876118067 65.80650051419612 0.4261786573747884
1.5974632306856609 13.030874087725527 239.20704672440755 68.8886933504625 0.43382458373224175
1.6225505793004864 13.018073455052221 215.50582342943378 72.12734317367241 0.44172038650264334
1.6473023636923119 13.003755439092812 194.33890230859322 75.53192552497913 0.4498803423912143
1.6716507617412297 12.987847643836048 175.45182866407396 79.11257777677542 0.458319551237037
1.6955901281327235 12.970323135147254 158.55961365851698 82.87904880027351 0.46704946695797206
1.71905415292821 12.951093762064424 143.468079192746 86.84426264132519 0.4760924889665023
1.7420607875131975 12.930225855120112 129.94978820483175 91.02002596117109 0.4854639200324146
1.7645461211245252 12.907611220767762 117.82381303890696 95.41991243571432 0.49518367894456594
1.7864727296296157 12.883194147567703 106.95511964390472 100.05807593800705 0.5052712596066887
1.8078141604258517 12.856968797816386 97.20560436367089 104.95076176853236 0.5157513234789484
1.8285390862017343 12.828889311831146 88.44382579243812 110.11429837347765 0.5266456866402823
1.848614732766889 12.798932378811346 80.56740116646012 115.56653555710868 0.5379786298122118
1.8680066485511255 12.767060558340754 73.47533889639314 121.32767667693285 0.5497795352151196
1.886684149283622 12.733248227661544 67.0930348953153 127.41900056032607 0.5620777602630871
1.904614273008001 12.697465860555138 61.336044079709986 133.86322599881862 0.574903679756174
1.921749284054576 12.65963834085557 56.149249040503875 140.6853416888984 0.5882912325441155
1.9380947689830579 12.619867510452188 51.456750621791066 147.91329164567648 0.6022797573846805
1.9535917930749542 12.578021264679515 47.22293560525154 155.57588820217694 0.6169062130182104
1.9682233947810075 12.534148026928136 43.39435680169872 163.7061478204432 0.6322161667663257
1.9819522341987297 12.488199649404486 39.92779513725293 172.3380135691028 0.6482519169044011
1.994750648776962 12.440158620828514 36.79009032483268 181.51082818276976 0.6650669692917792
2.006596933157049 12.39003099056498 33.94731450781365 191.26633604132104 0.6827150562078039
2.0174642335504576 12.337816617421938 31.36613735753426 201.65046921166916 0.7012552775500182
2.0273153355806866 12.283480702426116 29.026697613919143 212.71349693789634 0.7207515811688181
2.036141585507625 12.227058812025684 26.90254684275274 224.5099243835498 0.7412713275445398
2.043902716048018 12.168515048848842 24.971385179460267 237.10165125872683 0.7628943423788834
2.0505815129758234 12.107857790884154 23.21539335334212 250.55457272987854 0.7857003683952388
2.0561663463490363 12.045137020312831 21.61889565736145 264.94229678872875 0.8097795758506053
2.060639080776588 11.980360133105435 20.16547825830835 280.3464489882096 0.8352316869643597
2.0639712853987398 11.913527929705028 18.84353891282267 296.8560231955069 0.862161727529569
2.0661464305114774 11.844664842571737 17.638425393512993 314.57112405495616 0.8906898050108826
2.067161391147677 11.773828423951109 16.542510099221577 333.6015596100407 0.9209436986377338
