M[M_sun], R[km], Lambda[1], P_c[MeV/fm^3], rho_c[fm^-3]
0.24162668629717493 15.618656898711224 2160425.4255784233 3.5677272577965504 0.1711233750220791
0.253645250221947 15.277276623304425 1723061.3397537668 3.784849611233675 0.1738885470538503
0.26604287583800296 14.981209580967311 1382960.6324803955 4.011464563693904 0.17666742339716382
0.27881975928832925 14.72343627826387 1116345.753502343 4.24782727490264 0.17945866316868928
0.2919768991106034 14.49831108108114 905786.7288782111 4.49456334004858 0.18226884007971927
0.3055137381357089 14.301124183423909 738573.5233412354 4.751829871943106 0.18509368990912287
0.31943238154452464 14.127997113305383 605014.3865112732 5.020306750102409 0.18793977849906116
0.33373235182200733 13.975810374743723 497595.8695251946 5.300221294928918 0.19080379262167116
0.3484160160185797 13.841904169552157 410925.8363431793 5.5922984486445575 0.1936919543293455
0.3634818505918143 13.723839891005909 340601.3855580015 5.8967101611012 0.19659941270152595
0.37893629933323636 13.619888737541187 283230.7803200159 6.214318654820666 0.19953380911915375
0.39477186847871015 13.528334837003417 236355.9143803234 6.545377297958517 0.2024912496250364
0.4109994396863032 13.447774901314803 197812.19112123366 6.890596674066965 0.20547558332089344
0.4276088464653569 13.376970846389277 166033.77661458356 7.250678445854618 0.20848981930920457
0.44460797506579186 13.31482780614109 139754.08037438648 7.625875915926221 0.21152941294014038
0.46199059428990474 13.260480493636086 117939.03993112268 8.017149517324423 0.21460070188012698
0.4797602105060775 13.213066639124294 99779.22765963883 8.425199320964925 0.21770525011989017
0.4979199803473568 13.17193137980354 84608.69732044308 8.850458659598427 0.22084041556727343
0.5164627497894551 13.136316663863825 71913.56500029642 9.293816019794956 0.22400981929330835
0.5353829898460708 13.10578100292896 61253.46329856784 9.756149563506337 0.22721627895521945
0.554694288807015 13.079758483035864 52283.34548390869 10.238263746403502 0.23046107471159816
0.5743797677872908 13.057787568163445 44710.815170926 10.74063542026606 0.23374097590406043
0.5944399742801841 13.039473815535201 38312.21533089929 11.264514804519628 0.23706223312319924
0.6148801047575284 13.024473781626657 32887.97092635989 11.810835167670378 0.24042640012662084
0.6356885777097326 13.012413061639357 28279.950254072777 12.3805760691188 0.24383511085932874
0.6568624277522496 13.002989515866073 24359.30388355495 12.974411706290898 0.2472861465463245
0.6783974467027946 12.995961239326991 21017.849057472507 13.593698833054843 0.25078462533081136
0.7002900501829731 12.991053664804795 18163.544026639036 14.239621674329493 0.2543330240164737
0.7225280349163814 12.98800236351394 15720.940160775235 14.913370641233206 0.2579333286063873
0.7451202054166962 12.986644182159834 13627.021757452561 15.615954782009842 0.26158522567937675
0.7680441486470749 12.986768740861466 11829.779596313148 16.348682118921733 0.2652910248640647
0.7899280425158074 12.98721846934934 10362.207783921624 17.130224369548742 0.36966509010875637
0.8035471119397543 12.978328827389266 9496.211039138416 18.081656362160725 0.5739914874600438
0.8111474970635301 12.957008438268499 8952.62886466783 19.21768756113995 0.7555112535815164
0.8148586358109344 12.924263922269924 8574.587913703423 20.52433987784689 0.9265458501537508
0.8159531292697223 12.88133525663723 8287.813344507085 22.009223717878395 1.0830988829303296
