M[M_sun], R[km], Lambda[1], P_c[MeV/fm^3], rho_c[fm^-3]
0.24162668629717493 15.618656898711224 2160425.4255784233 3.5677272577965504 0.1711233750220791
0.2536479102374254 15.277164222604307 1723037.768340986 3.784881236943385 0.1738889412530651
0.26604644302856084 14.981115708292398 1382749.961026004 4.011531048463168 0.17666822682636374
0.27882679340468935 14.723264043566898 1116165.0745600353 4.2479308692659705 0.17945986470719053
0.29198371208358004 14.498210288797646 905709.5846074943 4.494706763695031 0.1822704371353094
0.3055239709134439 14.30096728236897 738440.5276498937 4.752017996267136 0.18509572201086305
0.31944413798582544 14.127894739087228 604903.0990233354 5.020540962232598 0.18794220854030944
0.33374626804000274 13.975706478003955 497533.29454441566 5.300507762785997 0.19080667687765582
0.3484330672566225 13.84175695298909 410838.9300858662 5.592637888862031 0.19369523850682632
0.3635011911809314 13.723697727481483 340508.6263006218 5.897110201757134 0.1966031699680241
0.3789601154753477 13.619754318564594 283154.2433982342 6.214784138983241 0.199538053774237
0.39479568216462435 13.528221617230452 236286.540003117 6.545907743723536 0.20249590091779848
0.4110285189634489 13.447607042832631 195256.39335063164 6.891202324389271 0.20548074129318947
0.427641511083597 13.376816646274749 165984.4221081769 7.251364986491174 0.2084954988839455
0.4446422516226778 13.314703866240603 139715.0803758522 7.626641450628311 0.21153550708860622
0.46202790050790044 13.260384075061268 116576.95798922096 8.018007402445205 0.21460733831510656
0.4798017731585915 13.2129606474669 99737.08118054463 8.426156249050601 0.21771244488133354
0.4979647149970697 13.171842230879296 84580.06558820508 8.85151110335752 0.2208480357097639
0.5165097025446399 13.13624874222699 71883.49101920913 9.294981015784513 0.22401802093770387
0.5354355424112438 13.105701126748455 61230.16714840129 9.757435014168099 0.22722507983087856
0.5547496264070703 13.079676003382481 52259.422475588035 10.239664278678738 0.23047031645513646
0.5744399795761597 13.057720861058941 44692.25168412738 10.742172401282206 0.2337508437982812
0.5945035993013742 13.039416426597771 38292.06586768222 11.266197599218591 0.23707274725493072
0.6149481948805606 13.02443860898015 32869.06228871336 11.812673721657958 0.2404375816024249
0.63576016897389 13.012383156104473 28265.16165262057 12.382580948671842 0.24384698189993032
0.6569382849336817 13.002978710608415 24346.504233045038 12.976573704391868 0.2472985036409006
0.6784784806020887 12.99593380163899 21007.734761597207 13.596048660236226 0.2507977085390009
0.7003754712150669 12.991029089042783 18153.367409261675 14.242171935757877 0.2543468593091882
0.722617904505309 12.987998741060814 15713.190962590783 14.916134752222128 0.2579479435031252
0.745213553981116 12.986645547138883 13618.74126467052 15.618920042705685 0.26160038212511877
0.7681432268296743 12.986763135950767 11821.79510972664 16.35188869871928 0.2653070088601175
0.7913975850999335 12.988146179802936 10277.044605711053 17.116613758512315 0.26907206103268355
0.8149808886732476 12.990696279615413 8945.662938352223 17.91455228828488 0.27289797520135667
0.8388719980551911 12.99416562606157 7797.7228947581225 18.747006319912572 0.276785257014437
0.8630610219389482 12.998450532979483 6805.854074268136 19.61544888347959 0.2807355273159223
0.8875502716550098 13.003406448250972 5947.679467902041 20.521907208882425 0.28475459537474523
0.9123167030662831 13.008898829066323 5204.439911845465 21.4681781041957 0.2888454798633068
0.9373468337759873 13.014805159358398 4559.102683409245 22.45566503742523 0.29300744401529943
0.9626381247860177 13.021013272737994 3999.1197780603843 23.486557926828343 0.2972455955928412
0.9881665018209855 13.027409726595733 3511.715913727616 24.563204217973045 0.3015654028372661
1.0139210035539374 13.033859318722648 3087.6121159810164 25.68745064409287 0.30596777612218684
1.039892948963555 13.040315537155713 2717.79890926672 26.86145408156343 0.31045541144969785
1.0660533786991646 13.046639993938035 2394.918433523078 28.088222460691465 0.31503635105247696
1.0738198540776338 13.040256363086183 2294.4968495842577 30.167782970273745 2.0989376178694137
