M[M_sun], R[km], Lambda[1], P_c[MeV/fm^3], rho_c[fm^-3]
0.24162668629717493 15.618656898711224 2160425.4255784233 3.5677272577965504 0.1711233750220791
0.25364503338601174 15.277268518402225 1723271.6533820268 3.78483927272143 0.17388841818928263
0.26604189156897096 14.981249818414629 1382892.2728839808 4.011442829851368 0.1766671607565032
0.2788179711949206 14.723484498847805 1116387.2954721197 4.247793410207026 0.17945827038925316
0.2919738837605658 14.498368095650033 905814.4749396715 4.494516455623487 0.18226831801076457
0.3055106424809509 14.301158270363192 738642.0572894723 4.751768375566671 0.18509302563088975
0.3194282696435306 14.12807574847283 605046.8866229532 5.020230188524603 0.18793898414314136
0.3337262343307498 13.975937637605815 497647.6277044802 5.3001276521677 0.19080284979444714
0.3484105095916765 13.841947231080693 410957.2362000797 5.592187490638242 0.19369088078011087
0.3634747998484612 13.723900345003539 340628.0387612609 5.896579394639709 0.1965981845152465
0.37892823016913985 13.619958043586646 283261.42365656997 6.214166497074291 0.19953242162371665
0.39476380621082907 13.528365783161469 236375.88226067636 6.5452039066483465 0.2024897292174864
0.4109902171915949 13.447796354881199 197834.66811616166 6.890398701382733 0.20547389730243848
0.4276008842384751 13.376989991887127 166053.3796439527 7.250454033603412 0.20848796280416226
0.4445967817618752 13.314859938243016 139770.66466954772 7.625625684122795 0.21152742093408658
0.46198023208054917 13.260532968417184 117960.02892886684 8.016869100669952 0.21459853263059753
0.47974680184113233 13.21311564785575 99791.51914487744 8.424886532284797 0.21770289838628618
0.4979062936764133 13.171924134383147 84620.53152804916 8.850114651997778 0.2208379248052616
0.516445954624932 13.136359876113822 71924.1194118954 9.293435225293726 0.22400713847627993
0.5353680196405785 13.105789146986618 61262.87971313268 9.755729399586142 0.22721340229061607
0.55467475288526 13.079771140995677 52292.16237329278 10.23780596940553 0.23045805396178196
0.5743602345611429 13.057806038102607 44718.181545370884 10.740133047042232 0.2337377505123477
0.5944193373479147 13.039492330910111 38318.96886280762 11.26396477467435 0.23705879652677242
0.6148583544370669 13.024476591884826 32892.09136242402 11.810234231077281 0.24042274542949424
0.6356648269802706 13.012412989292475 28283.667293330003 12.379920772849696 0.24383123080149444
0.6568376507293285 13.002997744871678 24363.013289754108 12.973705059623494 0.24728210764374772
0.6783713833204712 12.995974270054607 21021.42761246364 13.59293079968774 0.2507803491267918
0.7002623389472294 12.991056667325735 18166.51890708399 14.238788135140151 0.25432850202569063
0.722499202809595 12.987987967002093 15724.037472667962 14.91246721239376 0.2579285518375631
0.7450893717307298 12.986640734835738 13629.801320269267 15.614985614164326 0.2615802719362249
0.7680129288709518 12.98676015432084 11832.600832435903 16.34763408504971 0.2652858006780686
0.7912581331133377 12.988150014018675 10286.365986951403 17.112017597761938 0.2690497114593451
0.8148372935025872 12.990671196318303 8953.314473780452 17.9095918018582 0.2728744380479538
0.8387219020561377 12.994141976408951 7805.099027797275 18.741703512989254 0.2767608933603704
0.8629051111311642 12.998417589219438 6811.839154166407 19.609734784451412 0.2807098917572765
0.8873890487483131 13.003368433479062 5953.242499164737 20.515754304157085 0.2847276323922158
0.9121489351189828 13.008852328470352 5209.392207824119 21.461556995619578 0.28881713019377075
0.9371692534686691 13.01476484889422 4563.567114821223 22.448603311777063 0.2929781136272938
0.962454869524994 13.020968903712326 4002.9662896364407 23.47896693388305 0.2972147663149866
0.9879780392665107 13.027352005081992 3515.2440257730836 24.55504821195424 0.30153300289719126
1.0137229584515575 13.03380628455447 3073.9355647815732 25.67876120331927 0.3059342418967497
1.0396903408072662 13.040269290579955 2720.3062699224847 26.852124937274223 0.310420167622468
1.065844392270189 13.046592001554501 2397.2410121454927 28.07820992394235 0.3149993103252573
1.092178620066857 13.052723559509298 2114.759918904142 29.35903693783513 0.31967187649920187
1.1186792233352483 13.058555533255628 1867.6130462009983 30.697431897383872 0.3244430281399113
1.145312535344 13.064011611983304 1651.3609633953802 32.09672391489747 0.32932034168584207
1.1720782147064437 13.069017869785267 1461.4022729377878 33.558929942323005 0.33430200436484664
1.198936523846456 13.073483011619315 1294.852986350061 35.088558064363035 0.33940134746346523
1.2258842041842402 13.077349058718244 1148.5378420351883 36.68758819997296 0.3446148641427974
1.2528821192204227 13.080508299000611 1019.6823869174206 38.36111605747756 0.34995725749887646
1.2799269225575747 13.082942449425097 906.2897427447145 40.11143057231781 0.35542538221667286
1.3069716283484627 13.08452297093301 806.4057632647311 41.9439129415689 0.36103326780166173
1.334011889809156 13.085242881233544 718.2574838512187 43.862142738006106 0.3667833777304856
1.3610211927018703 13.085033441648077 640.3285197573028 45.87071577324895 0.3726829447659571
1.3879537441216359 13.083765563558934 571.5195606662828 47.975014302217986 0.3787421913370669
1.414804810762126 13.08145809611307 510.5811280357703 50.179852176927476 0.3849670522288435
1.4415371600682112 13.078014327385976 456.66509473726865 52.49034511193363 0.3913639508680648
1.4681330696426536 13.073411620914381 408.81204815913145 54.912964727352204 0.39794485748146585
1.4945437253884044 13.067542005158808 366.34451980407033 57.45390403547359 0.40471883836577954
1.520756050040209 13.060390736628225 328.6951601929058 60.11979443924474 0.4116956703382439
1.546740064518809 13.05189493512064 295.1408860043256 62.91774519959512 0.418885899246289
1.5724572327179789 13.042008436198463 265.3300477027381 65.85538668195053 0.4263009032552529
1.597871762416465 13.030666205427531 238.79517932155446 68.94091776565524 0.43395296147339596
1.6229693506047933 13.017846496377164 215.12824610810816 72.18315784772706 0.44185532854198045
1.6477218259179847 13.003496164058589 193.98507417896099 75.59160392645668 0.4500223158940519
1.6720702099112055 12.987554005088464 175.1428947582051 79.17610529269463 0.4584677602048745
1.6960067385519924 12.96999348841719 158.2827560206584 82.94704516051367 0.4672057223957664
1.7194855802076245 12.95077679169838 143.19943507175205 86.91707782687664 0.47625737953602343
1.7424671284599338 12.929822048980418 129.7150305970599 91.09769028254827 0.48563669456026975
1.7649501440904432 12.907167533825607 117.61367250707775 95.50317395798652 0.49536637331582567
1.7868755107100578 12.882727741151538 106.76189528190645 100.14700715616512 0.5054631693173022
1.8082128799008932 12.856454725077354 97.0366839981221 105.04582377657108 0.5159531878522764
1.8289253207844738 12.828321151265634 88.28599656067438 110.21617596746962 0.5268589822684847
1.8489986415720219 12.798329671852425 80.42071598969606 115.67582947346003 0.5382043933289626
1.8683717501486523 12.766382191232346 73.34643317045006 121.44476760633808 0.55001788943835
1.8870477284100238 12.732551743352575 66.97203127028669 127.54443156712519 0.5623293204724346
1.9049693175733229 12.696722917921637 61.22321139396169 133.99748338975232 0.5751687455324269
1.9221080218694353 12.658892531293073 56.04233977790778 140.8295434503308 0.5885721924125442
1.938418936221833 12.618991120549884 51.36352574003204 148.06830119606298 0.6025779259670551
1.9539122541231995 12.577131863265581 47.14032801877352 155.742143395466 0.6172212832518726
1.968525369050695 12.53319231331541 43.31956445053731 163.8848656559494 0.6325503311964142
1.9822361443437164 12.487177874292595 39.858176826798754 172.53041809398468 0.64860717082252
1.9950202713946084 12.439085307293524 36.72644828173744 181.71782643633736 0.6654440194808459
2.006852798405368 12.388911351680633 33.88459342060329 191.48927202799004 0.6831158309047538
2.017695480175089 12.336621458125103 31.311516901891824 201.89082551140652 0.7016818862728581
2.0275278062808173 12.282226705506638 28.97637037045846 212.97230478794287 0.7212043500184927
2.0363316833592724 12.225741054961478 26.855704823331095 224.78957885008776 0.7417547169475793
2.044064939763595 12.167135488480994 24.92467322606192 237.4035145512683 0.7634090470223011
2.0507243462607643 12.106408582280721 23.175972732787372 250.88120566895682 0.7862505659637411
2.056291516388221 12.04364628032111 21.583463993414085 265.2959823712573 0.8103680544161134
2.0607319399247865 11.978780839325475 20.13283561084462 280.72917423911855 0.8358597192603927
2.0640303956435435 11.911870124808823 18.81218568032363 297.27106602183443 0.8628341712760559
2.066185966759854 11.842951982095036 17.610315860811752 315.02198514024536 0.89141154493088
2.0671713134315497 11.772046432800348 16.51577086537022 334.09121210752426 0.9217170656443436
