M[M_sun], R[km], Lambda[1], P_c[MeV/fm^3], rho_c[fm^-3]
0.24162668629717493 15.618656898711224 2160425.4255784233 3.5677272577965504 0.1711233750220791
0.2536443792180853 15.277266964092288 1723133.3281150223 3.7848265334474025 0.1738882594003775
0.2660407751461925 14.981244684856671 1382904.9832231344 4.011416049191694 0.1766668371280359
0.27881610437903825 14.723491284994422 1116443.442669139 4.2477516819623755 0.17945778640449833
0.29197085338684037 14.498382110016696 888647.2853631991 4.494458684639306 0.18226767471744776
0.3055073540499607 14.301220557930614 738651.6116177888 4.7516926000503075 0.1850922071106933
0.319423591477547 14.128108527901942 605084.4315377547 5.020135850113515 0.18793800534571503
0.33372311183257813 13.975886974071253 497652.8436103954 5.300012266957546 0.19080168805683956
0.34840364013883646 13.842005379845878 410993.06236041966 5.592050770355151 0.19368955797376153
0.3634667976711938 13.723995146699737 340624.7266516462 5.896418267399708 0.19659667117411025
0.37891933869301986 13.619997270417455 283292.6399526729 6.213979012747557 0.1995307119924027
0.39475160404647236 13.528492039791823 236393.363599088 6.544990259706913 0.2024878558224329
0.41097881519283136 13.447872592072116 197859.16657858033 6.890154767032521 0.205471819855149
0.4275860503160343 13.377055806950937 166077.54968396356 7.250177522484694 0.20848567529854084
0.4445832681034111 13.314925839155837 139796.17573261182 7.625317360313328 0.21152496647831168
0.4619648872182365 13.260554505057852 117975.86195980877 8.016523585805647 0.21459585979378534
0.47973013461135067 13.213146310780187 98736.46833691101 8.424501131724385 0.21770000071285198
0.49788713242830274 13.171975570092782 84637.02578656144 8.84969078663267 0.2208348558389145
0.5164262644165722 13.13639364178205 71935.35628288006 9.292966035058638 0.2240038353477743
0.5353461179343473 13.105828998535863 61273.48600596593 9.755211702808769 0.22720985786444528
0.5546531839051164 13.07980825548157 52302.844656720794 10.237237452888806 0.23045427444526762
0.574336162735725 13.057829876072864 44324.48982416736 10.739514061879124 0.23373377643586293
0.5943942682738818 13.039509719240284 38323.51237320243 11.263287073187985 0.23705456223562174
0.6148308173993156 13.02449730601224 32899.3749982134 11.809493809166108 0.2404182424289076
0.635636725368003 13.012423875402611 28290.219014001275 12.379113376582392 0.24382645014828455
0.6568071202899345 13.003017899892441 24368.73560220453 12.972834396728734 0.24727713129167342
0.6783395735625796 12.995977861237568 21026.230763556865 13.591984505338097 0.2507750804133804
0.7002287972507876 12.9910623216248 18171.32996533532 14.23776113472816 0.25432293049833277
0.7224588709681882 12.988016353547811 15727.714903046728 14.911354105228371 0.25792266642039074
0.7450513255790259 12.986640706500477 13632.77041754657 15.61379151407897 0.2615741684886665
0.7679729456410583 12.986761420624122 11835.170661203525 16.346342819736055 0.2652793640443406
0.7912178728943716 12.988146885299567 10288.074525379276 17.11062268567086 0.269042928474203
0.814793936569763 12.99066774567486 8955.591358530013 17.908086331682025 0.2728672946996142
0.8386763275933886 12.994133251996614 7806.719675415792 18.740094162448905 0.27675349922733783
0.8628572563251996 12.998414481203318 6813.499774099493 19.60800062574487 0.2807021116808369
0.8873388961651577 13.003363862249207 5954.711659662213 20.513886989566057 0.2847194495301463
0.9120958501884239 13.008849041000849 5210.601147350789 21.459547605740955 0.2888085265682036
0.9371156217593907 13.014738077698073 4564.775871773844 22.446460217584036 0.2929692124341088
0.9624003150075991 13.02095636894988 4004.144888805417 23.476663237887298 0.2972054103210531
0.987921680608927 13.027334151920934 3516.1115536517036 24.552573069218074 0.3015231703301059
1.0136636992614714 13.033800177436069 3091.7448105127232 25.676124195564327 0.3059240651759644
1.0396288468920742 13.040247381140116 2721.149273221469 26.849293822565233 0.31040947218089493
1.0657823172888938 13.046578203744675 2398.001787776172 28.075171447885843 0.31498806968109366
1.0921138837592526 13.052699291369366 2115.60533606371 29.35580187030953 0.3196602322424513
1.1186116420096663 13.058543610386526 1868.4509532228515 30.693961609999224 0.324430786476293
1.1452426782318343 13.063999155914642 1651.900483214123 32.093029735053825 0.3293076488477614
1.172006716729297 13.069013851203296 1461.8782320986868 33.554968532018314 0.33428865400368135
1.1988636599455813 13.073472024069448 1295.2648486192527 35.084310723688404 0.33938730265931083
1.225809751535087 13.077338368055486 1148.9004987431078 36.683067255691356 0.34460028027637213
1.2528058073046673 13.080493854709736 1020.0231099644571 38.35630315997653 0.34994210214604154
1.2798494356465884 13.082939831934723 906.572088242304 40.10627101032903 0.35540942025557787
1.306893050939105 13.084523833451541 806.6628894049538 41.93841905800816 0.36101665895933793
1.3339262905275253 13.085246056424893 718.4455900221236 43.85625292848756 0.36676587017061124
1.360939425094462 13.085032590606234 640.5483505317784 45.86444238037828 0.3726647025916652
1.3878703622086324 13.083772019501371 571.7427029347889 47.96833052668542 0.3787231671543315
1.4147280148576893 13.081480916940492 510.76349662950446 50.17268471797621 0.3849469682189917
1.4414513714389232 13.078027530172385 456.82183813886337 52.48270534918639 0.39134297494193265
1.4680456508745978 13.073428983532493 408.9595057188292 54.90481882777763 0.39792293018481917
1.494455325951858 13.067564081335181 366.4799870331697 57.44521542527376 0.4046958956478487
1.5206673289494306 13.060416007395126 328.7907041641931 60.11052355844243 0.411671643174205
1.5466512125348328 13.051926466756862 295.2493729967465 62.90784923212999 0.41886071322232593
1.5723677219341048 13.042044822802128 265.4275550975534 65.84481925855802 0.4262744781121869
1.5977924319808607 13.030715755283577 238.89119116162814 68.92962863646929 0.43392521060439837
1.622878361367039 13.017892132846155 215.20045983071748 72.17109252116907 0.44182615843934026
1.647630611195687 13.003554399924534 194.07200910423322 75.5787032705506 0.4499916255393751
1.6719793509113063 12.987621047959609 175.20273148952492 79.16237246944269 0.4584357216853414
1.6959166625569677 12.97006616702327 158.34503510983984 82.93234616217231 0.4671719441403884
1.7193969915452585 12.950852990962044 143.25787279016726 86.90133697415664 0.4762217342492595
1.7423799966566587 12.929915906000197 129.76130159138344 91.08090102391533 0.48559934463971544
1.764861773037049 12.907262422599953 117.66347344011747 95.48517452795633 0.49532687854726204
1.786788987660873 12.88282627286357 106.8099665915407 100.12778188123875 0.505421682008076
1.8081265062237784 12.856565530268934 97.07379006695452 105.02527294767046 0.5159095481240297
1.8288362786037389 12.82843004346546 88.31768393134467 110.19419082517273 0.5268130171841604
1.8489159896593563 12.798460921008395 80.45219338796728 115.6522014469903 0.5381555859796813
1.86829157490682 12.76652237727446 73.37533742714494 121.41945370057084 0.5499663596027194
1.8869706141161038 12.732699799493087 66.99912416402108 127.51738589476327 0.5622751907005095
1.9048941846132583 12.696882263062987 61.249923477164316 133.96845767951885 0.575111439768023
1.9220346171185536 12.659064802129672 56.06616955536383 140.79836746986155 0.588511449746964
1.9383478241670342 12.619175004314867 51.38476445730262 148.03478821406935 0.6025134620788154
1.9538436506603882 12.57732961007424 47.15742006741972 155.70619872514186 0.6171531645034961
1.9684595223371562 12.533396439151097 43.33247226642677 163.8462714347869 0.6324782368705424
1.9821741009357123 12.48739516888068 39.874117700379465 172.48881889202508 0.6485303624444642
1.9949635364320955 12.439319080365172 36.74035935021353 181.67307142927214 0.6653624976149133
2.006799258095231 12.389156610036034 33.89782655693436 191.44107052742905 0.6830291784891053
2.0176453540006154 12.336880482036918 31.32382152647323 201.8388568506249 0.7015896470262564
2.027480796187602 12.282494156955787 28.98863033238485 212.91634593259897 0.7211064533489805
2.036290423223823 12.226027203555322 26.86616518686851 224.72911174067858 0.7416501981094479
2.044035232170115 12.167429602487454 24.938991479270577 237.33824455563183 0.7632977556839369
2.0506938643200407 12.106721379129658 23.184716356737805 250.8106611327018 0.7861318663789666
2.0562658148380653 12.043974008011624 21.591011168087636 265.2195416781016 0.8102409274541102
2.060712071235165 11.979122911914716 20.139286699679264 280.6464527864111 0.835724036824703
2.0640163521248667 11.91222595417919 18.819174753200492 297.18131858600805 0.8626887643489716
2.066177159012221 11.843322651756083 17.61586489762566 314.92449088793734 0.8912554758085786
2.0671687817111466 11.772429459104695 16.521236151134058 333.98532788434 0.9215498299717961
