M[M_sun], R[km], Lambda[1], P_c[MeV/fm^3], rho_c[fm^-3]
0.24162668629717493 15.618656898711224 2160425.4255784233 3.5677272577965504 0.1711233750220791
0.2536435157468928 15.277297560210057 1723179.8550537247 3.7848106262820167 0.17388806112523483
0.26603816535780545 14.98132546704176 1383089.3261067772 4.011382609131132 0.176666433024639
0.2788131075998999 14.723561731984777 1116544.3716582134 4.247699577652439 0.17945718207302258
0.2919663920277515 14.498480955827292 906004.9268233855 4.494386548797653 0.1822668714681091
0.30550165090736164 14.301314454557044 738693.2840792827 4.7515979833026245 0.18509118506923952
0.31941573096259157 14.128209515737797 605154.2489635667 5.020018055464133 0.18793678318076315
0.33371520522317716 13.975969252799075 497706.5671992173 5.299868193167205 0.19080023747283248
0.34839508259265034 13.84207661811461 411035.86004414025 5.591880057682322 0.19368790628169047
0.363457222443945 13.724035948679713 340674.2366389844 5.896217080517414 0.19659478158433605
0.3789094458026331 13.620049578012733 283336.33258127247 6.213744916983369 0.19952857732090293
0.3947409323474204 13.528502171963817 236428.4939353675 6.544723498087303 0.20248551668340622
0.41096460727273476 13.447918428919253 197881.64051482247 6.889850189711085 0.20546922594686876
0.4275705035526526 13.377135569217188 166101.0851307102 7.2498322713215275 0.20848281912414826
0.4445650751095186 13.314994498585804 139820.85941865895 7.624932389523685 0.2115219018632907
0.4619462440272895 13.260601899468792 117995.69289149714 8.016092180548572 0.2145925225253457
0.4797095010768759 13.213195122742608 99837.82321865138 8.424019927943478 0.2176963827331301
0.4978658787577506 13.172011768264076 84652.94734763146 8.849161558581418 0.22083102400170168
0.5164030167946113 13.136433139418818 71948.35268016296 9.292380218142895 0.22399971116016604
0.5353196802730947 13.105870904543014 61284.800958786844 9.754565325012738 0.22720543241990596
0.5546251283670185 13.079844797463767 52308.106570675714 10.23652630083925 0.2304495384500389
0.5743059372036677 13.05787467476774 44737.455449387584 10.738741225520018 0.23372881458704273
0.5943615920415513 13.039539178816726 38334.96841808105 11.262440930136114 0.2370492755185216
0.6147970880611684 13.02452375153927 32908.41967997787 11.808569360783846 0.24041262024033538
0.6355965583111505 13.012443142263592 28298.53301135747 12.378105312378635 0.24382048132533274
0.6567676427315787 13.003030512751971 24374.575765387046 12.971747345895714 0.24727091815487803
0.6782981922044349 12.995988263453823 21031.787215084794 13.590803031460071 0.25076850228336334
0.7001856018669494 12.991070087305092 18176.48441301473 14.236478902898309 0.2543159743280765
0.7224179235920649 12.988003235931064 15733.454339708664 14.909964373508732 0.25791531838492565
0.7450041209724312 12.98665416964323 13540.713699822967 15.612300666952667 0.26156654826707476
0.7679226492653394 12.986751625755861 11837.869922782598 16.344730667968406 0.2652713278721205
0.7911662297677879 12.98812982737254 10291.36367282807 17.10888113815878 0.26903445991838926
0.8147390611355251 12.990662174966555 8958.454848440275 17.906206760890175 0.2728583762706026
0.8386193273119378 12.994123084187784 7809.135914539616 18.73808490502529 0.276744267729094
0.8627982445287856 12.998401200676922 6816.197723905103 19.605835556430698 0.280692398380262
0.8872721430927905 13.003340780552666 5956.873651117172 20.5115556878842 0.28470923340470233
0.9120305192102205 13.008836824554846 5212.464952084169 21.45703893764264 0.2887977851778843
0.9370497273281108 13.014724374769894 4566.52996620628 22.44378463326156 0.2929580995800799
0.9623224729789993 13.020942407224704 4005.360656246776 23.473787160678917 0.2971937297169441
0.9878498297506211 13.027318724527367 3517.4711343360173 24.549482961658093 0.30151089479971305
1.0135887948888336 13.033784377868903 3092.6441222532344 25.672832019030245 0.30591136003268193
1.0395514315729495 13.04023008469067 2722.2068879527533 26.84575932961316 0.3103961195029766
1.065701332493363 13.046554216985852 2398.9829657535424 28.071378093666027 0.3149740364143577
1.0920306887160305 13.052688563605999 2116.249466043167 29.351763099113345 0.3196456951459632
1.118527262081783 13.058522934082568 1869.079484079853 30.68962920318418 0.3244155036305199
1.1451563544271097 13.063980405564326 1652.5443410899054 32.08841783265239 0.3292918028053642
1.1719182585871726 13.068996484388093 1462.5607938468347 33.55002303726537 0.3342719871764621
1.1987723559710597 13.07345358216786 1295.8104279439667 35.079008295039706 0.3393697689652613
1.2257165056176993 13.077321927902602 1149.3973894124183 36.67742328031749 0.34458207368548466
1.2527109591960885 13.08048475144098 1016.0093623099037 38.35027456695974 0.3499230638846303
1.2797503633089569 13.082928626143282 906.9719327015961 40.099829840932266 0.3553894934293199
1.306794180368609 13.08452003214039 807.004140118946 41.9315605527915 0.360995924659009
1.3338290474829306 13.085235746851607 718.7502561579454 43.84890019294242 0.3667440140380163
1.3608359623395432 13.085037592198162 640.7818648933096 45.85661082082553 0.3726419294803227
1.387765668033584 13.083781888857473 571.9704258224466 47.959986692566126 0.3786994179089797
1.4146211084043387 13.081493422896258 510.9787693753499 50.16373711744922 0.38492189605626914
1.441343760731705 13.07804258524508 457.0204249951759 52.47316818620068 0.3913167894656401
1.4679367692380874 13.073449720892606 409.14333325472234 54.894649873290426 0.3978955571881862
1.4943462988696468 13.067587812869638 366.65237627307187 57.43436902965662 0.4046672551875809
1.5205574423060144 13.060447378829684 328.9449851956176 60.09895034522919 0.41164164909939593
1.5465392847282384 13.051967570132414 295.38404209777644 62.895495761206064 0.4188292726566801
1.5722554342370147 13.042093644473253 265.55269168764755 65.83162765538911 0.4262414908845477
1.5976787589307402 13.03077077759465 238.99765792109227 68.91553618355196 0.4338905686219813
1.6227662720370184 13.017957220799898 215.30461837907637 72.15603120741639 0.4417897449974039
1.6475181042505422 13.003623162610696 194.16183232813097 75.56259929379723 0.44995331456031595
1.6718671873046163 12.98769474026353 175.29715547444144 79.14522977442402 0.45839572797398803
1.695804472460961 12.970155457016164 158.41969033713642 82.9139974978293 0.46712977896316815
1.719269064252182 12.950916654627173 143.33229892456131 86.88168788812277 0.4761772387369271
1.7422715384652239 12.930018526114688 129.81758926974814 91.05994333734273 0.48555272150133855
1.7647519747589073 12.907378164832942 117.71662914894131 95.462706351664 0.49527757835157665
1.7866797021044372 12.882952724408229 106.85595328806566 100.10378365166183 0.5053698948697828
1.808019071177144 12.856705661167073 97.118929385066 104.99962022404888 0.515855074511649
1.8287310969504766 12.828581356861202 88.36071770867375 110.1667478728751 0.5267556412709444
1.8488129328813434 12.798624395942687 80.49328675840992 115.62270797201779 0.5380946626378038
1.8681998244935445 12.766725372984803 73.40710696216907 121.38785604222232 0.5499020383495719
1.8868724097135392 12.732888065323849 67.03203226938597 127.48352463243943 0.5622072595609721
1.9047973065248307 12.697083348844066 61.27943585446601 133.93222727589549 0.57503990970183
1.9219419741340171 12.659280548405045 56.092351771187914 140.75945333339553 0.58843563021083
1.9382577386372255 12.619402846340003 51.41041635776467 147.99295731375085 0.6024329982608357
1.953758256889413 12.577573995860641 47.17880477182181 155.6613328907271 0.6170681392561468
1.9683777716546735 12.533657045633365 43.35358115275011 163.79809878731567 0.6323882499647235
1.982097608623602 12.487671417604826 39.89386217241585 172.43689589233136 0.648434492302673
1.9948905972562319 12.439608998889147 36.75625752972102 181.61720985611333 0.66526074498484
2.0067239832011743 12.389445144152466 33.91610187915813 191.38090763287417 0.6829210229320186
2.0175827469371774 12.337203113281618 31.338815649710416 201.77399248201078 0.7014745191703087
2.027424010945311 12.282831565031541 29.000866188741682 212.84650176149592 0.7209842651502797
2.036239251907233 12.22638077120698 26.879026894682976 224.65364131682034 0.7415197456851129
2.0439900029278197 12.16780200221001 24.95107313974765 237.25678021454706 0.7631588514989455
2.0506551346226685 12.107112845478865 23.19543996485066 250.7225706590215 0.7859835749297065
2.056227499299315 12.044360859537681 21.600184394586 265.12407823691245 0.8100820707416625
2.0606868956036744 11.979549268757584 20.14876705648478 280.54320985334493 0.8355546943848923
2.0639985083660957 11.912667944187099 18.827037608251125 297.069307765078 0.8625072867488411
2.0661666773883383 11.843784447946682 17.624088712158997 314.80281275793226 0.8910606930546866
2.067166914969712 11.772907855317143 16.528487055672088 333.853179938889 0.9213411128478597
