M[M_sun], R[km], Lambda[1], P_c[MeV/fm^3], rho_c[fm^-3]
0.24162668629717493 15.618656898711224 2160425.4255784233 3.5677272577965504 0.1711233750220791
0.2536446868755591 15.277292387740044 1723159.5402937431 3.7848429787445257 0.17388846438307268
0.2660421618532961 14.98123248170305 1382894.2656910918 4.011450620723056 0.1766672549045897
0.27881922731454867 14.723462280896605 1116394.6087153659 4.247805549578199 0.1794584111876651
0.2919745697315956 14.498333938005926 905770.4246176082 4.494533262116547 0.18226850515496537
0.3055117987531205 14.301164644704011 738580.9853272053 4.751790419927783 0.18509326375206206
0.31942953499740484 14.128054580925767 605031.7146100969 5.0202576332176525 0.18793926889242443
0.3337307367402875 13.97581636140382 497614.98690027517 5.300161219838824 0.19080318776519653
0.3484124939415037 13.841930512875148 410943.1873100717 5.5922272651792575 0.19369126560973682
0.3634776365276632 13.723861285803377 340618.2507158863 5.89662626976192 0.19659862477631412
0.37893187422677405 13.619918053090528 283259.0565044159 6.214221040149561 0.19953291899088899
0.3947668977649674 13.52837624877718 236366.4132915886 6.545266061128263 0.20249027422830868
0.4109935019000384 13.447781223965169 197820.9570730193 6.890469667313361 0.20547450167808343
0.42760355881192263 13.376995291435696 166044.4577032499 7.250534477059021 0.20848862829225462
0.44460168885747714 13.314841492368135 139772.3353777844 7.625715382840916 0.2115281349935589
0.461982267333778 13.260491573614267 117948.9370902726 8.016969619417168 0.21459931022437315
0.4797514153408596 13.213092373492527 99788.82405971679 8.424998655056761 0.2177037413927866
0.49791140294543007 13.171915981372955 84621.02206259881 8.850237965442066 0.22083881764728602
0.5164523565429038 13.136341107740327 71921.79773042961 9.293571725277488 0.2240080994446754
0.5353730625951015 13.105790412374908 61259.264989738265 9.755880011813213 0.2272144334616463
0.5546806327363057 13.079790154638475 52286.947215617365 10.237970064291241 0.23045913678070482
0.5743667888526355 13.057833973264879 44715.867892496266 10.740313127717233 0.23373890668606323
0.5944263326677457 13.039491803596489 38316.93404460429 11.264161938133764 0.23706002840763477
0.6148662961739355 13.024473606115773 32891.1814619265 11.810449642323443 0.24042405548927662
0.6356734073718526 13.012429056662736 28282.591890713396 12.38015566957743 0.2438326216424494
0.6568465347472795 13.002994172361433 24361.593619152452 12.973958363133052 0.24728355542273636
0.6783812763495805 12.995972263363207 21020.399435105166 13.59320610749733 0.2507818819669162
0.7002710875946188 12.991053413531096 18165.80383651507 14.239086923735439 0.2543301229684024
0.72250919999836 12.987995718929545 15724.234162765839 14.912791053141222 0.25793026410566755
0.7451008480342722 12.986649789517013 13628.927988073023 15.615333019246618 0.2615820476405627
0.7680237375985456 12.98675870071793 11831.387796524941 16.348009759828656 0.2652876733226192
0.7912723426942112 12.988144463800591 10285.94872164161 17.112423428102908 0.2690516848748675
0.8148482661074649 12.990679705382197 8952.277856006747 17.910029798675037 0.2728765163115314
0.8387339503867245 12.994138976164768 7803.910912115922 18.74217173342668 0.2767630445910166
0.8629171943019284 12.998429677361472 6811.023142807463 19.61023931757797 0.280712155279223
0.8874034027832327 13.003368086510546 5952.720969447072 20.51629757884619 0.2847300131061396
0.912162137115088 13.008872395766998 5208.756902799312 21.462141607091965 0.28881963333079963
0.9371852476759914 13.01475861533725 4563.097738427247 22.44922682448493 0.29298070334410803
0.9624727548871734 13.020970477240393 4002.5800207655557 23.479637173926434 0.2972174883589505
0.9879960278419965 13.027356561331596 3514.8395742288158 24.555768334843528 0.30153586360357204
1.0137409070664714 13.033812005459064 3090.673400380832 25.67952842119795 0.3059372027383014
1.0397085649165385 13.040274721546426 2720.1074504135286 26.852948631370573 0.3104232793904418
1.0658621668594677 13.046601449106772 2397.007688054085 28.079093950874395 0.3150025807252833
1.092207852161551 13.052724155427386 2113.3190665426796 29.359978164001667 0.3196752643354856
1.118699509801499 13.058560983062353 1867.44526398618 30.698441562369997 0.32444658979857455
1.1453320366101525 13.064017242207028 1651.195225661721 32.097798722855494 0.32932403462012155
1.1720983610230442 13.06902593320379 1461.2747512661 33.56008250327862 0.3343058886141011
1.1989572371794697 13.073481926960481 1294.7069539738397 35.08979381950332 0.33940543377070015
1.2259061742438466 13.077348602194354 1148.431355876307 36.68890356262367 0.34461910729909484
1.2529046347562582 13.080511319969917 1019.6149556068029 38.36251636686899 0.34996166693890723
1.279949024000434 13.082944248605163 906.2198474883711 40.112931748005806 0.3554300263527411
1.3070018007612676 13.084546831686628 806.3290133606736 41.94551139212914 0.3610381001598696
1.3340356934285793 13.085240524577932 718.140043531223 43.86385638886379 0.36678847158706956
1.3610453162193767 13.085033141840153 640.2420917098237 45.87254103303635 0.372688252373476
1.3879848084826516 13.083782010548727 571.4310225271979 47.97695896894353 0.3787477264863198
1.4148300621318575 13.08145755046246 510.5555179309197 50.18193757966063 0.3849728957571179
1.4415627130200162 13.078011424881055 456.617936632205 52.49256793946174 0.39137005391963553
1.4681582663381556 13.073407586844148 408.76152903318666 54.91533482446434 0.397951237356639
1.494568664166004 13.067535120499235 366.3135483695102 57.45643204451562 0.404725513702461
1.520781698751165 13.060380047290971 328.65470681098185 60.12249187153863 0.41170266122180615
1.5467660563343946 13.051885681485441 295.10903327216187 62.92062451398502 0.4188932273303269
1.5724835422036094 13.041996943183621 265.2971695336265 65.85846137127075 0.42630859189439907
1.597897574224627 13.030654809257953 238.76799325668983 68.94420245201007 0.43396103586950124
1.6230054356469708 13.017841074203806 215.09088734347728 72.18666838758168 0.4418638159051189
1.6477481796976443 13.003479480948876 193.96407606550153 75.59535752666477 0.4500312456199929
1.672096175101119 12.987536366126811 175.1292767037832 79.18010103291081 0.45847708222108463
1.6960327192563776 12.969975586230287 158.2606788348567 82.95132203613962 0.46721555064349857
1.7195127931355172 12.950752726131721 143.18909023667274 86.92165786019724 0.47626775105807534
1.7424943914765259 12.929805655017054 129.6969519569338 91.10257537974098 0.48564756210338395
1.764975765932013 12.907141131704533 117.59809179390533 95.50841119251321 0.49537786497779485
1.7868878905367775 12.882662238423686 106.75802756369026 100.152601088655 0.5054752407809294
1.8082378275445563 12.856422262623305 97.02526600676711 105.05180342215527 0.5159658856422082
1.8289422319515234 12.828269627980891 88.2752351276548 110.2225729750849 0.5268723567097546
1.849025425955748 12.798290676679999 80.4149590579802 115.68270453814614 0.5382185948402017
1.8683947736662396 12.766340574048794 73.33658848299933 121.45213323943356 0.550032883168129
1.887070462936907 12.732508725988485 66.9635859167815 127.55230112127059 0.5623450707619945
1.9049918223281563 12.696678774988223 61.21819406314241 134.00592911387594 0.575185420014221
1.9221300525007614 12.658842327098558 56.03788310084829 140.83861488342959 0.5885898670139124
1.9384402635807187 12.618935167496092 51.359824398262845 148.07805267879834 0.602596683429263
1.9539323622078473 12.577076323796899 47.13459337754098 155.7526024818373 0.6172411042675156
1.9685439415751589 12.533132765991935 43.31455313566472 163.8960957464073 0.6325713090987182
1.9822547378875 12.487113393075493 39.85451173556322 172.5425226247329 0.6486295205150645
1.99503734856754 12.439015204391941 36.72311387976142 181.7308492987114 0.6654677408052324
2.006870184441421 12.38883779090383 33.882946755671895 191.5032978173659 0.6831410452345289
2.0177111090061324 12.336545954556314 31.308539354870526 201.90594754804906 0.7017087263962327
2.02754130406266 12.282148581786808 28.974204717595878 212.9885879779897 0.7212328364852874
2.036343771606025 12.225658717327457 26.85374678160109 224.80717396220328 0.7417851305177512
2.0440813699715443 12.16704586627237 24.927311731939163 237.42250732918748 0.7634414314533595
2.0467242871979487 12.117927770038323 23.716404740538945 253.3301709417392 2.319596490803406
