M[M_sun], R[km], Lambda[1], P_c[MeV/fm^3], rho_c[fm^-3]
0.24162668629717493 15.618656898711224 2160425.4255784233 3.5677272577965504 0.1711233750220791
0.253644230540983 15.277267407925251 1723222.3559090025 3.784823159366932 0.17388821734409216
0.26604059855224277 14.981237498375819 1382987.8924798325 4.011408956179355 0.1766667514131678
0.2788163491394891 14.72349648280091 1116393.1776704602 4.247740630028089 0.1794576582187155
0.2919703622439478 14.498393879379273 905833.9073880225 4.494443383748747 0.18226750433848024
0.3055054155840954 14.301236772163676 738647.1757847066 4.751672530640761 0.18509199032276713
0.31942193223307946 14.128143931829436 605099.8451283128 5.02011086432473 0.18793774610851277
0.3337203012172452 13.97596219264462 497648.69535283186 5.299981706951775 0.19080138036828967
0.348401826233531 13.842020684070341 411002.59835963836 5.592014559807172 0.19368920762674866
0.3634647715782369 13.72397685357236 340650.90331134544 5.896375592754088 0.19659627036480767
0.3789179098801135 13.620000848010015 283301.83838421 6.213929357547132 0.19953025919676354
0.39475066422422594 13.528452955627387 236408.3524878061 6.544933675482143 0.20248735965522321
0.4109761597858984 13.447877157981788 197862.96458297828 6.8900901613839824 0.20547126964633536
0.42758409382186524 13.377046385608827 166073.01594248676 7.250104289122202 0.20848506945770104
0.44457904986762753 13.314939275744468 139799.49265221972 7.625235701623782 0.21152431642263653
0.46196084127711334 13.260564724211811 117980.79953176221 8.016432077409428 0.21459515190235923
0.47972636288090836 13.213140809712566 98736.16796225002 8.424399060007367 0.21769923327623364
0.4978828775139388 13.171980165551814 84641.29899761062 8.849578527930536 0.22083404303794657
0.5164211166360644 13.136404896411213 71935.75261471313 9.292841772601726 0.2240029605323308
0.5353407652585044 13.105835811507626 61275.33283873406 9.75507459401129 0.22720891914504185
0.5546463460233687 13.079805489468196 52297.563201551304 10.237086603963553 0.23045326985027179
0.5743290648569945 13.057839102189199 44728.72883544399 10.739350128255023 0.23373272393121594
0.594386658445236 13.039520050407507 38328.25757149827 11.263107589435478 0.23705344081788807
0.6148234615818505 13.02450273752209 32901.75599417122 11.809297714912075 0.24041704984866705
0.6356287020308684 13.012450923876534 28291.33038646583 12.378899545296768 0.24382518403737546
0.6567987573661164 13.003013693015802 24370.251216505407 12.97260381036315 0.2472758133545641
0.6783305008090483 12.99597732758792 21027.165095922737 13.591733889367246 0.2507736850507987
0.7002190701970865 12.991052902065826 18172.02086418043 14.237489145300964 0.2543214549424158
0.7224534899427867 12.987997804085932 15729.513213836985 14.911059312145074 0.25792110773823623
0.7450402056881513 12.986658125069257 13633.58303327088 15.613475271651023 0.2615725520671467
0.7679624855314274 12.98675963224267 11836.143395998479 16.34600084517752 0.2652776593869365
0.7912064486319276 12.988147539460698 10288.7111101179 17.11025326256589 0.26904113209474073
0.8147818211176294 12.990673545774568 8956.276415538854 17.907687629813662 0.27286540288775735
0.8386627071762596 12.994142086405851 7807.060594000086 18.739667950260856 0.27675154100286187
0.8628457331425969 12.998405699759891 6814.525097989442 19.607541361169023 0.2807000512503281
0.8873256972681767 13.0033524025533 5955.350262266773 20.513392462021667 0.28471728243376904
0.9120822327123204 13.008848733697224 5211.145212901263 21.459015453265668 0.2888062480454089
0.9371014377711597 13.014734566261827 4565.102841506931 22.445892656998584 0.2929668551105568
0.9623855489797296 13.020946006314432 4004.41554005607 23.476053146343734 0.29720293255801883
0.9879065089882508 13.027330218665561 3516.536264504298 24.55191757487601 0.30152056636226265
1.0136488337638916 13.033787812039039 3091.7838319068846 25.675425835842706 0.30592137007130216
1.0396128631355708 13.040247506587162 2721.371688588757 26.848544059423325 0.31040663971075433
1.065763178976368 13.046571819920732 2398.2134287789904 28.07436677147035 0.31498509283313264
1.0920954556485012 13.05270636310284 2115.732409384117 29.35494513264659 0.31965714851290433
1.1185937327164952 13.058540215727968 1868.5922222484764 30.69304258195744 0.324427544545324
1.1452248101783067 13.063993329700931 1652.0642940192831 32.09205141627233 0.3293042874407887
1.171988111557275 13.069004764849867 1462.0013285560133 33.553919446308484 0.33428511847667397
1.1988440311948008 13.073469380725165 1295.4848379267162 35.08318591927007 0.3393835832360346
1.2257893410795742 13.07733276802226 1149.0117528325216 36.68186999680351 0.3445964181045316
1.2527852489697937 13.080499977384838 1020.1042369019534 38.35502858757199 0.34993808863972853
1.2798283473924839 13.082932473976324 902.8023410045015 40.10490463673447 0.3554051931521522
1.3068715192911577 13.084521206451328 806.7049396109384 41.93696415169518 0.3610122605571365
1.3339096022776151 13.085236149911683 718.5819680795993 43.8546931766041 0.3667612337813694
1.360918464630488 13.085033792747232 640.6020840901966 45.86278105128396 0.3726598716723334
1.3878481590474046 13.083775312018203 571.7798484970806 47.966560523954556 0.37871812915519015
1.4147047931852381 13.081483481305044 510.8034503841718 50.17078663180151 0.38494164957235677
1.4414290162661145 13.078031077970493 456.8546795433991 52.480682192884366 0.3913374201127384
1.4680234987122769 13.073431460895444 409.0097011608282 54.902661642510886 0.39791712343004243
1.4944320098039467 13.0675683410818 366.5173203225931 57.44291452650136 0.4046898200074058
1.5206441486828832 13.060420922720024 328.8289262132757 60.108068470942925 0.41166528037100025
1.5466276102653038 13.051936021793246 295.28219235673976 62.9052286185412 0.4188540435523945
1.5723442956115747 13.042055088651926 265.45433976779265 65.84202084071055 0.4262674803238679
1.597767834509487 13.030726918175876 238.91526602334523 68.92663910870408 0.4339178617653506
1.622855455578059 13.01790598374736 215.22949262770413 72.16789745473012 0.4418184337900721
1.6476067906056833 13.003566822292672 194.09582872367108 75.57528700803043 0.4499834983317993
1.6719561369441045 12.987633494756698 175.23030148006387 79.15873584789284 0.45842723748887126
1.6958929185061207 12.970083951713516 158.35576217754488 82.92845369837418 0.467162999269917
1.719373353903298 12.950873382542795 143.27489749023934 86.89716862946426 0.4762122949993959
1.7423549785567374 12.929931948328068 129.7744553174492 91.07645506333452 0.4855894540139224
1.7648374824068256 12.907288643362238 117.67227923089199 95.48040811909378 0.4953164199819302
1.7867648884302314 12.882852227730892 106.81573462343958 100.12269087375822 0.5054106958348001
1.808104001603501 12.856596439578915 97.08221470293869 105.01983094049706 0.5158979920103901
1.8288139527933363 12.828462439207629 88.32718898777324 110.18836902102773 0.5268008453403383
1.8488940647568457 12.798496944503867 80.46130534092683 115.64594462151699 0.5381426615373179
1.868270806592589 12.766558990153648 73.385076557004 121.41275046934007 0.5499527142803938
1.8869494749090236 12.732740008716751 67.00571665090068 127.51021659813546 0.562260830123145
1.9048756216450866 12.696924012321064 61.25708284494427 133.96077160047454 0.5750962650614833
1.9220150551269815 12.659109851777323 56.072698687020235 140.79011202650997 0.5884953650039286
1.9383285052673682 12.61922284092102 51.3909706650392 148.0259139655091 0.6024963920201883
1.9538258509579534 12.577380435012603 47.16041946538914 155.696680600402 0.6171351267043363
1.9684426116603744 12.533451291494638 43.337291108502725 163.83605175060714 0.6324591464155631
1.9821576154624982 12.487453681656326 39.87799293250265 172.4778035433813 0.6485100238075867
1.9949477753610687 12.439380176924432 36.744358469298064 181.66122048233083 0.665340910950737
2.0067843622352175 12.389221090345812 33.90353827710764 191.42830701846577 0.6830062333759668
2.0176321659374823 12.336948876352182 31.32761697172909 201.82509587933922 0.7015652226596322
2.027468718593892 12.282565404834216 28.990569236662438 212.90152844694518 0.7210805310443312
2.036280261487313 12.226101893062285 26.869083224469712 224.71310058119167 0.7416225224391031
2.044024907152171 12.167508763532522 24.9409864475137 237.32096171500066 0.7632682868530319
2.0506851909547663 12.106804931597042 23.187103115894587 250.79198173780028 0.7861004360721512
2.056258775960436 12.044060678174898 21.592767300653072 265.19928873486487 0.8102072253798931
2.060707178158804 11.979213351858963 20.141174649901675 280.6245493092094 0.8356881100241025
2.0640134119551936 11.912318931294985 18.821059362061053 297.157554858134 0.8626502628518044
2.0661747528276404 11.843421268127644 17.61816414671678 314.89867607102195 0.8912141513640807
2.067168358611481 11.772532906466191 16.523215860291117 333.9572917041732 0.9215055490647369
