M[M_sun], R[km], Lambda[1], P_c[MeV/fm^3], rho_c[fm^-3]
0.24162668629717493 15.618656898711224 2160425.4255784233 3.5677272577965504 0.1711233750220791
0.25364486994276386 15.277267443642186 1723040.8749767817 3.784844995866817 0.17388848952552893
0.2660424693385815 14.981226894080805 1382924.758417104 4.011454861160124 0.17666730614776913
0.27882058737012294 14.723397845494352 1093906.9220626103 4.247812156835376 0.17945848782189144
0.2919752263787066 14.498315598506668 905806.3583180346 4.494542409619546 0.1822686070145343
0.3055123528032033 14.301124270937702 738558.3711711537 4.751802418330147 0.1850933933577069
0.31943045185957913 14.128040853767803 605028.0223470209 5.020272570951021 0.18793942387717355
0.3337302179737869 13.975849689564836 497590.0965495133 5.300179490235246 0.19080337171777242
0.3484135794246905 13.841918908945013 410940.7269333533 5.592248913905064 0.19369147506711434
0.36347893805793374 13.723863683989697 340606.69947252213 5.8966517832595455 0.19659886440448307
0.3789334165084266 13.619905160787448 283244.092298041 6.214250727239519 0.19953318970140382
0.39476781957310375 13.528363927372661 236355.50942255574 6.545299891037156 0.2024905708709077
0.4109952920203367 13.447773053123566 197817.25113210513 6.890508293221735 0.20547483063252786
0.4276054146773793 13.376987966646457 166044.53561662737 7.250578261512355 0.20848899050981606
0.44460316059436955 13.31484236641659 139769.7672442097 7.625764204869075 0.21152852364829552
0.4619850131136628 13.260493156076299 117946.27339601121 8.017024330719225 0.21459973346052674
0.47975368427824644 13.213105434039074 99784.5322880193 8.425059682364452 0.2177042002328258
0.49791431375900447 13.17193227626103 84620.33780831218 8.85030508377566 0.2208393036126987
0.5164558838629706 13.136334869076888 71919.8409078018 9.29364602098669 0.22400862249109998
0.5353754001712692 13.10579317588204 61255.76545066348 9.75596198876359 0.2272149947192415
0.5546861500984357 13.079767326851423 52288.499010226915 10.238059379807778 0.2304597261502698
0.5743710028694035 13.057797263333999 44714.99331317114 10.740411144257545 0.23373953598261374
0.5944316962112074 13.039479314343714 38314.121755832406 11.2642692527999 0.2370606989116108
0.6148701959323523 13.024473452083008 32890.539326816 11.810566889235089 0.24042476854612158
0.6356771802171407 13.012424214550185 28281.96070259115 12.38028352242198 0.24383337866862903
0.6568514346771609 13.002993354174166 24360.74776427951 12.97409623477976 0.24728434344053202
0.6783869631584672 12.995955707201235 21019.81859472675 13.59335595609197 0.2507827162837443
0.7002779107162908 12.991046132604023 18165.154917282245 14.239249552943644 0.2543310052397941
0.7225156350517924 12.987992412347369 15722.327567622217 14.912967318274061 0.25793119608586856
0.7451061195540936 12.986652911033737 13627.802188220165 15.61552211048603 0.2615830141495494
0.7680304911340564 12.986748424725938 11831.381112862955 16.348214238337228 0.26528869259669946
0.7912785141228484 12.988145814347794 10285.563356253972 17.112644320379864 0.26905275899921
0.8148554038930222 12.99067603545868 8952.008704826538 17.910268199286165 0.2728776475053848
0.8387423250469428 12.994144261886817 7804.1553116021105 18.742426584869172 0.2767642155015312
0.8629254249260022 12.9984293588388 6810.870991968945 19.610513934192692 0.2807133873107816
0.887411250733307 13.003371337759864 5952.4990944126985 20.51659328270365 0.28473130892629256
0.9121700140210298 13.008877033972592 5208.635111205955 21.462459810809563 0.28882099578697074
0.9371938214982641 13.01476402943859 4562.822782733495 22.44956620237647 0.292982112926657
0.9624807867475864 13.020968225788918 4002.561128842874 23.480001985838417 0.29721896996852126
0.9880040868504272 13.02736169814705 3514.7079363257494 24.556160298372824 0.3015374206886001
1.0137502953550093 13.033821037123534 3090.5485540878544 25.67994601888692 0.3059388143282079
1.0397175073287082 13.04027460930018 2719.9113904596024 26.85339696956197 0.31042497313139683
1.0658727130024959 13.04659682079281 2396.8781355498795 28.07957512879671 0.3150043608116502
1.092206915387286 13.052738681833791 2114.413592451343 29.360490475996823 0.319677108344107
1.118709427729254 13.0585623277427 1867.3639711273088 30.698991126337006 0.324448528421079
1.1453431548025916 13.064021073010627 1651.0577931856008 32.09838374481763 0.3293260446979611
1.1721102966772305 13.069029377864872 1461.1994865768252 33.5607098471081 0.3343080028274883
1.1989682616089177 13.073489874269214 1294.6464239102386 35.090466446956526 0.3394076579673382
1.2259187283018655 13.07734429487469 1148.3938086809753 36.689619521413405 0.34462141687132253
1.2529165263149906 13.080507379528726 1019.5264740053293 38.363278563248954 0.3499640670222386
1.2799612922666836 13.082945056806608 906.1716234013279 40.11374884733611 0.35543255418509384
1.307014872670777 13.084550099351219 806.2830760354627 41.946381439527705 0.36104073044496704
1.3340471888407195 13.085239542709452 718.1115114862848 43.864789141557864 0.3667912442104605
1.361058668908079 13.085028921383552 640.2336280422077 45.873534536168336 0.37269114134562664
1.3879988313065899 13.083780423979427 571.4165837382874 47.97801746715908 0.37875073931393194
1.4148416609274705 13.081453752946361 510.4840371999155 50.18307268292227 0.38497607644154797
1.4415763486954 13.078008789988349 456.5832712751777 52.493777845397034 0.39137337586802123
1.4681714996535138 13.073404225625357 408.74091786876005 54.91662489185483 0.39795470998604066
1.4945830924104182 13.067529494541866 366.2845113294256 57.457808066282446 0.40472914715804675
1.5207957567608459 13.060375734493189 328.63579902159086 60.12396011361984 0.41170646643665965
1.546780296261738 13.051881291674759 295.0905292348468 62.92219175809219 0.41889721609118113
1.5724972142242248 13.041990975379298 265.2809102013369 65.86013496195756 0.42631277691393415
1.5979115994423854 13.030648282926908 238.7523978985165 68.94599034853869 0.4339654308659203
1.6230198019547466 13.01783372832691 215.0792710474201 72.18857922112875 0.441868435689791
1.6477623897789635 13.003470022534295 193.95523825801413 75.59740066348151 0.45003610619406104
1.6721104905570237 12.987526504073807 175.1184667247288 79.1822759719793 0.4584821563290485
1.6960478282700513 12.969963856664306 158.25222897876813 82.95365000400358 0.4672209003068698
1.7195270016587378 12.950740407407581 143.18029495736036 86.92415084436455 0.47627339644064276
1.7425079959572027 12.929790979228333 129.6880535053377 91.10523441775746 0.4856534774842139
1.764990405112567 12.907125705207084 117.59453879544769 95.51126190822889 0.49538412008460897
1.7869001780805107 12.882646264498256 106.75005919745804 100.15564596452894 0.5054818114909673
1.808251110749028 12.85640508816173 97.01422667414212 105.05505825220517 0.5159727972806416
1.8289553289118679 12.828252796802317 88.27062664545956 110.22605498704097 0.5268796366705125
1.84903617004935 12.798272029262652 80.40846382284612 115.68644677084447 0.5382263250016113
1.868407677878063 12.766319426520088 73.33095291571246 121.45614250323403 0.5500410445599955
1.8870825117306027 12.73248485617666 66.95768047826529 127.55658468442479 0.5623536439745018
1.9050044849522227 12.696649080366514 61.21394634618701 134.01052630464625 0.5751944962962167
1.9221421238159653 12.65881484475824 56.03478413121302 140.8435526680692 0.5885994876961349
1.9384514083008864 12.618908756691996 51.3561149526297 148.08336063738275 0.6026068935516875
1.9539425173297043 12.577046447549494 47.13030904998671 155.7582956131003 0.6172518933211494
1.9685526134800435 12.533097270678743 43.30930952281857 163.90220856213205 0.632582727889293
1.9822657668895292 12.487078488631605 39.85197273835628 172.54911143039917 0.6486416860243222
1.9950463648870664 12.438977475145533 36.72031217180079 181.7379379863468 0.6654806529480505
2.006877918449837 12.388800302602675 33.88010597901175 191.51093243646343 0.683154770080844
2.0177180861726596 12.336506008072003 31.304978161386828 201.91417889762147 0.701723336229768
2.0275481168842613 12.282105450716973 28.971577432440174 212.9974513895534 0.7212483424935369
2.0363510846197777 12.225613323470728 26.852344623932904 224.81675150750277 0.7418016855328103
2.044086871371214 12.16699907094754 24.925310112528074 237.43284568294814 0.7634590592962188
2.050738576485379 12.106268835498472 23.17225424377965 250.91290725924375 0.7863039076653598
2.056303129642482 12.04349914418467 21.580095222584497 265.33028959458005 0.810425039535093
2.0607412346083827 11.978627774277934 20.128954482792228 280.76634838374605 0.8359206935097881
2.0640377797330656 11.911707402813729 18.809425783217314 297.3113978232813 0.862899516021097
2.0661862896325163 11.842780821971369 17.6087218441189 315.06579858816366 0.8914816816435552
2.0671729112318564 11.771873116020664 16.512955362906574 334.1387962754179 0.9217922210365351
