M[M_sun], R[km], Lambda[1], P_c[MeV/fm^3], rho_c[fm^-3]
0.24162668629717493 15.618656898711224 2160425.4255784233 3.5677272577965504 0.1711233750220791
0.25364179735137476 15.277378953733553 1723154.0929710853 3.784800164237601 0.17388793072089825
0.26603785691193477 14.981299763389499 1383055.9755705893 4.011360615918561 0.1766661672496446
0.2788108670641736 14.723622053705208 1116529.5259811105 4.24766530930264 0.17945678461180622
0.2919646749084318 14.498501990127336 905971.727475439 4.494339106181939 0.18226634318357227
0.3054983228879035 14.301304528419474 738722.0848722118 4.75153575563991 0.18509051289171893
0.3194132974329567 14.128232423682107 605154.8053594232 5.01994058447524 0.1879359793893523
0.3337102388755049 13.976031825013479 497747.0688704361 5.299773439392452 0.19079928345954567
0.3483895295457311 13.842123033065759 411065.8335536435 5.5917677846537375 0.19368682000925366
0.363449555971779 13.724104127908241 340693.1828039196 5.896084766034279 0.19659353885870973
0.3789026391414507 13.620079822922232 283346.7475400163 6.213590960018026 0.19952717341875525
0.3947322636656628 13.528557226400888 236449.02838371467 6.544548058594712 0.20248397831606335
0.4109552901642008 13.447955719252827 197904.57870653752 6.8896498810718 0.20546752003444033
0.4275621298201364 13.37712252233613 166110.41005831116 7.249605214068104 0.20848094073768048
0.4445550602860977 13.314990022282599 139830.71199964883 7.624679211318275 0.2115198864019826
0.46193322387831903 13.260673379982615 118009.95393024891 8.015808465667547 0.21459032776136736
0.47969569341770757 13.213226116606299 99837.98608602873 8.423703464270101 0.21769400336871442
0.49785036230149743 13.172052136387796 84663.85866171519 8.848813513047658 0.22082850400332882
0.5163861671970227 13.13646697842748 71957.48802540351 9.291994958698764 0.22399699890966124
0.5353020461394484 13.105897868522625 61293.99527435773 9.754140239800691 0.22720252206153357
0.5546068348070055 13.0798694047982 52315.047124832214 10.236058619307737 0.2304464238734822
0.574286826597875 13.057879862530754 44745.438078402185 10.738232979784565 0.23372555149198632
0.594340704039055 13.039558195504652 38341.47593187147 11.261884477514286 0.23704579879247067
0.6147741792264347 13.024533781370053 32911.3979948342 11.807961414410098 0.24040892291204688
0.6355735270951395 13.012452341026158 28303.977001580046 12.37744238034478 0.24381655605556876
0.6567432217377221 13.003050410896034 24380.36027166081 12.971032472464822 0.2472668322314947
0.6782722101914459 12.99598961001193 20873.55191975778 13.590026066127056 0.2507641763485506
0.7001572109036308 12.991076361437793 18179.639472176175 14.235635680208464 0.2543113998038306
0.7223885135598457 12.987996764760258 15734.50911860338 14.909050460390048 0.25791048618176504
0.7449728626610234 12.986652832050606 13640.038064528606 15.61132026182686 0.26156153708640006
0.7678901744227521 12.98675980834817 11840.485282779664 16.343670495322133 0.2652660431773793
0.7911316734899472 12.988127888228698 10293.320984206252 17.107735877867725 0.26902889090541154
0.8147017768158451 12.990661626207652 8960.132899062137 17.904970740140087 0.27285251144052314
0.8385821144892984 12.994110683331803 7810.561347319985 18.73676360579115 0.27673819704277175
0.8627602798540929 12.998386179943985 6817.6758441410275 19.604411800338173 0.28068601088459083
0.8872321588822101 13.003338760367207 5958.682994600622 20.51002262331328 0.28470251527804713
0.9119888231887174 13.008820537667482 5213.679301301459 21.45538924382791 0.2887907216666995
0.9370048801527392 13.014711874401506 4567.389635391701 22.442025181776344 0.2929507918202901
0.9622809045663899 13.020916088966922 4006.504680673511 23.47189587408522 0.29718604864013104
0.9878018444080295 13.027309749113789 3518.3184549018783 24.547450939048787 0.3015028225385327
1.0135419211742875 13.033764671800942 3093.655474252623 25.670667125487284 0.3059030052915647
1.0395015671278123 13.040221916776314 2722.8690838576044 26.843435101985563 0.3103873389895221
1.0656525519484399 13.046553671704203 2399.3611640697495 28.068883653855224 0.314964808396832
1.0919766964532525 13.052673580428209 2117.01406346636 29.349107287079274 0.3196361358533174
1.1184726755718621 13.058513783749309 1869.5738446360997 30.686780315215483 0.324405453993607
1.1451001941971333 13.063970400777016 1652.969174960631 32.08538516603923 0.32928138286158704
1.1718605471922154 13.068989913671498 1462.9353538202174 33.5467710238856 0.3342610275560757
1.1987125246237573 13.073442111277387 1296.1024536914804 35.07552158844505 0.33935823937180104
1.2256560077521743 13.077309959546719 1149.643543923665 36.67371199758658 0.34457010166188895
1.2526474911201773 13.080486474102678 1020.7012527218216 38.34629601383974 0.34991046070053167
1.2796876196510008 13.08292814068253 907.2167275290017 40.0955943875506 0.3553763903515306
1.3067284197025069 13.084516375896303 807.2387770459948 41.92705069400799 0.36098229067266585
1.3337616026202739 13.085232133419932 718.9418920239688 43.844065373335056 0.36672964245375866
1.360768326256471 13.08503639587489 641.0098722454509 45.85146116968593 0.372626954994336
1.3876977730543483 13.083785147915581 572.1561487681022 47.95450021751661 0.3786838016299161
1.4145522212399564 13.08149881247656 511.1390722536402 50.15785366708583 0.3849054099799813
1.441273036289513 13.0780563311244 457.1336128631106 52.46689709906873 0.39129957140994903
1.467866982950885 13.07346181642257 409.2719762215242 54.88796338607334 0.3978775583671363
1.4942739338966342 13.06760721219252 366.76253844264795 57.42723713038695 0.404648423044178
1.520483816688292 13.060471688703593 329.0386046851573 60.091340571982364 0.41162192699596273
1.546466688845579 13.05199223987098 295.48591031452645 62.88737298070946 0.41880859953452654
1.5721814846523248 13.042123948496755 265.636303372655 65.82295381931004 0.4262198008896637
1.5976042169604674 13.030805386684396 239.07393864247166 68.90627005995592 0.4338677906930734
1.6226852393651512 13.017970785841188 215.37321668954385 72.14612808457983 0.4417658024121608
1.6474429360213771 13.003671036028923 194.22314329635134 75.55201065320765 0.4499281244352863
1.6717924054710025 12.987747182549507 175.34450248112265 79.13395820835098 0.4583694315392947
1.695730014063835 12.970212617341636 158.46298322234108 82.90193305503308 0.4671020549087598
1.7191938229374841 12.950974635447324 143.38184662849793 86.86876847581408 0.4761479826245197
1.7421991425318077 12.930091224972864 129.8681361075648 91.0461635774715 0.4855220666077723
1.7646786728879467 12.907457686779917 117.75225852527778 95.44793352512661 0.49524516347154174
1.7866080175981311 12.88303766839527 106.89048325828153 100.08800489614981 0.5053358449999298
1.807948872096839 12.856795878074527 97.1493825986817 104.98275373382407 0.5158192584843031
1.8286614547514937 12.828679585699463 88.39119327642102 110.14865786251596 0.5267177439324228
1.8487432245618214 12.79872974353559 80.51678935320186 115.60331644595807 0.5380546064364656
1.8681339859327717 12.766843451620487 73.43015169961072 121.36708116789507 0.5498597483185836
1.8868074927817098 12.73301306354722 67.05238001984021 127.46124979506355 0.5621625541400926
1.904734345475225 12.69721503212995 61.29942551980021 133.9084067312428 0.5749928805504722
1.9218803058191642 12.659422476482085 56.11156844785202 140.73386846929546 0.5883857811661309
1.938199489097589 12.619551030848704 51.42520308675981 147.96545494882238 0.6023800960935679
1.9537031947909544 12.577740839403162 47.19677942432465 155.63183534291525 0.6170122384502972
1.9683243036074534 12.533827974798369 43.36755525036191 163.76639345185097 0.6323289727367176
1.9820489637284038 12.487853084230466 39.90413825384831 172.40275899979892 0.6483714622630625
1.9948431535943454 12.439798462523314 36.76901697714884 181.58048379207528 0.665193847949959
2.0066817559639647 12.38965065598396 33.92594618479703 191.34135395717934 0.682849916814847
2.0175416454424244 12.33741574220206 31.346900155114536 201.73134817080106 0.7013988297244259
2.027386408919483 12.283057077636458 29.01012043319856 212.80058386160954 0.7209039345316092
2.036206516057724 12.226614907427063 26.887217209131997 224.60402492554422 0.7414339825715934
2.043959573767137 12.168047008921047 24.957261322897672 237.20322366294636 0.7630675326586777
2.0506293246652914 12.107370062905071 23.2020937914308 250.6645708628816 0.7858858003836249
2.056206448253514 12.04462891769927 21.60600529401391 265.061319410787 0.8099776364087788
2.0606710152585603 11.979828052057378 20.154563793281728 280.4753372441677 0.8354433675086301
2.063993220052586 11.912974067653346 18.833359038083973 296.99567174986254 0.8623879832100088
2.0661595053444413 11.84408822017833 17.6291008279806 314.72282219380816 0.890932643894457
2.067165918022572 11.773225619401863 16.533102411571747 333.7663073744831 0.9212039045717121
