M[M_sun], R[km], Lambda[1], P_c[MeV/fm^3], rho_c[fm^-3]
0.24162668629717493 15.618656898711224 2160425.4255784233 3.5677272577965504 0.1711233750220791
0.25364151387298767 15.27735835811898 1723211.7217726754 3.784790390034924 0.1738878088901771
0.2660368745940777 14.981296024121171 1383034.8650192772 4.011340068758421 0.1766659189493404
0.27880962297720385 14.723622951780298 1116543.8628902393 4.247633294212123 0.17945641328500192
0.2919619179689632 14.498529032863608 905980.5353414483 4.494294783236052 0.18226584963728298
0.3054958043731197 14.301346679714726 738730.7802545604 4.751477620073449 0.18508988491664777
0.3194101176643985 14.128249381208091 605233.092109117 5.019868208232711 0.18793522845790142
0.3337055629466246 13.976077622396213 497784.7628242696 5.299684917249229 0.1907983921884482
0.3483842675165689 13.842167594633944 411093.4595195841 5.591662895783259 0.19368580518057785
0.3634447543858957 13.724107808053263 340729.9473920307 5.895961154255079 0.19659237787072043
0.37889586229549965 13.620115744957655 283376.06229393993 6.213447129737312 0.19952586185977808
0.39472573061194277 13.528547984393775 236465.59021708305 6.544384159335496 0.20248254114097708
0.4109466664354723 13.448019736048753 197927.45587993335 6.889462749161396 0.2054659263405645
0.42755149010006577 13.377198805249817 166135.49983036544 7.249393093832067 0.2084791859213295
0.4445446345451124 13.315045416115133 139851.96597604992 7.6244426892099995 0.2115180035339175
0.461921959768496 13.260687470197132 118027.68312440667 8.01554341670128 0.2145882773933304
0.4796828800780328 13.213263267338315 99847.13052292452 8.423407822056257 0.21769178055256655
0.4978364843115047 13.172082701523365 84676.19346791 8.848488367808361 0.22082614981287246
0.5163717928786982 13.136480536057412 71966.59691273887 9.291635049266542 0.22399446512482066
0.5352853791573912 13.10592712165952 61300.62327988331 9.753743126405764 0.22719980321302755
0.5545894144525095 13.079896045159597 52323.69107848627 10.235621713952339 0.23044351425425255
0.5742670485320899 13.057903618362698 44750.4054733097 10.737758180892845 0.2337225031360272
0.594321186512913 13.03957320099846 38345.95403401197 11.26136464580531 0.23704255087454595
0.6147540540735844 13.024541494424179 32918.70283641416 11.807393479624983 0.2404054689209751
0.6355514864985345 13.012479975506622 28308.655437559602 12.376823080707167 0.2438128891364606
0.6567193334867094 13.00304611066816 24383.617963778404 12.970364651853167 0.24726301524273123
0.6782469640125064 12.995998338876822 21038.79261192023 13.589300242779073 0.25076013515860873
0.7001306798013919 12.991067477018053 18182.15155879481 14.234847963231443 0.25430712640078573
0.7223607609105028 12.987998026992498 15738.8989195728 14.90819670892977 0.2579059720759705
0.7449434457714019 12.986645139468024 13642.00367116092 15.610404397833793 0.26155685579718413
0.7678594091597242 12.986756572331856 11842.562730584337 16.342680118123013 0.2652611063954369
0.7910997272515403 12.988114544762908 10226.317260810569 17.106666018080855 0.2690236885395529
0.8146685463247246 12.990650256968975 8961.887727724565 17.903816098966267 0.27284703275071415
0.8385468176061327 12.994114393097508 7811.9455424381085 18.735529304077982 0.27673252606504456
0.8627243601706933 12.998370107247537 6819.067085031183 19.60308179202838 0.28068004397609714
0.8871929536886882 13.003325474844093 5959.449748634179 20.508590508591883 0.2846962395292851
0.911948705361281 13.008822869578866 5214.715296544254 21.45384818469821 0.28878412329777675
0.9369635496144969 13.014703652456273 4568.302283903332 22.440381596988527 0.29294396530479677
0.9622379025118631 13.020896014099472 4007.247168484154 23.47012914181708 0.2971788734154428
0.987758644261682 13.027294198421924 3519.13598462356 24.545552745459297 0.3014952819165165
1.0134951159169983 13.03375548594749 3094.090544795502 25.66864481723738 0.30589520081455374
1.039454433440665 13.040203764206803 2723.507146811286 26.84126396104519 0.31037913681000573
1.0656030733827633 13.046547205852397 2400.007778771956 28.06655351972055 0.31495618821744786
1.0919266394066738 13.05266484739496 2117.235784860415 29.346626416889183 0.3196272062438952
1.1184210493738778 13.058503225730405 1870.0116085739385 30.684119096395428 0.3243960663717766
1.1450480966478085 13.063962676107627 1653.2516049540689 32.082552282808344 0.32927164935383346
1.1718053593992945 13.068979099305114 1463.252904598731 33.543733254471924 0.33425078995994445
1.1986565901805801 13.073440840672896 1296.467214075502 35.07226459905868 0.3393474693908721
1.2255987130299009 13.077302927549688 1149.9690431046208 36.67024523801703 0.3445589184321604
1.2525898691157111 13.080473697153256 1021.0219388217828 38.34257960688321 0.3498986879380108
1.2796268737716758 13.082921035602913 907.4650853649231 40.09163801924515 0.3553641506697308
1.3066665671216282 13.084516671409638 807.4439205020531 41.92283801435612 0.36096955510386003
1.3337007838670563 13.08523212860642 719.1452268914073 43.83954916338164 0.3667162179421653
1.360705000704609 13.085036420337547 641.1650600476802 45.84665089035639 0.3726129673554728
1.3876333643720937 13.083786329216887 572.2972964145182 47.9493753279778 0.37866921453993835
1.4144864193358961 13.081510187244989 511.2700798910461 50.152357986593394 0.38489001047760496
1.4412142333896456 13.078082820031458 457.2630030437031 52.461039349823956 0.39128348822523185
1.467800575201643 13.073475811243837 409.3869619827229 54.88171763759696 0.39786074593551124
1.4942056890418758 13.067620738117412 366.86038170719166 57.42057535214032 0.40463083227928975
1.520416172968944 13.060489907807325 329.1408817752312 60.08423244537775 0.4116035050005149
1.5463980025872293 13.052017871842098 295.56472445131595 62.879785692365125 0.418789289282474
1.572111884007193 13.042152521191094 265.70343851240585 65.81485183346418 0.4261995408766839
1.597535073568091 13.030839960770994 239.14242016228255 68.89761486769456 0.4338465145518726
1.6226225886087997 13.018037835671896 215.43155836026241 72.13687792725028 0.4417434384887772
1.647374669589592 13.003711412055724 194.28053149193727 75.5421202170611 0.4499045953220803
1.6717230417153484 12.987796932329742 175.3982629928333 79.12342991367711 0.4583448691482721
1.695661854458405 12.970268547893827 158.5122803935394 82.89066421442607 0.46707615914586503
1.719134638430395 12.951067609731854 143.4239562216296 86.85670109889111 0.4761206559530516
1.7421307067706968 12.930156712413122 129.90894661979635 91.03329264057734 0.4854934335108044
1.7646156322632336 12.907537871842614 117.78765820041143 95.43413507950932 0.4952148866008142
1.7865412903912807 12.883115633451533 106.9239689013139 100.07326692839536 0.5053040411049042
1.8078830794815142 12.856880168416081 97.17819307941251 104.96699984398883 0.5157858050662165
1.8285961511928164 12.828770242771263 88.41448246056385 110.13173808583046 0.5266822604800868
1.84868051681876 12.798831044472694 80.5438851038915 115.58520425082612 0.5380171928913611
1.868070800618829 12.766949179438873 73.4510453102845 121.34767697608906 0.5498202484949096
1.8867467625274585 12.733128288290683 67.07299801036417 127.44044470092723 0.5621207984821679
1.904676546908493 12.697337735467563 61.31666878760686 133.88615801223912 0.5749489546709929
1.9218240977822703 12.659553337192282 56.12772507790289 140.70997196960263 0.5883392216973498
1.9381511957831739 12.619722590762908 51.4402989185685 147.93976761670788 0.6023306852322211
1.9536436426351202 12.577856520190561 47.20839129684478 155.60428463071477 0.6169600270928122
1.9682739633352868 12.533986436259543 43.38005130169449 163.73672590265613 0.6322734222080258
1.9820002469153668 12.488023242494318 39.91557055408638 172.37087547463884 0.6483125928199269
1.9947997328571028 12.439976240284812 36.77958935911621 181.5461821868603 0.6651313671004412
2.0066363740366864 12.389839993218223 33.935350299611244 191.30441160645088 0.6827835051078855
2.017503526978864 12.33761323793503 31.356568413941282 201.69151945397329 0.7013281376808356
2.0273522942931956 12.283266178952855 29.018788071922174 212.75769792692455 0.7208289081546617
2.036174409535848 12.226833504790465 26.894728056026246 224.55768499501093 0.7413538828984693
2.043931806475258 12.16827679924734 24.965014313268654 237.15320405803303 0.7629822446374213
2.050605155123019 12.107609844476105 23.208764249755756 250.61040180764977 0.7857944836008177
2.0561864201741757 12.04487911268669 21.61288016591333 265.00270602104627 0.809880100322884
2.060654148907836 11.98009106863044 20.15883860951184 280.4118974930673 0.8353392290862619
2.0639820322915217 11.91324662395997 18.837890927300567 296.9269005492738 0.8622765615425546
2.0661529983985565 11.844371689624744 17.634090574955447 314.6481167986205 0.890813055250182
2.067162047190899 11.77351905983194 16.537069861857383 333.6851752636243 0.9210757628833978
