M[M_sun], R[km], Lambda[1], P_c[MeV/fm^3], rho_c[fm^-3]
0.24162668629717493 15.618656898711224 2160425.4255784233 3.5677272577965504 0.1711233750220791
0.25364418289637664 15.277287830561539 1723130.0006239864 3.7848448031834434 0.17388848712382363
0.2660424705761672 14.981211431986942 1382893.750452352 4.011454456096924 0.1766673012528194
0.27881932574793716 14.723465013435597 1116328.9070270837 4.247811525684017 0.1794584805014868
0.29197520961360535 14.498327407630859 905816.826413656 4.494541535813577 0.18226859728450204
0.30551241649209687 14.30111674977351 738555.238148235 4.751801272194527 0.18509338097725475
0.3194303956482752 14.128037557579884 605026.9018153074 5.020271144038244 0.18793940907240275
0.3337323080647728 13.97577731823295 497609.3386516003 5.300177744972439 0.19080335414587188
0.3484134785130695 13.841922154002193 410943.2196425547 5.592246845929843 0.19369145505888521
0.36347883569533407 13.723856618952608 340609.76841310266 5.89664934610468 0.1965988415142088
0.3789330665445241 13.619913115777925 283252.1023492677 6.214247891404965 0.19953316384200726
0.39476805510020924 13.528355374541954 236359.8723036587 6.545296659462379 0.20249054253436255
0.4109951136517923 13.44777389882116 197824.77474995874 6.890504603511849 0.20547479920941014
0.42760575124270916 13.376982867810888 166045.47888625518 7.25057407903522 0.20848895590925462
0.44460295552629664 13.31483520945819 139768.04859048018 7.625759541180112 0.21152848652233264
0.46198476954739526 13.260482249874277 117946.53596109423 8.017019104460104 0.2145996930311872
0.479753715013638 13.213082650814027 99791.32284613102 8.42505385277154 0.21770415640243673
0.49791397023691647 13.171910629535017 84619.14928400148 8.850298672339896 0.22083925719116437
0.5164546965375592 13.13633598636743 71920.34235813821 9.293638923934685 0.2240085725274114
0.535375130839972 13.105793216498705 61255.9348782622 9.755954157963439 0.22721494110543858
0.5546856777202671 13.079748516514156 52286.61756467885 10.23805084799327 0.23045966985107344
0.5743702414826434 13.057799280104492 44713.877423095575 10.740401781279935 0.2337394758693972
0.5944311719077776 13.039479940671699 38315.747802626305 11.264259001620852 0.23706063486205858
0.6148706375940309 13.0244681825381 32890.17026830699 11.810555689280127 0.24042470043170872
0.6356786857129559 13.01239883566252 28281.682539985904 12.380271309336873 0.24383330635404588
0.6568509316410392 13.002998348097607 24360.673476288906 12.97408306464996 0.24728426816547075
0.6783867777844128 12.995954204049198 21019.66062894063 13.593341641865317 0.25078263658596534
0.7002773715610089 12.991054495836826 18164.836074890136 14.23923401784959 0.2543309209611506
0.722514236571729 12.987993869413275 15722.832835435627 14.912950480608615 0.2579311070587843
0.7451059237094857 12.986637849989897 13628.299989428504 15.615504047606972 0.2615829218240932
0.76802985591059 12.986749126985 11831.365627110692 16.348194705588696 0.265288595230847
0.791278151884113 12.988144786816056 10285.537761633575 17.112623219705007 0.26905265639377346
0.8148545828762216 12.990672396947515 8952.149874363766 17.91024542612588 0.2728775394483676
0.8387416990518918 12.99414651482765 7803.987735331679 18.7424022402415 0.27676410365056325
0.8629247954241396 12.998426561052723 6810.726346131638 19.610487701493724 0.28071326962120546
0.8874107872492328 13.003376131244892 5952.525915951695 20.51656503564171 0.2847311851432874
0.9121695268921259 13.00886950506169 5208.68662828566 21.46242941444341 0.28882086563853326
0.9371924345114223 13.014764402231203 4562.849934617644 22.449533783342574 0.2929819782764468
0.9624802894886831 13.020966923144261 4002.5153088725174 23.47996713721236 0.2972188284378963
0.988003126533916 13.027361449072155 3514.6777764975163 24.55612285607977 0.3015372719481445
1.0137493390511485 13.0338165832057 3090.50660071829 25.679906127882703 0.30593866038114004
1.039716524451931 13.04027525495633 2719.9884879462256 26.853354142059484 0.31042481133680433
1.0658708401548211 13.046602358986753 2396.857482832046 28.07952916426518 0.3150041907688611
1.0922066288909484 13.05273481364351 2114.588464281253 29.36044153737024 0.31967693219509974
1.118708556721746 13.058564876499666 1867.3502464959406 30.698938629197905 0.3244483432340191
1.1453428991028016 13.064017578428032 1651.1794034923753 32.098327860536806 0.3293258526850765
1.1721087491718762 13.069026001777399 1461.2010789878868 33.560649920007805 0.3343078008669816
1.1989675082883586 13.073481694002693 1294.6638358285938 35.09040219411163 0.3394074455005991
1.2259172635559925 13.077347966437157 1148.3919172401984 36.68955112931781 0.344621196249009
1.2529155591242818 13.080513541352138 1019.5597695509437 38.36320575427967 0.34996383775377427
1.2799603785382032 13.082949622724355 906.1478921737777 40.11367079372507 0.3554323127132973
1.3070141487359688 13.084551428982863 806.2772260333315 41.94629832801692 0.3610404791862786
1.3340475619242518 13.0852423747391 718.1160107070205 43.864700040076585 0.3667909793547783
1.3610567589625548 13.085027912789203 640.2220656675103 45.873439631456414 0.3726908653756162
1.3879970003415703 13.083781452914607 571.41969134985 47.97791635374132 0.37875045151250486
1.4148418251452082 13.081451690925531 510.5117295226678 50.18296425174164 0.3849757726054305
1.4415748159350232 13.078010130823012 456.57952255665475 52.49366226862731 0.3913730585375145
1.4681698579547713 13.073405723456494 408.7478065767792 54.916501657590935 0.3979543782615655
1.494581941458504 13.067532513742101 366.2919246925969 57.4576766211475 0.40472880007047063
1.5207944990392843 13.060378540684688 328.63155852212225 60.1238198590508 0.41170610294158194
1.5467788386134487 13.051881196308763 295.09031753309927 62.92204204625566 0.4188968350626545
1.5724966896838117 13.041992020964647 265.2838520153307 65.8599750912537 0.4263123771375587
1.597910212154262 13.030648398128465 238.75362211522727 68.94581955864585 0.4339650110312401
1.6230187586120883 13.017834296758789 215.08647295138567 72.18839668753964 0.44186799438192387
1.6477608517551494 13.003473862294037 193.94848144370468 75.59720549146893 0.4500356418844683
1.6721111523906107 12.987533110846194 175.11016881278005 79.2171327300348 0.4585135672253873
1.6908170694067552 12.969055876609787 161.2077784987315 83.30323563247579 0.8712889472330039
1.697219333160761 12.940619016896024 154.1421429824313 88.53495892174628 1.3249628490813454
