M[M_sun], R[km], Lambda[1], P_c[MeV/fm^3], rho_c[fm^-3]
0.24162668629717493 15.618656898711224 2160425.4255784233 3.5677272577965504 0.1711233750220791
0.2536439608395996 15.277291491072551 1723228.2977392816 3.7848188690556124 0.17388816386743125
0.26603998170708487 14.98127497385196 1353352.108147559 4.011399937073956 0.17666664242260177
0.278814616416001 14.723517364181259 1116452.6992650758 4.24772657698306 0.17945749522457066
0.2919689484101906 14.498440831279169 905921.3238309979 4.494423927985804 0.1822672876940444
0.30550452887426816 14.301244710587179 738695.6973977893 4.751647011528843 0.18509171466765448
0.31942047786357614 14.128156795010703 605102.1623256507 5.020079093867706 0.18793741647775886
0.3337195939128684 13.97592405874409 497694.6100315733 5.299942848700779 0.19080098913017965
0.34839951539520764 13.842039163112243 411013.03410927457 5.591968516726551 0.19368876214727762
0.3634620275770469 13.724003351796462 340643.11560201604 5.896321330399824 0.19659576072129328
0.3789153084014715 13.620009200138732 283314.28984519566 6.213866219247056 0.19952968345149033
0.3947477065297426 13.528458022206152 236405.64027811657 6.544861726773818 0.20248672876224916
0.41097185785363255 13.447903651578372 197869.91570555393 6.890008013275171 0.20547057003856858
0.4275785785206386 13.377083678860783 166053.9752947613 7.2500111707220585 0.20848429911304087
0.44457452513497653 13.314932602737432 139806.5771821013 7.625131870287007 0.21152348985843245
0.461955671298844 13.260579228675557 117981.03504116296 8.016315722036243 0.21459425179947836
0.4797202873391597 13.213158286038608 99816.0862923468 8.424269273249823 0.21769825746125548
0.4978770170320665 13.171991248892837 83769.42470659947 8.849435788320163 0.22083300954217955
0.5164146863985523 13.13641904302249 71941.3304011813 9.292683770124444 0.2240018481850404
0.5353336730393026 13.105844975723253 61279.20172473252 9.754900257338461 0.22720772554389787
0.5546390391543997 13.079833775271684 52302.79712641306 10.236894796666782 0.23045199248849957
0.5743219341132203 13.057844150521301 44731.40617997378 10.739141683730232 0.23373138565279875
0.5943779864868025 13.039539879908897 38329.86885180556 11.262879372919798 0.23705201491696823
0.6148141321342466 13.024510981725188 32625.61344454912 11.809048378172578 0.24041553346528174
0.6356192221089206 13.012433417314348 28293.765788614 12.378627655986081 0.2438235741605919
0.6567885123100742 13.003015791813434 24372.527543577762 12.972310617042591 0.24727413758177338
0.6783197645848366 12.995986162195306 21029.043371099517 13.59141522854489 0.2507719108327142
0.7002073852169808 12.991065709787453 18173.8687751257 14.237143308319432 0.2543195787599124
0.7224417277742575 12.988002074054808 15730.80775855845 14.910684480560398 0.2579191258623542
0.7450283823022112 12.986642161309572 13634.657180357195 15.613073167464517 0.2615704967772715
0.7679485983675186 12.986760687373813 11837.153115871695 16.34556602295007 0.2652754919071898
0.791192552154829 12.988142671710959 10289.431312693756 17.10978353994949 0.2690388479927186
0.8147653730347673 12.990673435117275 8956.808607372268 17.907180679770576 0.2728629974460515
0.8386486966835126 12.994132884205099 7807.902575649589 18.73912602133784 0.27674905111986214
0.8628274722297352 12.998397860302093 6814.958634399662 19.606957406832823 0.2806974314155023
0.8873073193382386 13.003353653163236 5955.667392149964 20.51276367163108 0.284714526976782
0.912064216375596 13.008847560552178 5211.602979911674 21.45833882370992 0.28880335091359427
0.9370838524632176 13.014735752453952 4565.519975710078 22.44517100690233 0.29296385778690226
0.9623612816937931 13.02093528164624 4004.630017068909 23.475277419333654 0.2971997821001399
0.9878862494489821 13.027334158603955 3516.7328983150132 24.55108411957418 0.3015172554400083
1.0136270758384476 13.033795692492212 3092.055178140774 25.67453787848389 0.30591794327284355
1.0395926061248641 13.040243974829528 2721.6614572584945 26.847590744339318 0.31040303825802995
1.0657423732521656 13.046567683015455 2398.5128309963593 28.07334363610695 0.3149813078105301
1.0920733374754361 13.052701460086134 2116.033754198693 29.353855803226683 0.3196532275958443
1.1185708800794498 13.05853382188061 1868.7342741604161 30.691874052750848 0.32442342248282896
1.1452017242113692 13.063995874649452 1652.2000880462103 32.09080750116909 0.3293000134710147
1.171964084862163 13.069001080458643 1462.1767456584496 33.55258555407305 0.3342806231223105
1.1988204953107018 13.07345706539454 1295.5137241786492 35.08175575408029 0.33937885406747065
1.225765613566543 13.077327433668891 1149.1781365154745 36.680347708948 0.34459150743955486
1.2527604266204946 13.080495459538543 1020.2852166181304 38.35340799911575 0.34993298556204006
1.27980075548191 13.082935500039271 906.7089386752705 40.10316732767285 0.35539981849831304
1.3068455919986455 13.084519172311362 806.81870091064 41.935114277671424 0.361006668107708
1.3338813825811555 13.085232078451785 718.6514305858988 43.85270999711544 0.36675533874630417
1.3608891837085377 13.085034656592518 640.6810341809677 45.86066872181303 0.37265372930517016
1.3878200161500263 13.0837746457992 571.8560028252366 47.96431002197828 0.3787117235000878
1.414677061595741 13.081488120573354 510.87025048359794 50.1683732794323 0.38493488709306134
1.4413997241147218 13.078036326381397 456.92473312288865 52.47810982131039 0.39133035734418065
1.467993843507735 13.073437513928885 409.0504923748593 54.899918861371745 0.3979097403564943
1.4944022441093463 13.067574586247952 366.55243706173553 57.439989022793725 0.4046820950658068
1.5206141390238024 13.060430520131137 328.8664142931305 60.10494692641226 0.41165719032388476
1.5465974567951324 13.051945403507611 295.3174714394753 62.901896618831515 0.4188455633482276
1.5723130785458728 13.042067884789509 265.488355837226 65.838462775353 0.42625858294343566
1.5977373500252918 13.030742121761259 238.94391294872938 68.92283806091558 0.43390851805269615
1.622824163370962 13.017922967190362 215.2556552910952 72.16383507986443 0.44180861226628443
1.647575877074854 13.003586484058015 194.11554989020377 75.5709433993846 0.4499731649897671
1.6719254066336608 12.987653338064899 175.24860750772282 79.1541120695623 0.45841645026692557
1.6958630359993077 12.970110298098872 158.37551087545467 82.92350463749204 0.46715162634242385
1.7193430450721467 12.950901430144006 143.29347277305516 86.89186880922759 0.476200293514121
1.7423290373613547 12.929961995544891 129.78999258544522 91.07080227774551 0.48557687864670246
1.7648087139672235 12.907322751761033 117.69203158672804 95.4743479120448 0.4953031225344863
1.7867352049661713 12.882885218792472 106.835216617543 100.11621796842998 0.5053967275859209
1.8080746586050027 12.856634415176883 97.09317108078186 105.01291177116073 0.5158832991398012
1.8287854170904063 12.82850258609651 88.33859242499655 110.18096697557007 0.526785369632288
1.8488659270700865 12.79854065766232 80.47354360459379 115.63798948968955 0.5381262289800673
1.8682527979663293 12.766636994258022 73.38713241366801 121.40422777715474 0.5499353652023228
1.886923040577603 12.732790108516737 67.01445693487582 127.50107849524343 0.562242490023555
1.9048467875003425 12.69697974556337 61.261306505621846 133.95099931831578 0.5750769715422351
1.921989988209669 12.65916665978103 56.08009237105784 140.77961585931942 0.5884749144787508
1.938304439120782 12.619296790266725 51.395822464184974 148.0146310564588 0.6024746887832704
1.9538031315168172 12.577445026864854 47.166390343727016 155.68457907501033 0.6171121931023394
1.968419934221616 12.533523549133067 43.3428837050244 163.82305827325797 0.6324348744918915
1.9821372640517323 12.487527406842243 39.88320059516701 172.46379847476604 0.6484841649796712
1.9949263579070668 12.4394589908858 36.747004002822905 181.64615305243743 0.6653134654182644
2.0067663277638683 12.389302716829503 33.90589983372398 191.4120793804148 0.6829770607564213
2.017615525733165 12.337035860051905 31.331231467937243 201.80760009654634 0.7015341693709914
2.027453639222968 12.282655603736174 28.994003123580576 212.88268944392482 0.7210475733356488
2.036266542938283 12.226197077455614 26.872236158275516 224.69274398429516 0.7415873355767456
2.0440141771702653 12.167608370065665 24.94515744975938 237.29898835094906 0.7632308202488164
2.050675217720921 12.106910645461555 23.19012408863937 250.76823285299957 0.7860604757447559
2.056251385761714 12.044170653375206 21.596059955821968 265.1735393154917 0.8101643768500465
2.060699691284531 11.979328170517032 20.14352975228544 280.5967014805526 0.83564243310358
2.0640080189261685 11.912436541609196 18.82284148557389 297.12734200730864 0.8626013126198949
2.066171979607288 11.843545743358765 17.620116806180338 314.8658555853519 0.8911616122218156
2.067168751866142 11.77266174557317 16.525509290078823 333.92164711351757 0.9214492512810661
