M[M_sun], R[km], Lambda[1], P_c[MeV/fm^3], rho_c[fm^-3]
0.24162668629717493 15.618656898711224 2160425.4255784233 3.5677272577965504 0.1711233750220791
0.25364226723961153 15.277373025932045 1723112.9320111775 3.784807280531413 0.1738880194220676
0.26603783008863674 14.981326471095217 1383202.7043996342 4.011375575715917 0.17666634802996695
0.2788121474452359 14.72361575227971 1116491.4613503758 4.247688618642138 0.17945705496501796
0.29196620412269475 14.498484608903151 905910.0689855623 4.494371376641126 0.1822667025226249
0.30550061643667314 14.301294627841333 738671.2183191598 4.751578082860221 0.185090970106481
0.3194163077413611 14.12819739542304 605139.2462140861 5.019993280167401 0.18793652612749714
0.333713646353415 13.975999241417016 497735.5678595915 5.299837890781339 0.19079993237808757
0.34839308282540227 13.842091051275801 411052.95559408516 5.591844152573723 0.19368755888988762
0.3634549571844918 13.724043869352839 340679.9344797027 5.896174766065669 0.19659438415805056
0.3789071361789843 13.620066603159193 283329.80224586173 6.213695681160744 0.19952812834948438
0.39473730673928675 13.528519168858066 236427.8368228622 6.544667392037049 0.20248502470914104
0.4109622041268656 13.447918258028515 197888.98789092095 6.889786130361154 0.20546868039056326
0.4275681008518974 13.377133061440679 166111.2053876901 7.249759657593202 0.20848221840938314
0.4445627268414872 13.314998088378305 139824.9245539054 7.624851422135676 0.2115212573108203
0.46194267667559724 13.260607487900163 118003.16708335692 8.01600144730665 0.21459182063036475
0.4797048038167992 13.213207391772322 99827.08330678735 8.423918721380346 0.21769562180125954
0.4978602430299377 13.172026214020834 84652.99529705568 8.849050251879248 0.22083021809362027
0.5163969097854906 13.13644075515926 71952.31031181265 9.292257010106455 0.22399884376790838
0.5353135099116545 13.105881158244232 61287.45481725674 9.754429380328533 0.2272045016706382
0.5546194284555047 13.07985350049387 52311.60706700834 10.236376733439725 0.2304485423895045
0.5742996602445204 13.057889444203434 44738.87160653068 10.738578685284011 0.2337277710283789
0.5943550187217755 13.039544066638943 38337.14892175576 11.26226297283093 0.23704816363805842
0.6147899611061135 13.024522002425565 32909.989627364455 11.808374935212315 0.24041143780846858
0.6355900036391868 13.012441759516953 28068.951933090204 12.377893301765878 0.2438192259947628
0.656760372202652 13.003034860943155 24376.17304659279 12.971518723822129 0.24726961144485632
0.6782903468075806 12.99598382497645 21033.359361444906 13.5905545516384 0.250767118814288
0.7001766108115635 12.991062104139857 18040.747679517837 14.236209233136565 0.25431451135645783
0.7224083130412082 12.988001147292692 15733.845797188866 14.909672096023796 0.25791377300368795
0.744993963384226 12.986642681860335 13637.819901015622 15.611987124448314 0.2615649456457735
0.767912678295305 12.986750123381812 11839.136181603813 16.344391614706133 0.26526963777664553
0.7911547378842023 12.98813032761251 10291.769836444895 17.108514872652577 0.2690326788932605
0.8147272387725748 12.990656642294175 8958.863601359133 17.905811468853887 0.27285650063815514
0.8386075777644066 12.994125643504205 7809.8482956002645 18.73766233967385 0.2767423262599453
0.8627845058105897 12.998397123423374 6816.477956433772 19.60538022378914 0.2806903555898626
0.8872594614710806 13.00333120187629 5921.015462235388 20.511065396650974 0.28470708487249746
0.9120170405882984 13.008828813027064 5212.772029886397 21.456511346469664 0.28879552618526516
0.9370349811086491 13.014723180637999 4566.754481708143 22.44322193979608 0.2929557624717734
0.9623120420041645 13.020914362229652 4005.9782648305736 23.473182304085846 0.2971912732145992
0.9878341442041598 13.027321868810098 3517.717566173338 24.548833095212512 0.30150831318883087
1.0135741883043752 13.03377463261184 3093.2242588954764 25.67213965813588 0.3059086880786494
1.0395354322864474 13.040227772204826 2722.418088985116 26.845016010748974 0.31039331137815673
1.0656841925445943 13.046554228527368 2399.133089691489 28.070580337738768 0.3149710851682919
1.0920135756078713 13.052685312780655 2116.5251146706437 29.35091373332851 0.319642637950651
1.1185089807093884 13.058523995775074 1869.2100602718494 30.68871808791846 0.3244122896123813
1.1451390252703717 13.063977822902396 1652.7182035032654 32.087447941386735 0.3292884703545058
1.1718999974554156 13.068994165885174 1462.7146973978383 33.54898299440447 0.33426848212478794
1.1987539168250139 13.073446558369099 1295.887749909708 35.07789319236224 0.3393660816230119
1.2256976562137651 13.077323060822252 1149.4879942155453 36.67623635351048 0.34457824484333754
1.252691008508957 13.0804880424565 1020.5537324640742 38.34900216123614 0.349919033182237
1.2797302501330903 13.082929543484523 907.064420362719 40.09847527292362 0.3553853028484331
1.3067723827908406 13.084523145797 807.0794361444601 41.93011822386189 0.3609915642801429
1.3338078443157058 13.085230069175564 718.8327845786631 43.847353934001376 0.36673941775677726
1.3608144547774566 13.085036884258745 640.8820116901763 45.85496387149889 0.372637140375402
1.387744817170811 13.083779761465147 572.0465283685232 47.95823201903785 0.3786944235416973
1.4145986837530262 13.081493790470649 511.02746914452143 50.161855481447894 0.38491662350483286
1.4413215887495885 13.078045697610051 457.07620102484435 52.47116257446813 0.39131128280726024
1.4679142763365582 13.073453783590313 409.1875930059738 54.89251140624482 0.3978898008194943
1.4943227985610013 13.067592949383183 366.68804185713685 57.43208810850985 0.40466123229907636
1.5205338081032824 13.060454121036358 328.9742939736364 60.096516587598934 0.4116353415764043
1.5465157748041187 13.051975386377762 295.4131060662174 62.89289793030469 0.41882266097049936
1.572232542443449 13.04209962519906 265.5727781730894 65.82885358207267 0.4262345539727254
1.5976551353912254 13.03078076359123 239.0255160460992 68.91257268042685 0.4338832837565462
1.6227354712071105 13.017943810923018 215.31934419883825 72.15286397410354 0.44178208763973714
1.6474936833353795 13.003637842073282 194.18207751665165 75.55921281234085 0.44994525820118514
1.6718429993418795 12.987711602072263 175.3104559784291 79.14162487401556 0.45838731778257785
1.695780633115159 12.97017262987238 158.43305322600014 82.9101390119736 0.4671209121739095
1.7192451989277067 12.950936717385542 143.3469774006661 86.87755595720085 0.47616788194633763
1.742248125634245 12.930041724893401 129.83655400098084 91.05553624136252 0.4855429173349763
1.7647288693650605 12.90740353359562 117.73142940017787 95.45798164183478 0.4952672112832349
1.7866568831895087 12.882979818584694 106.86676847849662 100.09873721424057 0.5053590048767612
1.8079965073099027 12.8567335503731 97.12839698769265 104.9942258943536 0.5158436196412342
1.8287087644056879 12.828612739959183 88.37157447626662 110.1609771117809 0.5267435761445637
1.848790303376921 12.798658490654699 80.50126536594365 115.61650605205683 0.5380818516112825
1.8681788465782574 12.76676488274273 73.41576692419395 121.38121168063533 0.5498885128642677
1.8868516814578935 12.732927249920868 67.03654037434899 127.47640053087233 0.5621929615459711
1.904776951973436 12.697125492591836 61.28578026863293 133.92460880368654 0.5750248684721749
1.9219226716092583 12.659325726491 56.098696176392586 140.75127056856695 0.5884196870731957
1.9382387025246763 12.619450359369107 51.41370858221592 147.984161262014 0.6024160786176891
1.9537506718358402 12.57765947368425 47.18297143218731 155.65189870618443 0.6170502605320632
1.9683610256960373 12.533711200551618 43.35774199029867 163.78796930828784 0.6323693280137177
1.9820820663958831 12.487728899473003 39.897023748623035 172.42597786832073 0.6484143333650895
1.9948765378514097 12.439669184417703 36.76200858646493 181.60546371395048 0.6652393492240208
2.006711335262297 12.389509189666871 33.920388333933 191.36825710784055 0.6828982809314454
2.017569806252465 12.337270187052319 31.341622146393256 201.76035344606524 0.7014503112268853
2.0274119725831476 12.282903533976661 29.004094954252054 212.83181569763607 0.7209585727601963
2.0362290464699937 12.2264553678922 26.881559904852686 224.63777231886883 0.7414923157443665
2.043979823789232 12.167880547003058 24.952250295716084 237.23965098481062 0.763129644588727
2.050646715274565 12.10719525559922 23.197531018522454 250.70402028373522 0.7859523031900804
2.0562205751827185 12.044446019731215 21.602135929315484 265.10400571143117 0.8100486688930725
2.060681701108027 11.979638783506902 20.15018036339924 280.5215017090564 0.8355190879757327
2.0640008222991795 11.912775980048481 18.829495827821425 297.04575621537714 0.8624691290183327
2.066164437673204 11.843881237938305 17.625681167101042 314.7772287213753 0.8910197380441517
2.067165249253791 11.773010593762695 16.529897342931665 333.8253947067138 0.9212972282931076
