M[M_sun], R[km], Lambda[1], P_c[MeV/fm^3], rho_c[fm^-3]
0.24162668629717493 15.618656898711224 2160425.4255784233 3.5677272577965504 0.1711233750220791
0.2536452804080613 15.277258905643613 1723124.6471655818 3.7848500304788724 0.17388855227953942
0.2660429070126901 14.981202546812865 1382853.9574333222 4.011465445041948 0.1766674340477348
0.27881983361462837 14.72343472359365 1116349.1804798227 4.247828648182177 0.1794586790966624
0.2919775810753912 14.498271753798923 888634.3519091127 4.49456524130718 0.18226886125067504
0.3055135982679786 14.301126558632859 738569.3394904089 4.7518323657507935 0.18509371684700537
0.31943246559905497 14.128014065142981 605002.6533204957 5.020309854841417 0.18793981071192667
0.33373307068643715 13.975803419802853 497569.09795539646 5.300225092354304 0.19080383085544372
0.34841612783448556 13.841856008723251 410920.14808711567 5.592302948250105 0.19369199786426697
0.363482061684086 13.723870044735849 340600.84086447995 5.896715463995464 0.19659946250743107
0.3789357387021705 13.619911685448406 283223.10158038914 6.214324825194167 0.19953386538553047
0.39477264908135756 13.528313085324013 236339.9999420199 6.5453843294173195 0.20249131128143108
0.41099968568297185 13.447753286688222 197811.68082413595 6.890604702377349 0.2054756516933536
0.4276094141585027 13.376966511703941 166031.38247740446 7.250687546374755 0.2084898945954754
0.4446092501473379 13.31481045571949 139756.31051141003 7.625886063514733 0.2115294937214698
0.46199074250222943 13.260467256746043 117934.45546921632 8.017160889011597 0.21460078984932088
0.4797607824353591 13.21309230021525 99779.00543411633 8.425212005451156 0.21770534548949405
0.4979201520878457 13.171906176084251 84609.68184758365 8.850472610123534 0.2208405165750358
0.5164632475843376 13.13631764467924 71914.10254501259 9.29383146216411 0.2240099280085499
0.5353835468724106 13.105780749284728 61251.549136200374 9.756166602453632 0.22721639561287185
0.5546947833648295 13.079751782383482 52285.38093360956 10.238282310704895 0.23046119721253258
0.5743805547609411 13.057800453870486 44711.52509189839 10.740655793119524 0.23374110670409037
0.5944410905712211 13.039471216493604 38311.99923745984 11.26453711004035 0.23706237248849635
0.6148812164545802 13.024481901916046 32887.5169831075 11.8108595376684 0.24042654833686924
0.6356892886949415 13.012401403329438 28278.24496560087 12.380602643629093 0.2438352682089761
0.656863471547178 13.003010166047458 24359.6382385543 12.97444036327651 0.2472863103379029
0.678399370453911 12.995968275001157 20856.193030431237 13.593729979537365 0.2507847987460814
0.7002907386496211 12.991046826755909 18163.060071005595 14.23965547736264 0.25433320739957826
0.7225301014019924 12.987999694757935 15721.295757434287 14.913407278606451 0.2579335223219902
0.7451214231224239 12.986642169978918 13626.936276127453 15.615994085397007 0.261585426572221
0.768046131681969 12.986763381451842 11829.494463085095 16.348724620693222 0.26529123672473576
0.7912952166709473 12.98814113428874 10284.221029636332 17.11319567243219 0.26905544003753695
0.8148724677647629 12.990685131206789 8950.96999482725 17.91086325319149 0.2728804709936172
0.8387590671650285 12.994150286202357 7803.1449191679385 18.743062701039094 0.27676713812619663
0.8629434676015764 12.998431630792773 6810.033411227966 19.611199385537436 0.28071646249867394
0.8874311148986541 13.00337243960954 5951.896707047119 20.51733136926914 0.2847345433360647
0.912190257778383 13.008869704480826 5208.0602062560565 21.463254058662635 0.28882439652627373
0.937215305265418 13.014770573132994 4562.823360093316 22.450413302499538 0.2929856312983025
0.9625028446796029 13.020979633825887 4001.9969379687404 23.480912571281216 0.2972226681265658
0.9880263610826646 13.027366623783482 3514.2811975932073 24.557138656485535 0.3015413072409335
1.0137732961651527 13.033824129557937 3090.1559238221207 25.680988361952164 0.3059428369308406
1.0397419936001373 13.040277405105849 2719.657745468377 26.854516043640203 0.31042920079175323
1.065897347545486 13.046612570113933 2396.7750588085073 28.080776173863292 0.3150088039996059
1.0922335339796074 13.052736500376321 2114.2536992498417 29.361769234543008 0.3196817110897115
1.118735979854244 13.058570575211853 1867.1394936492777 30.70036286946858 0.3244533673338624
1.1453706500004912 13.064020230034984 1650.8495939297752 32.09984399455533 0.329331061972231
1.172137486388557 13.069035704726767 1461.0862006259772 33.56227573666602 0.33431328003674843
1.1989978418515632 13.073492157763363 1294.466930064333 35.092145369357084 0.3394132097085599
1.2259427634517497 13.077365684052403 1148.1568245437231 36.691406603486854 0.3446271817214571
1.2529465174542482 13.080511416879428 1019.4779931843722 38.36518105945618 0.3499700578004094
1.2799930986516357 13.082945041498574 906.0450826939465 40.11578838781624 0.3554388638419729
1.3070460459649704 13.084549980365914 806.1733192640112 41.9485531446044 0.36104729583842576
1.3340804399707176 13.085238683947821 718.0229009673392 43.86711736693469 0.36679816490034994
1.3610912221304916 13.085030205588115 640.1416356062128 45.87601440221043 0.37269835245921273
1.3880326379763075 13.083777035605728 571.3466130183436 47.98065956924955 0.37875825958937054
1.414877169147696 13.081450615439115 510.42894529763004 50.18590600166898 0.38498401571291446
1.4416103856623197 13.078003966893329 456.5196658218941 52.49679788176489 0.39138166775637756
1.4682058177758364 13.073399092631146 408.67555040300067 54.919845022377814 0.3979633779982807
1.4946171075440355 13.067522570598978 366.2350515303338 57.46124275121567 0.4047382166186155
1.520830600478458 13.060366164736879 328.5841231759083 60.127624993988306 0.41171596463684945
1.5468179050800348 13.051866933556006 295.04929306888454 62.9261037624257 0.418907172453228
1.5725336152902796 13.041976599222393 265.24440641729603 65.86431242378976 0.4263232231715003
1.59794743043205 13.030630136647508 238.71439270790884 68.950453135881 0.43397640126273845
1.6230562534173691 13.017812600626618 215.04814019114025 72.1933488792783 0.4418799671984586
1.6477982644912785 13.003449958960916 193.9294199166207 75.60250057268945 0.45004823875720745
1.6721464118284124 12.987501813132058 175.0906978781952 79.18770488145823 0.45849482191275204
1.6960830534604172 12.969938441386496 158.22805497082655 82.95946090017068 0.46723425372933775
1.7195631961038393 12.950709663889114 143.1567608073191 86.93037365089701 0.4762874880357597
1.7425443745282734 12.929757506405108 129.67108370766613 91.11187172445062 0.48566824304850137
1.7650241067108947 12.907090583711547 117.5729297715284 95.51837767863232 0.4953997336737484
1.786936136771198 12.882605151960034 106.73325818499899 100.16324639528983 0.5054982128908139
1.808284871028149 12.856361426138788 97.0037680114041 105.06318276913294 0.5159900497093673
1.8289888815281625 12.828203854509896 88.25823314049151 110.2347465949488 0.5268978085106126
1.8490686661371307 12.798220812530113 80.39811250294606 115.69578794371665 0.5382456206413743
1.8684406200492518 12.766263630856212 73.32267235128899 121.46615024133905 0.5500614166473504
1.8871167001467293 12.732421300717865 66.95169756698319 127.56727713086057 0.562375044059482
1.905034367775741 12.69658609319075 61.20339692183833 134.0220016340308 0.57521715215948
1.9221717390853152 12.658746283027437 56.027940431452556 140.85587819591098 0.5886235025115321
1.9384798120999844 12.618845203939175 51.349137400933 148.09661020424065 0.6026323797527458
1.9539701928434274 12.576968140154806 47.125023906287005 155.77250665975356 0.6172788246771032
1.9685782879124927 12.533013720539817 43.30297904266488 163.9174672403041 0.6326112312269269
1.9822887789139687 12.486991695907188 39.84532268200294 172.56555829659715 0.6486720533644936
1.9950690561145537 12.438887169672576 36.71445436218102 181.75563268207088 0.6655128840816628
2.0068991258251576 12.388702749855701 33.87428446497729 191.52998991603926 0.6831890299404375
2.017738060550461 12.336403162078149 31.301457555030055 201.9347259720944 0.7017598052601557
2.0275656181593025 12.281997492177208 28.967561326816234 213.01957625730975 0.7212870486259879
2.0363671565512305 12.225501050195925 26.84818848951425 224.84065904850922 0.7418430102865978
2.044101529305901 12.166880411249174 24.922393947234255 237.45865241269306 0.7635030621410804
2.0507507920745445 12.1061454393076 23.169288408394888 250.94079970640678 0.7863508400299675
2.0563137836338417 12.043369027197228 21.577046507870662 265.3604746942983 0.810475177708115
2.0607489858725696 11.97849277016783 20.125895927619077 280.7990560505422 0.8359743416959766
2.064043008923603 11.911569984559394 18.80753765180025 297.3468838845159 0.862957009798729
2.0661895577953704 11.842634734589002 17.60631545846089 315.1043481341831 0.8915433918846203
2.0671755584316713 11.771723520731708 16.512028440771132 334.1806636714724 0.9218583472442592
