M[M_sun], R[km], Lambda[1], P_c[MeV/fm^3], rho_c[fm^-3]
0.24162668629717493 15.618656898711224 2160425.4255784233 3.5677272577965504 0.1711233750220791
0.2536476307913693 15.27716871478586 1723015.524388643 3.7848788216773777 0.17388891114793947
0.2660463483802787 14.981118339923885 1382855.3288507955 4.011525970971336 0.17666816546787148
0.27882697760371167 14.72323942207902 1116260.396676731 4.24792295764469 0.1794597729443062
0.291983362850539 14.49821590629548 905729.8617193864 4.494695810208895 0.1822703151656991
0.3055238292628307 14.300965309370753 738444.4051975523 4.7520036288459035 0.1850955668152931
0.31944385716091867 14.127875346296134 594684.9575021116 5.020523074907395 0.18794202295240658
0.3337450952489444 13.975664108744445 497529.4401004562 5.300485884457895 0.19080645659919454
0.3484317676575811 13.841767916623118 410845.728983126 5.592611964767775 0.19369498768408291
0.3634986317691355 13.723736882506321 340498.24134372146 5.897079649268736 0.1966028830125875
0.378956243909562 13.619786064400424 283167.11128857225 6.214748588172221 0.1995377295936465
0.3947950508614861 13.528204757620118 236289.7522811587 6.545867231362895 0.2024955456791252
0.4110253092925961 13.447631113117597 197748.9739559482 6.891156068118084 0.20548034735537335
0.4276382645463781 13.376841650809695 165975.1110006531 7.251312552006088 0.2084950651068882
0.4446407888666757 13.314702829315761 139722.12270313993 7.62658298272579 0.2115350416465074
0.46202555748848784 13.260362370822468 117900.0510030485 8.017941880946221 0.21460683145334006
0.47979779081283724 13.212982747863245 99742.69735467587 8.426083162740177 0.21771189537445193
0.49796205745114974 13.171808376718733 84580.53991603348 8.851430721611852 0.2208474537115808
0.5165064992812805 13.136253592232688 71888.26193745116 9.294892037303494 0.22401739452365033
0.5354321187418343 13.105695970919436 61230.84540718688 9.757336835308415 0.22722440764643606
0.5547446776237985 13.079689709819423 52259.868616925065 10.239557309802741 0.23046961059570284
0.574435451869382 13.05773780671799 44694.071537011834 10.742055010280536 0.23375009011168732
0.5944976401399594 13.039431042929186 38295.651007031556 11.266069070720983 0.23707194420655175
0.6149437214307492 13.024419943483185 32871.10589766872 11.812533295934022 0.24043672757972823
0.6357549082421073 13.012377870294404 28264.89181450226 12.382427818574657 0.2438460752052622
0.6569324329329153 13.002966763989992 24346.956224273777 12.976408573148367 0.24729755981842802
0.678473199072973 12.995941795076412 21008.46974710737 13.595869181978763 0.2507967092521485
0.7003685620963804 12.99102608421056 18154.390734831697 14.241977147576238 0.2543458025737962
0.7226055877248613 12.988014533944739 15712.641979555694 14.915923629313184 0.25794682721672224
0.7452079162961804 12.986634761226926 13619.921618404178 15.618693555118522 0.2615992244708083
0.7681355842918984 12.986768848128248 11822.425451175777 16.351643777981504 0.26530578799166793
0.7902479756621802 12.987652955746933 10344.904902814344 17.057083717223676 0.3834073392452099
