M[M_sun], R[km], Lambda[1], P_c[MeV/fm^3], rho_c[fm^-3]
0.24162668629717493 15.618656898711224 2160425.4255784233 3.5677272577965504 0.1711233750220791
0.2536442542372393 15.277288231838696 1723226.6969740512 3.784824620739413 0.17388823555939514
0.2660404921811432 14.981269957523748 1382947.244519545 4.0114120282843055 0.1766667885377431
0.27881601133736944 14.723478949286397 1116427.941436102 4.247745416808189 0.17945771373815114
0.2919707107249633 14.498397244935989 905876.4100215818 4.494450010821609 0.18226757813247463
0.30550619664882994 14.301218098805345 738650.586053428 4.75168122303637 0.18509208421722942
0.3194234098385583 14.1280937021428 605123.7021661589 5.020121686082591 0.1879378583884274
0.3337219892288267 13.975933324747405 497679.6624566013 5.299994942990678 0.19080151363323888
0.3484026118566787 13.842014055822158 410998.46767827455 5.592030243183551 0.19368935936772946
0.3634641341884287 13.723996787225653 340646.33428711974 5.896394075830106 0.19659644396176906
0.3789195824234695 13.619979271529663 283304.84169914963 6.21395086400685 0.19953045530978072
0.39475112937253803 13.528448666713805 236404.12485088198 6.5449581830056385 0.20248757455309624
0.4109777553431844 13.44785051919639 197867.6157302772 6.890118143104227 0.20547150795040703
0.427585078080638 13.377044935409659 166068.3263391709 7.2501360076307355 0.20848533185679338
0.44458088616081226 13.314931713038138 139799.34074684727 7.625271069262542 0.21152459797178236
0.461962582608321 13.260559234182619 117975.00930542336 8.016471711095882 0.21459545850096642
0.4797275541720353 13.213141937911836 99809.97623903445 8.42444326881604 0.21769956566467208
0.4978849414568527 13.171975783486346 84639.9345597849 8.849627148863767 0.2208343950742773
0.5164241181781467 13.136393693068255 71936.74242170116 9.292895592525397 0.2240033394279487
0.5353431013320026 13.105833245681923 61273.82068415392 9.755133977858637 0.22720932571829447
0.5546486617508791 13.079827035821724 52298.67733183492 10.237151938843587 0.2304537049550856
0.5743318719096306 13.057838852140954 44728.822931893956 10.739421130291413 0.23373317978628325
0.5943892755712183 13.039550619784404 38324.945082408296 11.263185326435265 0.23705392652006949
0.6148268557186524 13.024499845676612 32899.94916166772 11.809382646133997 0.24041756637220096
0.6356315263193199 13.012431070476707 28290.539456397837 12.378992158652638 0.24382573240792774
0.6568023668717179 13.003011356441585 24369.780187507375 12.972703680556089 0.24727638417163325
0.6783345768061046 12.99597439830678 21026.723004793643 13.591842434631157 0.2507742894017472
0.7002240762429152 12.991052698855755 18171.660773006774 14.237606947671011 0.2543220940260227
0.7224580325810946 12.987996036839249 15728.864704146603 14.911186991054752 0.25792178282476064
0.7450453112322933 12.986656787167274 13633.213982015897 15.613612240530848 0.2615732521612053
0.7679660801208685 12.98676207489919 11835.484256103276 16.34614895894743 0.2652783976969313
0.791212006896517 12.988144376513008 10288.289441614505 17.11041326462162 0.2690419101305565
0.8147873116297814 12.990660114657844 8955.708934487537 17.90786031283887 0.27286622225636453
0.8386692123784354 12.99413417151377 7807.005094934125 18.739852548322123 0.27675238913543976
0.862851013498939 12.99840266276484 6814.318461304409 19.60774027459066 0.28070094364940285
0.8873306842054098 13.003363244151812 5955.128018268793 20.51360664822546 0.28471822103092415
0.9120870740336626 13.0088536500255 5210.906408472281 21.459245935237714 0.2888072349024686
0.937107296502991 13.014744782046686 4565.0602936234845 22.446138474610304 0.29296787609696856
0.9623919880722185 13.020946882926989 4004.3149841492645 23.476317384565416 0.2972040057079499
0.987913131751187 13.027342702062272 3516.3762012159455 24.552201477525003 0.3015216941727122
1.0136554213664681 13.033792091503901 3091.642409958524 25.67572830393775 0.305922537353933
1.0396196645143811 13.040249178696971 2721.2949100163696 26.848868790862735 0.31040786648765817
1.065771059990362 13.046574986311457 2398.1139030837235 28.074715286398234 0.3149863821413968
1.092103096983754 13.052705330447653 2115.6683626326626 29.355316195824276 0.31965848411251
1.1186012929079856 13.058543145455555 1868.4978340457465 30.693440623702994 0.3244289486633739
1.1452333868390423 13.064001450825652 1652.0193373459863 32.09247513741591 0.3293057433049032
1.1719962333586258 13.069011800156812 1461.9461872818174 33.55437381727407 0.3342866497536756
1.1988520154575462 13.073467304858355 1295.4108870017687 35.08367308470693 0.33938519416006346
1.2257988598799925 13.077330021814989 1148.990192114252 36.6823885429436 0.3445980908541103
1.2527945861868692 13.080492541885619 1020.1019357111243 38.35558061890264 0.3499398269334674
1.2798374513394557 13.082936232950829 906.643707699387 40.10549642796467 0.35540702395651375
1.3068798668347859 13.084529095429827 806.6722383695954 41.93759428722579 0.36101416555231064
1.3339190371913228 13.085233243345286 718.5604345265904 43.85536872163437 0.36676324185056547
1.3609275031329144 13.085034711486088 640.5894727620677 45.8635005902648 0.3726619639939477
1.3878578455520014 13.083776697191665 571.7395651290694 47.96732713039105 0.37872031116457433
1.414715365201949 13.081483732909323 510.7825923559426 50.17160871219073 0.38494395313220253
1.441437967815079 13.078030962044341 456.82453608032426 52.48155844214057 0.39133982596489375
1.468033679428223 13.07343337158472 408.9788860369094 54.90359594075522 0.3979196383928863
1.4944420716067714 13.067566830210746 366.49754831911355 57.44391106815868 0.4046924514264273
1.5206536870113867 13.060420720359657 328.8056354085057 60.109131792884305 0.41166803616209025
1.5466378541343953 13.051932042151407 295.2666820941415 62.906363631032086 0.4188569322494213
1.5723548966446923 13.042051151333483 265.4431736882457 65.84323286148216 0.4262705111310097
1.5977782542430445 13.030723100402103 238.89938900406108 68.9279339004949 0.4339210446146895
1.6228652634620064 13.01789882349949 215.2127098063152 72.16928126669328 0.4418217794050296
1.6476169857459195 13.003561062113247 194.08622171995074 75.57676662144925 0.44998701829705834
1.6719668919184758 12.987624230357053 175.21918973559576 79.16031090024799 0.4584309120679961
1.6959034245331606 12.970075606536229 158.34896878804318 82.93013955756564 0.4671668733694289
1.7193834073505643 12.950865327363022 143.2673140264181 86.8989739742924 0.47621638321718507
1.7423641923247568 12.929917104861108 129.7737920487146 91.07838064524343 0.4855937377248885
1.764848727233965 12.907277721402286 117.66938070222555 95.48247248890237 0.49532094967024165
1.786775227712123 12.882839755285662 106.81176097588634 100.12489582900311 0.5054154540325594
1.8081141994531709 12.856583379210479 97.07702287791714 105.02218791555195 0.5159029970518596
1.82882364552122 12.828447836982736 88.32507890946046 110.19089048806099 0.5268061170571751
1.848902912372367 12.798482557650841 80.4560132762767 115.64865449827737 0.5381482592075982
1.8682797012276482 12.766542814489224 73.38304144712893 121.41565368646071 0.5499586241665411
1.8869586128427698 12.732722143382569 67.00316819914374 127.51332592718833 0.5622670649968511
1.904882107356418 12.696906759275132 61.25325425561771 133.96410049319786 0.5751028373293311
1.9220236671526867 12.659089753721835 56.07041276298248 140.79368751308763 0.5885023314114708
1.938337491158609 12.619202606813777 51.39018080742373 148.02975745882046 0.6025037851707985
1.9538331805162887 12.577358870415187 47.158971084709165 155.7008029587343 0.61714293898603
1.9684493894084012 12.533428952652697 43.336847398458694 163.84047795659632 0.6324674146051352
1.9821651684774968 12.487427898550914 39.876434055658756 172.4825743538445 0.6485188325874774
1.9949559424081487 12.439352957034867 36.743431280540676 181.6663531926338 0.6653502602537229
2.0067905970734805 12.3891935557215 33.90045644662208 191.43383496153737 0.6830161710255243
2.0176397909044264 12.336918189334407 31.32688528317687 201.8310558254033 0.7015758009759957
2.027473626698112 12.282534470159685 28.988687969162985 212.90794597143002 0.7210917581194691
2.0362843368893313 12.226072279880377 26.86784002490422 224.72003508755625 0.7416345088984414
2.044029406830152 12.167474230378065 24.939845391855936 237.32844698812073 0.7632810499313106
2.050689057479214 12.106768454140944 23.186136953410493 250.8000718599334 0.7861140486662507
2.0562618089697677 12.04402283260842 21.59219267596741 265.2080603615446 0.810221821876309
2.0607089037089095 11.979174498065221 20.14049734509761 280.6340357828502 0.8357036700488308
2.0640150001898325 11.912278396682906 18.820158090903504 297.16784700621184 0.862666937975849
2.0661758063026427 11.843378616270998 17.617363936630912 314.90985654486224 0.891232049103669
2.067168204556897 11.77248691281087 16.522676266145133 333.969434248905 0.9215247272442012
