M[M_sun], R[km], Lambda[1], P_c[MeV/fm^3], rho_c[fm^-3]
0.24162668629717493 15.618656898711224 2160425.4255784233 3.5677272577965504 0.1711233750220791
0.2536439263189174 15.277300230726802 1723184.5253434428 3.7848186618065567 0.17388816128417175
0.26603977966653597 14.981259526498024 1382968.1582540385 4.011399501394724 0.17666663715767536
0.27881497617165263 14.72354310686453 1116473.9858689997 4.247725898133587 0.17945748735093978
0.29196940103995983 14.498417663598952 905896.6630398441 4.494422988152202 0.18226727722877914
0.30550416620285 14.301256437509792 738637.9933238594 4.751645778798992 0.18509170135181938
0.31942086048379204 14.128154274984285 605077.5582885209 5.020077559160657 0.18793740055458089
0.333718913963447 13.975968826154222 497684.224436189 5.299940971611495 0.1908009702310052
0.34839940391329594 13.842040107975283 411013.6024691196 5.591966292568023 0.19368874062793204
0.3634609773281027 13.724013662252469 340647.9873812307 5.896318709202814 0.19659573610245626
0.3789151831640656 13.620010868187084 283311.18411625177 6.213863169290966 0.19952965563956318
0.3947465034814226 13.528482452145115 236403.40088774194 6.544858251224925 0.20248669828638058
0.4109719804184554 13.447880272591274 197882.45696891804 6.890004045037769 0.20547053624339368
0.42757901846054946 13.377075028977996 166089.64503058605 7.250006672558335 0.20848426190088518
0.44457434268191964 13.314955892426829 139808.49580775405 7.625126854629081 0.21152344993057032
0.46195490822383184 13.260589163825557 117975.93305541911 8.016310101398556 0.21459420831930176
0.4797200073839005 13.213158709833031 99812.66544090389 8.42426300380312 0.21769821032378078
0.49787665801753317 13.171994624706384 84647.6904299346 8.849428893180564 0.22083295961842278
0.516414854200024 13.136412400492278 71942.1176876152 9.292676137706545 0.22400179445234258
0.5353314956829043 13.1058599566036 61278.9092371155 9.75489183589208 0.2272076678862182
0.5546385721036858 13.079834042940274 52301.83753034903 10.236885531297133 0.23045193078475215
0.5743214639229486 13.057842968834512 44731.5239369513 10.739131614695209 0.2337313210064749
0.5943759757527747 13.039569841868998 37996.69714598978 11.262868348794923 0.2370519460380365
0.6148140132139498 13.024508612547564 32902.75358986395 11.809036333832102 0.24041546021559612
0.6356178686122375 13.012458144259947 28293.76831970575 12.378614522241236 0.2438234963947141
0.6567879540650635 13.003015504203107 24371.644610453604 12.97229645420561 0.24727405663280494
0.6783204894764213 12.995973076398132 21029.133777327963 13.591399835499422 0.2507718251283611
0.7002070995884149 12.991067555315048 18173.539175982307 14.237126602529823 0.25431948813018845
0.72244121243861 12.988003509396448 15730.833435779688 14.910666374187997 0.25791903012713807
0.7450280452101927 12.986639377107808 13634.763320141354 15.613053743690726 0.26157039749582417
0.767947638227939 12.986748543674715 11836.946946166323 16.345545018735418 0.26527538720644783
0.7911918656821122 12.988137228462946 10289.329227172579 17.109760849877333 0.2690387376585812
0.8147653259049471 12.990670619424703 8957.016034702068 17.907156191435316 0.2728628812506517
0.8386482674342892 12.994121831407288 7807.980610779177 18.739099843355064 0.2767489308455761
0.8628278710093511 12.998397929225266 6815.038823742779 19.606929198824336 0.2806973048639581
0.8873019484487066 13.003355352872033 5955.607104730955 20.51273329783149 0.28471439387408265
0.9120630958669544 13.008846038283348 5211.56591540113 21.458306139056855 0.28880321096737493
0.9370827719193459 13.014736774643385 4565.583508604786 22.44513614754824 0.2929637130009912
0.9623606108516233 13.020934884648288 4004.6547761198476 23.47523994781806 0.29719962991718124
0.9878853754954899 13.027328925238566 3497.5225631265926 24.551043859521194 0.30151709550593014
1.0136260711791076 13.033795037413146 3092.075312863688 25.67449498573482 0.3059177777414642
1.0395909307959204 13.040236124236426 2721.6813786273733 26.84754469452186 0.31040286429011177
1.0657413625490415 13.04656820237172 2398.5262529145257 28.073294213662855 0.3149811249754188
1.0920728640295 13.052700271411023 2115.99931698261 29.35380318331773 0.3196530381964809
1.1185693839343696 13.05853286111531 1868.7175890933063 30.691817607150124 0.32442322336731483
1.1452004303288321 13.06399084021193 1652.2193569069482 32.090747414102935 0.3292998070177737
1.1719633255038198 13.069000302078328 1462.176013651626 33.552521120730034 0.3342804059753012
1.1988185418366002 13.073462816266622 1295.5710610209303 35.081686670349875 0.33937862562630283
1.225764750788773 13.077330483132213 1149.160154103909 36.680274175305264 0.3445912702314061
1.2527596505305973 13.080495562743357 1020.2525770453517 38.35332971714416 0.34993273905961614
1.2797993438379143 13.0829333923243 906.7126431507322 40.103083407620986 0.3553995588777084
1.3068440957099943 13.08452193445419 806.8366820082771 41.93502492027215 0.3610063979667524
1.3338767894243106 13.085238877974843 718.6247704823793 43.85261420053139 0.366755053989314
1.3608881717663122 13.085035402617898 640.6860469790211 45.86056668676879 0.37265343260112194
1.3878185190007393 13.083775559388734 571.8627309812301 47.9642013126558 0.3787114140782639
1.4146756399813678 13.081487222878028 510.86838030929914 50.16825670380933 0.3849345604353189
1.44139858125022 13.078036805719826 456.93246774651976 52.47798556444605 0.3913300161813862
1.4679928644035725 13.073439650509354 409.05194563228514 54.89978637307541 0.39790938372182805
1.4944010740050067 13.067574578882173 366.5674438260371 57.4398477083085 0.40468172191770835
1.5206133430123119 13.0604321166495 328.8730973018585 60.104796142425464 0.4116567995399169
1.546595992930728 13.051946663343005 295.3197537932499 62.90173566908626 0.4188451537183298
1.5723115535116075 13.042068392036676 265.4886261535759 65.83829090581723 0.426258153162504
1.5977358825137074 13.030742734597943 238.94477757631256 68.92265445445933 0.43390806671241733
1.6228251419482822 13.017922941624807 215.26327540522317 72.16363885038938 0.44180813784614326
1.6475745519401206 13.003587495368283 194.12028219954712 75.5707335853414 0.4499726658471305
1.6719237545617247 12.987654711838603 175.24806713766583 79.15388872234641 0.4584159292004262
1.695862404059729 12.970110962834552 158.379626604517 82.92326557803244 0.46715107698448194
1.7193415084757033 12.950902100088765 143.29305868355925 86.8916128069284 0.4761997137948689
1.7423275645969623 12.92996293679628 129.791385383841 91.07052922604758 0.4855762712071813
1.7648071764505153 12.907319454520962 117.68894694306375 95.47405518058467 0.49530248021629897
1.786733396774364 12.882887277883336 106.83528494606155 100.11590530231939 0.5053960528660189
1.8080732435682922 12.856636033837399 97.09285210080948 105.01257754909292 0.5158825894185397
1.828784247815668 12.828504181745854 88.33862353010781 110.18060942909247 0.5267846220977134
1.8488647663014433 12.798543489724155 80.47205531650512 115.63760522749594 0.5381254352269741
1.8682516937198383 12.766639154000424 73.38737115303019 121.40381610011389 0.5499345271787304
1.8869218041789304 12.732793351574825 67.01370940082164 127.50063709208065 0.5622416041309293
1.9048454905577408 12.69698260406366 61.2628774163008 133.95052728245795 0.575076039596886
1.9219888461738144 12.659170436922697 56.08074503346275 140.77910885780676 0.5884739266470013
1.9383049760270283 12.619299126047498 51.398241753552085 148.0140860531863 0.6024736404423602
1.9538012934237516 12.577448735030961 47.16712917971562 155.6839945303675 0.6171110853317275
1.9684193749974412 12.533526671133 43.343609598368374 163.8224306449994 0.6324337020770886
1.9821363288452296 12.487531666965578 39.88330214082452 172.46312198412372 0.6484829159136661
1.9949264743771407 12.439461898037955 36.74820640847004 181.64542524712246 0.6653121397107916
2.0067652589592018 12.389307492870252 33.90722179203017 191.41129553426936 0.6829756516268047
2.0176146075677104 12.337039694229047 31.330559851475048 201.806754996074 0.7015326694010154
2.0274528899263484 12.282660433305992 28.99486013541237 212.88177946285091 0.7210459813782024
2.036265615780976 12.226201748510766 26.87272834651506 224.6917607001653 0.7415856359467184
2.0440136298730374 12.167613854079958 24.94464816559436 237.29792697354716 0.7632290105028463
2.050674770639426 12.10691518948907 23.190087578419426 250.76708571434474 0.786058545547334
2.056251105503582 12.044175475611082 21.594981560973814 265.1722955472151 0.8101623071473728
2.0606992324846356 11.9793342969477 20.143332927092608 280.59535635515255 0.8356402267848487
2.0640077190616974 11.912442314411283 18.823092510494654 297.12588264718767 0.8625989481950093
2.0661715403364265 11.843551711821103 17.61977373228152 314.8642702721439 0.8911590744471768
2.0671678556398616 11.772668359216588 16.525110431205125 333.91992539154217 0.9214465319587363
