M[M_sun], R[km], Lambda[1], P_c[MeV/fm^3], rho_c[fm^-3]
0.24162668629717493 15.618656898711224 2160425.4255784233 3.5677272577965504 0.1711233750220791
0.25364409574547553 15.277274780489867 1723231.9381910851 3.7848205947123126 0.17388818537690956
0.26604000856833726 14.981259793412875 1382949.4163721537 4.011403564752926 0.17666668626096121
0.2788151095981145 14.723513533274602 1116510.4247885137 4.247732229418633 0.17945756078430528
0.2919693643043386 14.49842936847655 905896.1012440166 4.4944317535066425 0.18226737483303515
0.30550466953919514 14.301237782105872 738653.0928738026 4.7516572758526445 0.18509182554194129
0.3194215917844714 14.128138612813862 605111.1066108802 5.020091872608506 0.1879375490621268
0.3337188438413405 13.975955103369632 497678.48719802796 5.29995847829324 0.19080114649424154
0.3484004436449378 13.842031298512314 411008.3011826398 5.591987036198402 0.1936889413282623
0.3634644205034846 13.723951668322817 340651.8579918312 5.896343155822661 0.19659596571028332
0.37891648245972165 13.620006599252019 283303.3628254149 6.213891614744845 0.19952991502785197
0.39474886627311095 13.528477784234026 236417.1878006071 6.544890665984043 0.20248698252002786
0.4109730450667386 13.447900036007846 197861.08640469998 6.89004105487431 0.20547085143469224
0.42758144356188815 13.377061131086213 166076.78790950822 7.2500486247741724 0.20848460896081536
0.4445765100694147 13.314959614598902 139806.0749286007 7.625173633277156 0.21152382231868755
0.4619576502847548 13.26057839658964 117982.89404032807 8.016362522418808 0.214594613838274
0.47972034665158436 13.213175664545771 99811.83517531678 8.424321475973477 0.21769864995275928
0.49787991744279825 13.171983236121513 84645.83345388368 8.8494932009088 0.22083342523385177
0.5164177901895624 13.136400806824176 71939.49774988367 9.292747321702747 0.22400229559211363
0.5353361450542239 13.1058441214363 61277.22022026642 9.754970378809942 0.2272082056326091
0.5546420998760574 13.07983023932006 52299.58748866329 10.236971945118723 0.2304525062670938
0.5743252263950231 13.057852991863609 44731.126522537066 10.73922552395461 0.2337319239330097
0.5943812586262872 13.039526821502406 38328.92626381906 11.262971165765896 0.23705258844033175
0.6148184270009619 13.024501737389684 32901.31545594293 11.809148665917684 0.2404161433820984
0.6356219009831358 13.012438547238043 28292.300928758254 12.378737014739178 0.2438242216818837
0.6567926805833154 13.003014132424713 24371.248945074633 12.972428544610391 0.24727481160739245
0.6783246766588478 12.99597266677169 21028.810196760394 13.591543399543578 0.25077262445449583
0.7002116946740782 12.991077946358644 18172.284041918632 14.237282409992632 0.25432033339327836
0.722446794063392 12.988011631966666 15730.003869287606 14.910835244308894 0.25791992300712335
0.7450335682993134 12.98665350482829 13634.249308024193 15.613234900671696 0.2615713234501447
0.767953265010626 12.98676050954518 11836.337311491972 16.3457409158449 0.2652763637044059
0.7911980676753718 12.98813614487769 10289.205991225777 17.109972470298352 0.26903976669702795
0.8147747435061513 12.990659412127314 8956.678287970235 17.90738458353526 0.27286396495483517
0.8386540998131512 12.994127711643474 7807.5159493594565 18.739343994119725 0.27675005259201274
0.8628360168190723 12.99840281719045 6814.920550571856 19.60719228283615 0.2806984851560007
0.8873151973027332 13.003352006124919 5955.497792543736 20.513016581327097 0.2847156352662842
0.9120709951033366 13.008842178974705 5211.319220977075 21.45861097498269 0.2888045161865328
0.9370916205861123 13.014738351347715 4565.518753861146 22.445461266062853 0.29296506335820655
0.9623699196384259 13.020943409290968 4004.62976779687 23.475589428960777 0.29720104926394275
0.9878947579928483 13.027329726924417 3516.6427542920846 24.551419348289926 0.30151858714455543
1.0136367653725518 13.033785975335073 3091.9243031875117 25.674895028655907 0.3059193215841406
1.0396005038899976 13.040242318283246 2721.4980725153364 26.847974182236094 0.3104044868173585
1.0657509443085003 13.046569836116554 2398.3979446290596 28.07375515661127 0.31498283020381834
1.0920821365654012 13.052696366589185 2115.8521986610826 29.35429394782903 0.31965480464739066
1.1185794000735259 13.058537665834434 1868.6746069925007 30.692344052488686 0.3244250804373594
1.1452114980620958 13.063988300813238 1652.1567233992735 32.09130782205317 0.32930173252429273
1.1719737270866535 13.06900226608526 1462.0559887545767 33.5531220648399 0.3342824312189114
1.198830655784724 13.073456933410927 1295.5542379837 35.08233098696437 0.33938075620667235
1.2257739914627648 13.077332887683005 1149.0085163147216 36.680959994660334 0.34459348257848305
1.2527710004884902 13.080497260665869 1020.2002133880477 38.35405982247765 0.34993503809131865
1.2798115377502643 13.082939392946304 906.6985797209928 40.10386609737019 0.3554019802583127
1.3068557478549447 13.084522937738113 806.7786638582141 41.93585832226523 0.3610089174672373
1.3338932095617528 13.085232818801337 718.6112515310701 43.85350765860512 0.3667577098087716
1.36090092640255 13.085035998201995 640.6403183775615 45.861518328826655 0.3726561998469554
1.3878314463792736 13.083773765321823 571.8283083614037 47.96521520344539 0.3787142999387421
1.4146884377568338 13.081488097121523 510.84140628595605 50.16934396098044 0.3849376070497305
1.4414114065985415 13.078033316948147 456.89688586947545 52.47914446200517 0.39133319807988215
1.4680051088556114 13.07343814394793 408.9931023675197 54.90102204249654 0.39791270992167943
1.494414232705812 13.067572135274858 366.5512876789322 57.44116569672183 0.40468520213326736
1.5206259942704379 13.060426555914665 328.8509265058971 60.10620244983271 0.41166044423986325
1.5466095701231184 13.051941554173444 295.30220779409217 62.90323678928808 0.4188489741885878
1.5723251410768182 13.042064254574978 265.46558657477834 65.83989387146964 0.42626216157544644
1.5977495515060236 13.030736412053086 238.9277160980943 68.92436688671852 0.4339122762030263
1.6228365580974604 13.017916484920317 215.25002079842506 72.16546901366925 0.4418125625958975
1.647588411932444 13.003578212283168 194.10301968988426 75.57269044776847 0.44997732117647016
1.6719379513504746 12.987646159114423 175.240693120639 79.15597180455771 0.45842078900739314
1.6958745166796614 12.97009923433692 158.3668507306275 82.92549520369457 0.46715620065775976
1.7193551754356935 12.950890766003932 143.28226401490866 86.8940004535139 0.47620512063964054
1.7423408344529656 12.929950013757976 129.78108028494793 91.07307588739822 0.48558193659129406
1.7648214834984397 12.907305704651984 117.68577394330383 95.47678538949921 0.4953084709042835
1.7867477215207652 12.882869903723 106.82544770589502 100.11882143606493 0.5054023457561289
1.8080862653998597 12.856618022581761 97.08903564832741 105.01569472923124 0.5158892087570973
1.8287968434854263 12.82848563987004 88.33381632727945 110.18394414958466 0.526791594111201
1.848877375402045 12.798523560592963 80.46587918290898 115.64118911835787 0.5381328383087891
1.8682635936344438 12.76661710946102 73.38421122224582 121.40765568197689 0.5499423431603536
1.8869332466209094 12.732770441893683 67.01064067205417 127.50475392172922 0.5622498665751852
1.9048566615399831 12.696958363534472 61.25806924621172 133.9549298152714 0.575084731563634
1.9220000940464954 12.659144355703022 56.07723364177199 140.78383750649084 0.588483139852852
1.9383147607192142 12.619271874642843 51.39399546596078 148.019169134921 0.6024834180029759
1.9538124221569253 12.577418487819607 47.163174688688805 155.68944640476818 0.6171214171794571
1.968429682446595 12.533493780138624 43.341080489698726 163.82828434994317 0.6324446368465713
1.9821457342321254 12.487498324507566 39.88111541517809 172.4694314172356 0.648494565592048
1.9949373053701338 12.439425891017985 36.74699465043021 181.65221328044063 0.6653245042076021
2.006772990376019 12.389270300752624 33.90394676846723 191.4186062479006 0.6829887941843785
2.0176217923762962 12.337001147419675 31.3287549301804 201.81463701548867 0.7015466592079793
2.0274614859798086 12.282618512936144 28.99369138533817 212.89026660968668 0.7210608291338217
2.0362717128891723 12.22615876694015 26.870357945274524 224.7009315295269 0.7416014879435965
2.044018075729418 12.167569104030687 24.94336083556674 237.30782616302918 0.7632458895302682
2.050678850695396 12.106868055722359 23.18890594317897 250.777784782207 0.786076548003373
2.056252384756855 12.044127532618633 21.59333291087476 265.18389586150965 0.8101816107443229
2.0607031304910515 11.979281599822386 20.14331582924739 280.6079020085225 0.8356608045763507
2.0640107226001043 11.912389558361273 18.822229870817083 297.139493747697 0.8626210006166865
2.0661730162344836 11.84349540029992 17.619783104406995 314.8790561158285 0.8911827436747642
2.0671678115636802 11.772610559609404 16.524025801377224 333.9359834974388 0.9214718944542876
