M[M_sun], R[km], Lambda[1], P_c[MeV/fm^3], rho_c[fm^-3]
0.24162668629717493 15.618656898711224 2160425.4255784233 3.5677272577965504 0.1711233750220791
0.25364129445659883 15.27738144975505 1723233.980934798 3.7847871282727747 0.17388776823388546
0.2660356543025636 14.981361525017544 1383048.5246807311 4.011333211955094 0.17666583608891878
0.2788087409553957 14.72366045950139 1116468.4707491826 4.247622610465093 0.17945628936963645
0.29196329182441727 14.498474434558457 906015.7350058429 4.494279992272028 0.18226568493646578
0.3054943662782093 14.301361620330647 738794.4881479102 4.751458219759454 0.18508967535623055
0.3194083053816678 14.12829972157936 605212.3136071322 5.019844055741929 0.18793497786648755
0.3337037624043361 13.976097301589418 497816.1773467921 5.299655376818395 0.19079809476532616
0.3483828799940135 13.842174200874245 411098.03257940424 5.591627893740353 0.193685466526184
0.3634423775646878 13.724136777691493 340720.73606446956 5.895919904357313 0.1965919904429512
0.3788937391141422 13.620130677107518 279461.9134434449 6.2133991329255975 0.19952542418664715
0.3947219856870799 13.528592585692621 236484.20082994766 6.544329465525532 0.20248206155015142
0.4109437559455232 13.44803300452666 197933.17040814023 6.889400302661845 0.20546539451996965
0.42754733931412797 13.37720916196294 166141.2574382532 7.249322308802764 0.20847860033492271
0.44454102018304253 13.315058090097155 139855.74063191752 7.624363761369552 0.2115173752175571
0.46191799249660287 13.260684382197066 118031.61980885836 8.015454969585463 0.2145875931833831
0.4796801838708318 13.213252345838807 99852.06029458609 8.423309166149457 0.21769103879806584
0.4978318418053727 13.172093386320443 84680.59083186388 8.848379866932616 0.2208253642201732
0.5163662159638491 13.13649779186052 71968.27989699849 9.291514947838637 0.22399361960328076
0.5352810369145914 13.105932522081186 61306.05012424839 9.75361061032587 0.22719889593779974
0.5545829081016391 13.079907258694185 52326.27708453036 10.235475919662305 0.23044254332115546
0.5742606745686752 13.057913516190116 44752.706159635665 10.737599741899558 0.23372148590861203
0.5943153998406574 13.03959083460447 38349.85682818441 11.261191179848234 0.23704146705610704
0.6147465170030898 13.024548622270384 32919.47355290907 11.807203962232974 0.24040431633902892
0.635543603635741 13.012488586719492 28309.898458209707 12.376616423506949 0.2438116655038435
0.6566990037828178 13.003054901006186 24386.889795698025 13.102306455293817 0.24798751786022888
0.6767701476320565 12.995246545765582 21236.63047929263 13.612854534203493 0.33147135853931475
0.6930511324545112 12.983653360221206 18949.948041036958 14.32846573783659 0.40793410346962977
0.7071054372552276 12.966707687639518 17119.736162395144 15.115483646936667 0.4804835984548437
0.7195183494767666 12.944139953846426 15592.225774752183 15.974523885981624 0.5491866442898791
0.7307394704413457 12.916089034715961 14267.828734902409 16.90559423054464 0.6131236912545384
0.7411387999226585 12.882877461635458 13089.715665880602 17.908506930924066 0.6730828453027573
0.7509930361447571 12.844797077394084 12021.16725582462 18.984441734270376 0.7298782930180929
0.7605452398056204 12.802358786070693 11035.701443119446 20.130571888765793 0.7824898583661055
0.7699666344731676 12.755927228513833 10119.375483715774 21.35183782892095 0.8326640818315595
0.7794268108769741 12.705932483603844 9258.536735504387 22.643354794520448 0.8790432159911862
0.7890638156232729 12.652803211791024 8450.8983084122 24.010750716152575 0.9230371030076208
0.7989851475777046 12.597022713139808 7642.323250926666 25.453022631530875 0.9652488107415169
0.8092743816221826 12.539059239724445 6978.350721963258 26.970456281271723 1.005856827473605
0.8200071209828351 12.479359205002433 6310.569800908102 28.5676820788796 1.0453059156471503
0.8312496721657298 12.418398508981523 5688.832304413181 30.246168833928547 1.0836732724075615
0.8429997759092149 12.356354557013333 5112.943405852108 32.007675576643464 1.1210647787424985
0.8553269970015155 12.293708052189784 4580.992128329726 33.85329740952838 1.1575451233667433
0.868300829117584 12.231197854693418 4091.9852955141546 35.787212608518054 1.1933426865105825
0.8818657069348016 12.168619012656805 3645.6686997312445 37.812647685101986 1.228590207087099
0.8960544665737074 12.106403688837046 3239.92183684893 39.93197049856116 1.2633661918200114
0.9108710518529441 12.044846499493074 2872.904024530733 42.14817454943601 1.2977724139847167
0.9263389293134457 11.984189450478418 2542.1915658147677 44.46615556662591 1.3319707293791312
0.942427974968568 11.924712930389742 2245.748204955497 46.890564891415096 1.3660933027664328
0.9591167426880357 11.866396086714749 1980.6608916686912 49.42505775231061 1.4002346593162718
0.9764024936877713 11.809515474027297 1744.6917291813127 52.07172024137262 1.4344563163210542
0.9942706882506219 11.754116278388395 1535.391458293473 54.84032182333191 1.4690414794696287
1.0126639373746071 11.70019692687848 1349.9709922576776 57.730206771214384 1.504028962847068
1.031587613718949 11.647872129151093 1186.2536397331633 60.751867120541974 1.5397769324532133
1.050993342611618 11.597194975716636 1042.2807453623325 63.910533986205905 1.5766001958016027
1.0708379526477432 11.548059618833895 915.529918052885 67.20959039163358 1.6149951538351681
1.091103391187114 11.500511832561653 804.3318273935463 70.65893559693181 1.6559045181604204
1.1117155433681793 11.454447901220275 706.841526651467 74.26615086719129 1.7009826073168959
1.1326285264321359 11.40988760133105 621.5026411644449 78.04008147276977 1.7536581729810088
1.1537663773397926 11.366529179835211 546.8733819580383 81.9916046760739 1.8221244398587635
1.175132918063207 11.324394009843788 481.58255500845775 86.12434973161746 1.8508352963366577
1.1968251411156339 11.283366617710803 424.14451738431313 90.44135564546055 1.8737507712340187
1.2187907535350773 11.2434328738194 373.69319740268537 94.95347843645034 1.8976088467902814
1.2409691666701395 11.204545287016 329.4780011620338 99.66861988501066 1.9224463582430278
1.2633034804632723 11.166719720977312 290.73318904517913 104.60142273967914 1.9483377303136775
1.2857355518462854 11.12978355714701 256.84616265522016 109.76419507249113 1.9753410205417057
1.3082068557396445 11.093685688088089 227.15575583875128 115.16998089088563 2.003515636664483
1.3306611783120146 11.058319935584299 201.12922460519832 120.83334193587758 2.0329257938368435
1.3530408696193552 11.02349666863171 178.35133842667938 126.77040146271618 2.0636424621289753
1.3752821242373643 10.98913499022907 158.37189900099173 132.99891500616303 2.09574397427245
1.397338100882801 10.955122969696577 140.84915462771022 139.5364552872765 2.129304957165123
1.4191277384808583 10.921252621373648 125.4638708793627 146.40332217131973 2.1644133690611116
1.4406241845846834 10.88748133947404 111.94444320436578 153.61986911620085 2.2011541672497614
1.461761638377125 10.8535795867143 100.05410092369443 161.2103201836214 2.239631881615629
1.4824756441633151 10.8195296059329 89.57997123286485 169.19951369194837 2.279950652525569
1.5027343123396233 10.785189610924034 80.1694109056787 177.6143605573714 2.3222224894937717
1.5224834928177604 10.750344919773909 72.19290572234195 186.48334429938552 2.366563646645967
1.5416663200987824 10.71500048822881 64.9851523961354 195.8397292526306 2.413113713603259
1.560246225597971 10.678995407685226 58.61220765493047 205.71751558054538 2.4620101255931366
1.5781634148242054 10.64221234008968 52.95764587301785 216.1539506125964 2.513402686394752
1.5954042022809694 10.604639134407053 47.9423878072091 227.19035953312002 2.567457917953519
1.6118966842156421 10.566078341558098 43.48714247887832 238.87204554117193 2.624357494616927
1.627605962135179 10.52652942755245 39.519941194345776 251.2466588315599 2.6842865482107343
1.6424974595240034 10.485848905623572 35.98635462023836 264.36825377767997 2.747458090805242
1.6565474702045555 10.444031372324666 32.832228811969856 278.2950471931426 2.814097133407334
1.6696931839393625 10.400963940358306 30.015314966517735 293.0908755930472 2.8844481128501456
1.6819234121090576 10.356562807696085 27.496226107607377 308.82633845533826 2.9587802704931376
1.6931930821527044 10.310818728485202 25.23904600214069 325.57857425516283 3.0373836448443066
1.7034754864099981 10.263645877654925 23.21535651259188 343.43282183445206 3.1205765417832803
1.7127415425362456 10.215053979876341 21.400274028884223 362.4817373017884 3.2086971090034653
1.720972523990549 10.164917155125297 19.769335527798155 382.8296974113668 3.30212915999415
1.7281419070928838 10.113294124536855 18.300341728531112 404.5904700103421 3.4012810184381608
1.7342168356307484 10.06010347372068 16.97990019507913 427.8910890851467 3.506607341102949
1.7391967947966014 10.00535065039742 15.79040120854514 452.87120018183987 3.618597326652553
1.743044038153716 9.949051790613815 14.716007047479735 479.687313795987 3.737798304233341
1.7457611435542466 9.891169273296903 13.74841101579289 508.5125680913884 3.864804213679058
1.7473199607627061 9.831707236285014 12.874884215562673 539.5402124966677 4.000270710973605
1.7477254502963473 9.77070348340659 12.085977185876128 572.9862807734896 4.144922670966062
