M[M_sun], R[km], Lambda[1], P_c[MeV/fm^3], rho_c[fm^-3]
0.24162668629717493 15.618656898711224 2160425.4255784233 3.5677272577965504 0.1711233750220791
0.253645038485873 15.27726839681744 1723275.182092289 3.7848393583748483 0.17388841925691118
0.26604188312020893 14.981225789006682 1382936.3296873232 4.0114430099134655 0.17666716293244739
0.27881790839570375 14.723476191917628 1116425.1232014443 4.247793690771177 0.1794582736433745
0.29197382437826863 14.498362506350635 905851.304242242 4.494516844053517 0.18226832233602308
0.30551081322582724 14.301134307323858 738596.2510385277 4.751768885053473 0.1850930311343196
0.31942832332370896 14.12807241483054 605038.918481891 5.0202308228228825 0.18793899072423081
0.3337262343871015 13.97593345597962 497637.1949684066 5.300128427978965 0.19080285760557927
0.3484105556878961 13.841946841526694 410956.9815153145 5.592188409901266 0.19369088967423354
0.3634742143274221 13.72390409578519 340628.1780016783 5.896580478009595 0.19659819469048573
0.3789282408778614 13.61996046326972 283259.0551720742 6.214167757663847 0.19953243311877555
0.394763778916683 13.528364538383576 236373.34439703965 6.545205343150492 0.2024897418136696
0.4109902934431288 13.447796004840782 197834.55359019167 6.890400341532408 0.20547391127064138
0.4276007742406518 13.376972478684133 166051.24237938516 7.250455892794554 0.20848797818477413
0.4445958643411407 13.314873224580328 139768.4339733433 7.625627757218384 0.21152743743726046
0.4619803352761009 13.260532684534422 117960.58806565769 8.01687142383414 0.21459855060215072
0.4797475713311057 13.213088903638635 99791.11022190067 8.424889123636792 0.21770291786963053
0.49790592554869395 13.171930604716435 84622.72723617553 8.85011750198419 0.22083794544038093
0.5164460321192798 13.136354727536387 71922.9396708639 9.293438380041964 0.2240071606859042
0.5353671747080427 13.105796412206725 61260.65109518054 9.755732880490498 0.22721342612272985
0.5546760569659083 13.079781076255012 52291.68674291962 10.23780976191512 0.23045807898755366
0.5743604882935486 13.057826093705092 44717.38437425637 10.740137209008 0.23373777723345715
0.5944201880141482 13.039516762906107 38319.16562070581 11.26396933144928 0.23705882499758466
0.6148586501747375 13.024475865834438 32893.34926166434 11.810239209586047 0.240422775707134
0.6356649277516998 13.012414446138369 28283.656883291766 12.37992620169694 0.24383126294610183
0.6568379040917258 13.00301039212339 24364.112491740947 12.973710913878795 0.24728214110427038
0.6783712932487557 12.995967952658528 21021.15423203188 13.592937162494522 0.25078038455319523
0.7002624997925798 12.991049916388974 18166.235792697054 14.238795040621785 0.2543285394882655
0.7224999680068847 12.987995555013518 15724.229001749765 14.912474696866441 0.2579285914107914
0.7450891842001182 12.986641031836502 13629.710384299222 15.614993643242318 0.26158031297554574
0.7680126861588532 12.986748477500337 11832.606520431273 16.347642767479968 0.26528584395780586
0.7912604830081954 12.988150042038646 10286.60973715568 17.112026977128984 0.2690497570680309
0.8148375926468556 12.990669723357964 8953.306721232064 17.909601924636465 0.2728744860798129
0.838722226632287 12.994145578972002 7804.959078193339 18.7417143342767 0.2767609430785871
0.8629053485687925 12.998411534030163 6811.546599169623 19.60974644497375 0.28070994407068633
0.8873879690443294 13.00337693769188 5953.072947895546 20.515766860048206 0.28472768741407756
0.9121485299103351 13.008854500561371 5209.2510591949285 21.461570506857772 0.28881718804498
0.9371704648379628 13.014757998596373 4563.524923329275 22.44861772207374 0.29297817347946226
0.9624552391586229 13.020969012429564 4002.9584839531776 23.478982424108203 0.29721482922539355
0.9879789129443105 13.027354007523185 3515.177686330298 24.555064855034935 0.30153306901225
1.013723695516984 13.033805096876021 3090.6036762692866 25.678778934824795 0.30593431032604446
1.0396910948856806 13.04026325516776 2720.356109342071 26.852143974014744 0.3104202395398457
1.0658443560115154 13.046596096792308 2397.2384036344365 28.07823035504808 0.31499938590880155
1.0921791450461074 13.05272548374814 2114.7657690805845 29.359058690884854 0.3196719547968244
1.1186795316680418 13.058554238083774 1867.5635973696842 30.697455232135948 0.3244431104547613
1.1453133584047237 13.064017301968043 1651.353284967469 32.09674875518119 0.3293204270346103
1.1720776807814826 13.069022401171724 1461.3642011121678 33.558956579568225 0.3343020941351095
1.1989362106263002 13.073477593661176 1294.832775670414 35.08858662432051 0.33940144190350197
1.2258845417534168 13.077342523479693 1148.537339009525 36.68761859975084 0.3446149622077751
1.2528820554152833 13.080502753549986 1019.6625587176845 38.36114842047054 0.3499573594068388
1.2799273328482763 13.082939889954027 906.3105585433756 40.111465266440774 0.35542548954869874
1.3069723742904609 13.084523726865054 806.3990801178971 41.94394988382064 0.3610333794836855
1.3340122459463057 13.085238396351134 718.2771034181941 43.86218234265838 0.36678349545599415
1.361021942621505 13.085029880098885 640.3215556011509 45.87075795730184 0.3726830674314526
1.387954753957385 13.083765053824646 571.537431362575 47.97505924589014 0.37874231926126595
1.4148055521342628 13.081459444525983 510.5811698509602 50.17990037314985 0.38496718727996987
1.4415373172177992 13.078014641477667 456.66347444604094 52.49039648418163 0.3913640919170103
1.4681337368087648 13.073413179937614 408.816736816074 54.91301950314636 0.39794500492805246
1.4945435603538133 13.067540878423255 366.34836012130756 57.45396246076607 0.4047189926407412
1.5207565952195183 13.060388216534088 328.6914616317907 60.11985678007049 0.4116958319057668
1.5467406659038236 13.051897040165084 295.1429607577639 62.91781174388675 0.4188860686068017
1.5724578264378188 13.042008694516689 265.32755737293184 65.85545774153613 0.4263010809484943
1.597871658300139 13.030666444063113 238.79403110812217 68.94099367846111 0.43395314808179564
1.6229699085926343 13.017845933547889 215.12707937169898 72.1832389802059 0.4418555246943783
1.6477224389614433 13.003495229963638 193.98594977581487 75.59169067626922 0.45002252226980005
1.6720709175750077 12.987555167819572 175.14615035881673 79.17619763857215 0.45846797564675024
1.6960077632413424 12.969993090876693 158.28701729415462 82.94714400366114 0.46720594953703143
1.719486180131895 12.950776645791306 143.20273748554882 86.91718367624057 0.4762576192327539
1.7424685943212517 12.929820233284671 129.7145987755928 91.09780318218264 0.4856369457203994
1.764950717140312 12.907165861335633 117.6107615072546 95.50329499578093 0.49536663889977306
1.7868765645314664 12.882726574457402 106.7625941300533 100.14713643751962 0.5054634483008565
1.8082128366125918 12.856453819499759 97.03515188897393 105.04596197203873 0.5159534813106416
1.8289264475076963 12.82831934228986 88.28741618280965 110.21632380847117 0.5268592913646921
1.8489997157623115 12.798328610568054 80.4227642605347 115.67598836267949 0.5382047215392616
1.8683718576036206 12.766380919369226 73.3454997382842 121.44493783291864 0.5500182359572869
1.8870482027549529 12.732550666798128 66.97096469479766 127.54461343965536 0.5623296844759041
1.9049699264356972 12.696721561281585 61.22355855982064 133.9976785779257 0.5751691308944866
1.9221088202500696 12.658890615123553 56.04455649426523 140.82975309900786 0.5885726008878925
1.9384195687278671 12.618988866605699 51.36439947488006 148.06852656107043 0.6025783594678594
1.9539127213527334 12.577131114269665 47.14012449968105 155.7423851135878 0.6172217413319098
1.9685256969494167 12.533190993419938 43.31869649492808 163.88512519238492 0.6325508160126327
1.9822368674951298 12.487175875276748 39.85816456589307 172.5306978391579 0.6486076873413956
1.9950206348331923 12.439083714809616 36.72566391072354 181.71812740458896 0.6654445676986893
2.0068531640354172 12.388909324851461 33.884689526174725 191.4895961743292 0.6831164136265153
2.017695734141125 12.336620338924947 31.311914314055787 201.89117499247297 0.7016825065672776
2.0275276070834978 12.282225510923507 28.97605557378878 212.97268110373 0.721205008360448
2.0363316641833715 12.225739511851048 26.855490216764778 224.7899854848563 0.7417554198254573
2.0440706501311205 12.167131200098806 24.929390260750022 237.4039534865626 0.7634097954472991
2.0507244083582483 12.106407130713837 23.176083954194034 250.88168007694247 0.7862513642116835
2.056291742506177 12.043643915609138 21.583328247167564 265.2964957711085 0.8103689071855529
2.060732065442574 11.978778694224559 20.133065530861757 280.7297305407693 0.835860631724578
2.0640335228455675 11.911865894407791 18.8142478801112 297.27166957585666 0.8628351491417174
2.0661859204099424 11.842949720798266 17.610202559403515 315.0226407948109 0.8914125945048822
2.067170475789773 11.772043972095734 16.515135824722226 334.09192418833163 0.9217181903190983
