M[M_sun], R[km], Lambda[1], P_c[MeV/fm^3], rho_c[fm^-3]
0.24162668629717493 15.618656898711224 2160425.4255784233 3.5677272577965504 0.1711233750220791
0.25363928086178733 15.277426578996797 1723271.7850590162 3.78475345862679 0.17388734855799104
0.2660321400522036 14.98143476514743 1383213.7199438063 4.011262432869511 0.1766649807654405
0.2788032272306 14.723751849347206 1116616.1223555459 4.247512328639386 0.17945501026664942
0.29195267908562067 14.498696103848607 906130.6755440374 4.4941273151370575 0.18226398484113338
0.30548517017531296 14.301473708653559 738894.9584388393 4.751257964740259 0.1850875122198308
0.31939536879175046 14.128442045427354 605270.3387219646 5.019594749092014 0.18793239121377114
0.3336879329510875 13.976272725433834 497885.46983847546 5.299350456780223 0.1907950247264956
0.34836494467962226 13.8423177446712 411191.3777673854 5.591266600426215 0.19368197091398134
0.3634202001843931 13.724318760347877 340832.7190077014 5.895494122967594 0.19658799141403402
0.3788684618222127 13.620313960860395 283463.0054100552 6.212903712994354 0.19952090655339866
0.39469547104714126 13.528740875283829 233427.14099953638 6.543764922840442 0.20247711127346296
0.41091347005281564 13.448153083690995 197990.12940459367 6.888755741629601 0.20545990516773951
0.42751514366139814 13.377323448278915 164201.1529122199 7.248591683481832 0.20847255605888587
0.4445034214172489 13.315194520253627 139906.06177020885 7.623549092434737 0.21151088992900557
0.4618778028418885 13.260802163263085 118074.09506690047 8.01454205107961 0.21458053102067742
0.47963531400147225 13.213375325336665 99893.17961860825 8.42229088233809 0.21768338272733903
0.4977831251902396 13.1722033068057 84715.21110674519 8.84725997345408 0.22081725571289493
0.5163154385666324 13.136582510692255 72012.74737944061 9.29027532637095 0.22398489259086685
0.5352259245576844 13.106019636830151 61333.74481357877 9.752242859607057 0.22718953159238608
0.5545246373089698 13.079970583160161 52354.16337894884 10.233971128098693 0.2304325219963629
0.5741971980866838 13.057956040800427 44776.09962701552 10.73596444833908 0.2337109868174032
0.5942479654692273 13.03965664297765 38032.249119079825 11.259400799127508 0.23703028072496468
0.6146743509119297 13.024600982821855 32937.95870473126 11.805247922402588 0.24039242035327976
0.6354671365024717 13.012506595463696 28324.46015602934 12.374483493263305 0.24379903626560115
0.6566305026279199 13.003079496732868 24400.66528903789 12.967841777610255 0.24724859552811201
0.6781524398415054 12.996031042760029 21052.462714557583 13.58655826736565 0.250744868574126
0.7000317581643293 12.991097650469111 18194.383113126543 14.231872191163857 0.25429098269208644
0.7222547100958737 12.988026929635993 15749.28409556401 14.90497150078461 0.2578889191847556
0.7448338782826787 12.986658493178137 13651.62935370103 15.60694456869848 0.26153917144563976
0.7677434087383191 12.986749421549044 11851.107039844243 16.338938830215934 0.26524245701356747
0.7909787931637791 12.988123174359487 10302.84118372894 17.102624503205025 0.26900403602128353
0.8145426334302245 12.990625787171776 8969.179646532757 17.89945434497231 0.2728263365398932
0.8384140565193724 12.994088766057155 7767.878197383736 18.73086665370175 0.2767111035990859
0.8625850311003136 12.998354714965599 6824.1970309110675 19.598057641215966 0.28065750377996795
0.887049017906603 13.003297148516321 5964.132872549053 20.503180687558245 0.28467253285470967
0.9117993812931713 13.008779136827474 5218.848821272296 21.44802686904616 0.28875919810993195
0.9368069081505025 13.014676912291074 4572.083464079508 22.434173030607507 0.29291817845467166
0.962076330047039 13.020864013868795 4010.608960956442 23.463455441804232 0.29715176953674116
0.9875906983996025 13.027253471327542 3522.0106266017665 24.538382514567086 0.30146679799305015
1.0133282916680888 13.033715292820778 3096.9711100071345 25.66100580299953 0.30586572038741877
1.039274021599677 13.04016476703865 2725.9370122281002 26.83306281332661 0.3103481543507019
1.0654190425829209 13.046500906109657 2402.107040206229 28.05775186840227 0.31492362708197025
1.0917372296997494 13.052620905029316 2119.198939245679 29.337255447047635 0.3195934765062704
1.1182257001977047 13.058461917278397 1871.6962732135978 30.67406697686013 0.32436060686875473
1.1448462805226762 13.063925951266162 1654.743472714802 32.07181072549025 0.3292346178087541
1.17159989154664 13.068942099430343 1464.5792021368059 33.53225897152484 0.3342121204433647
1.1984457029750175 13.073402539409118 1297.687887908144 35.059962377702824 0.3393067892799881
1.225382786008673 13.077277689158961 1151.0676461476194 36.6571507653312 0.34451667769025673
1.2523686773519025 13.080453807650633 1021.9886893120268 38.32854229620244 0.34985422081505857
1.2794010841890369 13.082900050470572 908.3256991833416 40.07669444888051 0.3553179202553469
1.306436361125619 13.084507716949666 808.244972951464 41.90692644352062 0.36092145201463194
1.3334647973243228 13.08522835480244 719.8755586034928 43.82249128735005 0.36666551311291556
1.3604659350591912 13.085046765093246 641.8929229640934 45.82848243589515 0.37256013595789744
1.3873906599888148 13.083801739552019 572.8683386487065 47.930018731450694 0.3786141194177769
1.414238245948713 13.081535385721432 511.77696919767544 50.13160111022268 0.38483184742255916
1.440964648986424 13.07811889872649 457.74513123272277 52.438915129429304 0.3912227434052572
1.467546499385984 13.07352846811046 409.81613964818627 54.858128161328345 0.39779724730787097
1.4939510291694982 13.067684623231228 367.24865162856617 57.39541477970413 0.40456439450580167
1.5201586247660297 13.060567660921734 329.4864536001037 60.05738629843458 0.41153392835616265
1.5461385734896698 13.052109218048153 295.87927658081327 62.85113007414978 0.4187163584558933
1.5718518531323755 13.042261615384916 265.99660220830197 65.7842525697444 0.42612302365091603
1.5972681325605487 13.030956335279695 239.39676061761054 68.86492656023523 0.4337661603524375
1.622360218916665 13.018180259252237 215.67281804792577 72.10194290985571 0.4416589767845507
1.6471121897462748 13.003870298253085 194.49246476597324 75.50476740304343 0.44981573386273105
1.6714649519179243 12.987979747866566 175.59057706815108 79.08360317288715 0.4582518334866654
1.695400225081289 12.97047144617254 158.6992194393175 82.84810637458425 0.4669783613538571
1.7188635724237566 12.951263180316738 143.58957778634354 86.81112795872968 0.4760174552129975
1.7418805387533145 12.930423889160197 130.0565218988408 90.98468522546142 0.4853852999039178
1.7643600362137997 12.907811106951595 117.92588552809882 95.382025442585 0.4951005464218858
1.7862889997772884 12.883412283326853 107.04737309071879 100.01760970574789 0.5051839352330513
1.8076319553915154 12.857197767117663 97.28691871116253 104.90750660012587 0.5156594710381709
1.828360787481569 12.8291474422923 88.51661890037275 110.06784268108093 0.526548261693279
1.8484394118724945 12.799205912285508 80.6315748930675 115.51680651289261 0.5378759067670353
1.8678372247580668 12.767356949333799 73.5368700990161 121.2744009821886 0.5496710854239844
1.8865171634722875 12.733566382307693 67.14663922742383 127.36187932272342 0.561963118394997
1.9044525045293068 12.697804842575659 61.384889301633436 133.8021419479439 0.5747830808733179
1.9215911119309537 12.65998909897835 56.19219432727768 140.61973455173367 0.5881634048917853
1.9379433745427208 12.620253432000894 51.49853139837609 147.8427688403456 0.6021441032598982
1.9534439520751075 12.578425540692022 47.26587721751925 155.50025061350325 0.6167628722162444
1.9680846024664054 12.534585039710015 43.433129195470336 163.6246999216697 0.6320636609490105
1.9818162242662873 12.488660577068162 39.95772116814778 172.25048328028478 0.6480903017964624
1.9946290751159539 12.440646673595477 36.821399632613115 181.41666089809982 0.6648954422770496
2.0064825467203624 12.390545869823148 33.975937610784925 191.16492074616082 0.6825327407154008
2.0173651139872315 12.338378405856435 31.395356966382117 201.54113191712167 0.7010612146374312
2.0272190338641702 12.284049262386212 29.051387962219486 212.59576879248604 0.720545622821874
2.036042606568873 12.227622958623822 26.923832136922524 224.38271670002933 0.7410514460351892
2.043827570781182 12.169145867373716 24.991970649598937 236.9643447704362 0.762660222203159
2.0505162340057597 12.10852093081049 23.23457205870463 250.40587852289067 0.7854497035729325
2.056112275218403 12.045825195728249 21.6358091915959 264.7814057470826 0.8095118438097336
2.0605955523516144 11.981078892066702 20.181594534647175 280.1721386998702 0.8349452679190633
2.063939567069183 11.914279495477642 18.85714530864939 296.6672563821053 0.8618558914684102
2.0661278429978482 11.845446284413502 17.651550369708893 314.36607288329225 0.8903615584155101
2.0671554261246876 11.774640101643788 16.554034180755888 333.378872827859 0.9205919826533725
