M[M_sun], R[km], Lambda[1], P_c[MeV/fm^3], rho_c[fm^-3]
0.24162668629717493 15.618656898711224 2160425.4255784233 3.5677272577965504 0.1711233750220791
0.25364417185191307 15.277289969474367 1723233.8518093864 3.784823049103916 0.17388821596971685
0.2660406207904706 14.981231804810879 1383011.6374970265 4.011408724383936 0.17666674861205697
0.2788157043549908 14.723500447319207 1116355.157635202 4.247740268857678 0.179457654029683
0.2919703469189245 14.498400281987099 905859.8269498884 4.494442883725361 0.18226749877060378
0.3055055135491937 14.301228395303088 738630.4994446033 4.751671874785629 0.18509198323828
0.3194218224001684 14.128123696280609 605117.6119854506 5.020110047806028 0.1879377376368161
0.3337223619663968 13.97591676694421 497698.55823692866 5.29998070827204 0.19080137031324185
0.3484017669575567 13.842021184166768 411002.91002186807 5.592013376472302 0.19368919617765826
0.363464656407564 13.723978420220762 340635.15892408066 5.896374198177948 0.19659625726665342
0.3789180125594225 13.620000662561244 283315.5494801489 6.213927734852525 0.1995302443997426
0.3947506880192623 13.528448094326928 236414.59457337006 6.544931826353227 0.20248734344086067
0.4109754699281643 13.447892437241459 197867.53632607695 6.890088050122349 0.20547125166594532
0.4275839952281987 13.377068938712977 166080.240345481 7.25010189591503 0.20848504965931144
0.4445790212604675 13.314932793219535 139800.1124001763 7.6252330330851095 0.2115242951793528
0.4619607023372149 13.260569385733604 117978.80264452356 8.016429086992156 0.21459512876906398
0.47972579342171673 13.213145947912498 99808.78689843454 8.424395724391553 0.21769920819706584
0.4978826183334011 13.171980817862229 84638.46832440178 8.849574859414636 0.22083401647632403
0.5164209434641774 13.136410812836763 71936.69231716577 9.2928377118159 0.2240029319441454
0.5353390281560723 13.10585099088781 61274.51750350078 9.755070113421018 0.22720888846854911
0.5546466415585037 13.079805568513345 52298.14675384928 10.237081674361187 0.2304532370210431
0.5743288350701329 13.05783950285018 44728.22792362221 10.739344771059425 0.23373268953636075
0.5943870291828002 13.039515859366574 38326.96606452128 11.263101724079618 0.2370534041710385
0.6148234573183184 13.024510269388438 32900.0506916029 11.809291306744523 0.24041701087631656
0.6356283421433883 13.012429647531999 28291.54629770518 12.378892557504296 0.2438251426621377
0.6567988302061353 13.003026336019285 24371.18313244616 12.9725962750349 0.24727577028571784
0.6783302299471278 12.995987628753964 21027.242923308488 13.591725699496296 0.2507736394517915
0.7002189509141733 12.991062855231677 18171.95925190103 14.237480256972344 0.25432140672279924
0.7224531529578829 12.988003903812922 15729.444462877687 14.91104967862222 0.25792105680216953
0.7450406513272929 12.986648847296763 13633.56607791114 15.613464937191127 0.2615724992442428
0.7679617511157313 12.986761056137686 11836.133549274262 16.345989669825595 0.26527760368061
0.7912064314042716 12.988138282483574 10288.780899401283 17.110241190232326 0.26904107339107064
0.8147816779515615 12.990662405167738 8956.219743416897 17.90767460068994 0.27286534106549687
0.8386634114176399 12.994133138002333 7807.1892736192285 18.73965402213745 0.2767514770103414
0.8628453536056888 12.99840676631624 6814.557336772881 19.607526352939896 0.2806999839178692
0.8873244367631059 13.00335960412912 5955.317740705951 20.513376301448975 0.2847172116156338
0.9120812878613802 13.008855208662611 5211.074554339459 21.458998063164596 0.28880617358603206
0.9371012120172374 13.014739567574923 4565.0867969212595 22.445874109811538 0.292966778076101
0.9623851302840223 13.02095065467708 4004.3950141040173 23.4760332093081 0.29720285158779325
0.9879048850979704 13.02733691200195 3516.4740350076077 24.551896154145346 0.3015204812678686
1.0136474615618065 13.03379512733955 3091.8817546831874 25.675403014335842 0.305921281998712
1.0396124383607468 13.040246925728313 2721.403542357055 26.848519558132175 0.3104065471492883
1.065762932673091 13.04657513990395 2398.256786019168 28.07434047569963 0.31498499555364246
1.0920947927781581 13.052701642691664 2115.707375635816 29.35491713559576 0.31965704774071163
1.1185930893933098 13.058538781327197 1868.5708481438207 30.693012549357377 0.32442743860338125
1.1452242328112086 13.06399316157262 1652.0690378756678 32.09201944614596 0.3293041775945834
1.1719880164587724 13.06900761800591 1461.976004256443 33.55388516363595 0.3342850029405328
1.1988439309904224 13.073465518328476 1295.4933787425662 35.0831491622371 0.33938346169049144
1.2257896738370813 13.077336145293147 1149.0386612564216 36.68183087207948 0.34459629189422825
1.2527845331533183 13.080494364116502 1020.1364882330075 38.354986936372896 0.34993795748409556
1.2798278056853944 13.08293932702623 906.6767637596297 40.10485998563231 0.3554050550165591
1.3068708972164274 13.084521163250546 806.7074972252137 41.936916607497366 0.36101211682382356
1.3339086914165799 13.085233733190542 718.5628581041369 43.85464220624053 0.3667610822710889
1.360917652978457 13.085030366210079 640.6158665143529 45.86272676155798 0.3726597138051849
1.387847420015909 13.083775138962332 571.7925770291702 47.96650268297012 0.378717964521077
1.4147048364868062 13.081483408754988 510.80946217457523 50.170724605288115 0.38494147576723076
1.441428041631742 13.07803176401589 456.8577251709 52.48061607931079 0.39133723858963604
1.46802204645252 13.073435500869838 409.004405690165 54.902591149122145 0.39791693367451786
1.4944312359541478 13.067568240356007 366.5178686089361 57.44283933682816 0.4046896214652427
1.5206433709032614 13.060421199408449 328.82519920391763 60.10798824267891 0.4116650724449465
1.5466267944547956 13.051936502007795 295.28242180098664 62.90514298120707 0.4188538255985706
1.572343328868951 13.042055557366337 265.45398524336554 65.84192939308431 0.4262672516478211
1.597767121382592 13.030729495342669 238.91223269689158 68.9265414159881 0.4339176216177078
1.6228537023836669 13.017907047655541 215.22961988068013 72.1677930454271 0.4418181813617544
1.647605970431496 13.003568334568316 194.089810992515 75.57517537049404 0.44998323274874585
1.6719544602112095 12.987633827831878 175.22413568003088 79.15861700947458 0.4584269602402011
1.6958923926300957 12.97008370564505 158.35478283968223 82.92832649957047 0.46716270696743656
1.719372320214184 12.950874227304979 143.27231764949357 86.8970324154628 0.47621198654170116
1.7423540246327465 12.929931809890961 129.77475570557942 91.0763097774381 0.4855891308062807
1.7648382853631661 12.907286892770719 117.67808758466873 95.48025236165115 0.49531607821532214
1.7867642853402392 12.88285443387598 106.81685753691536 100.12252450914501 0.5054103368271824
1.8081031484872725 12.856596024817229 97.08309121708155 105.01965310599441 0.5158976143784509
1.8288131292694745 12.828462316488263 88.32711507491585 110.18817877561612 0.5268004475877894
1.8488931711612595 12.798498451869229 80.45972940019142 115.64574016061646 0.5381422391916514
1.8682700996196242 12.766559978863818 73.38378915780385 121.41253142093557 0.5499522683781145
1.886949064072041 12.73274045807863 67.00644196874022 127.50998173235253 0.5622603587493927
1.9048725754636895 12.696927062696329 61.25530074261077 133.96052043491923 0.5750957691826908
1.9220144127253045 12.659111313863319 56.07289581170868 140.78984225550772 0.5884948393874275
1.9383279083253049 12.619224357642146 51.389978271147356 148.02562397347305 0.6024958342060791
1.9538249066622888 12.577382445502268 47.159720055611054 155.69636956808043 0.6171345372669522
1.9684420113497871 12.53345322883563 43.33719722548651 163.8357177930781 0.6324585225801235
1.9821570750337452 12.487455548205864 39.87828321053811 172.47744358557972 0.6485093591848631
1.994947783620375 12.439381773269194 36.74498388900626 181.66083321933357 0.6653402055458179
2.006784265021327 12.389223272737745 33.90296584012059 191.4278899353327 0.6830054835806162
2.017632262091149 12.336950970464706 31.327756134192384 201.8246462017927 0.7015644245263442
2.027468342053814 12.282567139539724 28.990430873679173 212.90104424533942 0.7210796839625908
2.036279944069406 12.226103996418969 26.868649555559013 224.71257737360173 0.7416216180623281
2.044024942774412 12.16751177787853 24.941487906746666 237.32039695238953 0.7632673238809
2.05068479312614 12.10680765171727 23.18677314139756 250.79137133972262 0.7860994090046813
2.0562589505587585 12.044063155624974 21.593228627376387 265.19862691775774 0.8102061240777761
2.0607063865119906 11.979216195437075 20.141379697300156 280.62383355741747 0.835686936024574
2.064013273883802 11.912321360728583 18.819899273336226 297.15677831884784 0.8626490047190196
2.066175085369752 11.843423959290085 17.61837895745067 314.8978325083107 0.891212800986096
2.0671687368556664 11.772536088598649 16.523641018120898 333.95637555406483 0.9215041020788224
