M[M_sun], R[km], Lambda[1], P_c[MeV/fm^3], rho_c[fm^-3]
0.24162668629717493 15.618656898711224 2160425.4255784233 3.5677272577965504 0.1711233750220791
0.2536443220885847 15.277284515280972 1723155.492593021 3.7848476873934684 0.1738885230741102
0.26604267540617804 14.981203532526276 1382868.7033630828 4.011460519349305 0.17666737452364614
0.2788194676735419 14.723440769024858 1116366.0528769428 4.247820973177258 0.17945859007817133
0.29197633894203606 14.498309168571991 905797.251636069 4.494554615528681 0.18226874293016535
0.3055130850026961 14.301137014963954 738549.0838153325 4.751818428331157 0.18509356629627335
0.31943125563488217 14.128029959375967 605012.8984154416 5.020292503047792 0.18793963068037065
0.3337318470335843 13.975852028041922 497623.2234194095 5.300203869275865 0.1908036171742593
0.34841500760883487 13.841906997184527 410930.36585837527 5.592277800830003 0.19369175455605966
0.36348067390394445 13.723846589863056 340606.43262408016 5.8966858271607565 0.1965991841520077
0.3789348580176315 13.619905868214913 283230.67867879476 6.214290340199561 0.1995335509239023
0.39477014650068676 13.528370458621712 236354.58856279653 6.545345031999339 0.2024909666961636
0.41099765404145966 13.447760255146926 197819.96967276934 6.890559833769379 0.20547526957345974
0.42760867589190776 13.376950807650102 166039.53549923343 7.250636685418748 0.2084894738358209
0.4446061916000777 13.314846431473793 139764.94630270972 7.625829350722653 0.21152904225117866
0.4619883484298354 13.26048760919934 117944.03533151266 8.017097335002926 0.21460029820768262
0.47975767485699095 13.213071984525717 99779.52374296653 8.425141114501864 0.2177048124886591
0.49791772384853816 13.17190469716656 84616.10027679478 8.850394643568235 0.2208399520638629
0.5164596390072287 13.136323376656724 71916.71894827907 9.293745158032275 0.22400932042208135
0.5353805989340781 13.105774545259381 61255.06154248942 9.756071375413564 0.22721574363814895
0.5546898146784955 13.079765089788882 52285.464201615796 10.23817855881372 0.23046051258113437
0.5743765013365346 13.057785663635597 44713.92751408892 10.740541933653773 0.23374037569105102
0.5944364407215279 13.039491653976567 38313.900957584854 11.264412449353497 0.237061593606269
0.614876788325021 13.024474979129693 32889.368069669545 11.810723339109652 0.24042572002238977
0.6356839979277519 13.012428133027202 28048.231725133723 12.380454124580789 0.24383438881667052
0.6568579355611691 13.002991680066675 24360.00218772848 12.974280205775807 0.24728539494330457
0.6783927448127407 12.99596071361782 21018.138682591838 13.593555908845982 0.2507838295671081
0.7002850305106713 12.991052542893714 18163.85943592097 14.239466559863434 0.25433218251292494
0.7225227228751355 12.98800076315167 15721.604974667003 14.913202520684003 0.2579324396896701
0.7451144753899678 12.986652656761612 13627.39731217443 15.615774427785315 0.2615843038282147
0.7680380796645324 12.98676616703665 11830.656871250965 16.348487088116965 0.26529005268441835
0.7912877989266288 12.988152786564342 10284.85487272658 17.112939072400597 0.2690541922784754
0.8148645108450101 12.990685587707782 8951.495169730371 17.910586314137902 0.27287915693761
0.8387540398673397 12.994133138089516 7803.718430947346 18.742766651438433 0.27676577793146173
0.8629364553863854 12.998424314037754 6810.344686059264 19.610880375122566 0.28071503130013176
0.887421210816224 13.00337418783216 5952.003384421648 20.516987862171188 0.28473303803469985
0.9121807798525352 13.008872489413168 5208.374072702429 21.462884413819797 0.288822813814101
0.9372055936429571 13.014759499584443 4563.18427951617 22.450019059946722 0.29298399383918583
0.9624925597521855 13.020971275978942 4002.2722027879963 23.480488782314676 0.2972209469936527
0.9880177278436513 13.027356225645546 3514.8721591464778 24.556683325732717 0.3015394984280082
1.0137633826283814 13.033814627881869 3090.360394311338 25.680503252241557 0.30594096479904054
1.0397305049185288 13.040275803447903 2719.774382538801 26.85399522284551 0.31042723322457483
1.0658862248755425 13.046606510462105 2396.757715031757 28.08021720324746 0.31500673612423885
1.092221577590551 13.052736789929142 2114.452841508401 29.36117409558301 0.3196795689548727
1.1187236508648584 13.058572057852544 1867.2312856683877 30.69972445484672 0.32445111528491555
1.1453580349852834 13.0640255867432 1650.8715832451708 32.09916438836039 0.3293287269122837
1.1721247316336114 13.069028244786848 1461.0879954031948 33.56154696492732 0.3343108240008495
1.1989842570403029 13.073486245642103 1294.5588577446572 35.09136399127806 0.3394106259030847
1.2259344921092112 13.077349209858383 1148.291006445818 36.690574887086335 0.344624498733096
1.2529328242844813 13.080508518268504 1019.5151179784024 38.36429562842895 0.34996726966298786
1.279978002705357 13.082950919236218 906.0780851869549 40.114839175250324 0.3554359272954054
1.3070326769602962 13.08455123795242 806.2128679981867 41.947542421551994 0.3610442402695145
1.3340627289278293 13.085246835286028 718.0247248977878 43.86603379795972 0.36679494397297574
1.36107556777138 13.085032030293476 640.17168931615 45.87486025834928 0.37269499636564307
1.3880166257498079 13.083777749396193 571.3821386415933 47.97942991927966 0.3787547596086166
1.4148609554737752 13.081453930982182 510.45592909705954 50.184587357639906 0.38498032072702737
1.4415944711510402 13.078007178324937 456.5545272030924 52.495392337582516 0.3913778086586646
1.4681900628562319 13.073400695480407 408.7217180108798 54.91834635242503 0.39795934384829773
1.4946020152353765 13.06752623849799 366.2670030796975 57.45964422549247 0.404733995629996
1.5208144858034665 13.060370125105235 328.61400330549793 60.12591933294318 0.4117115441078188
1.5467997717685522 13.05187546739438 295.0685968239363 62.92428308727883 0.41890253869022914
1.5725168853303728 13.04198373697589 265.26433652003135 65.86236820184645 0.4263183614051931
1.5979305948040734 13.030638710890354 238.73486063488065 68.94837612027072 0.43397129555554376
1.6230396466699284 13.017822607004925 215.0647643648663 72.19112904248955 0.4418746003427286
1.6477807462826515 13.0034593674495 193.9420392357995 75.60012703318623 0.4500425921629782
1.6721297508592208 12.98751269474272 175.10232573638734 79.18517822140058 0.4584889272437444
1.696067033464745 12.969951024303558 158.23944881689206 82.95675645880678 0.4672280389309601
1.7195461104432912 12.9507241903521 143.16819584187115 86.9274775012448 0.4762809296817302
1.7425280965050258 12.929772467506151 129.6797933825133 91.10878266120527 0.48566137101982376
1.765008499116765 12.907105706462149 117.58194908074991 95.51506593202768 0.4953924669622208
1.7869192106056926 12.882626394771755 106.74160746419336 100.15970908133097 0.5054905795207527
1.8082694513945436 12.856382330509986 97.01226151634111 105.05940153835472 0.5159820202578841
1.8289730550771954 12.828227439622674 88.26472991511338 110.23070143213656 0.5268893511512169
1.8490533904387245 12.798245128482442 80.39974005125733 115.69144046388406 0.53823664024824
1.8684253814694378 12.766288204792877 73.32427789622814 121.4614925322774 0.5500519352585609
1.88710211235798 12.732449412951217 66.95498765677462 127.56230074850133 0.5623650842241888
1.9050203504306409 12.69661535552769 61.20933705957488 134.01666088591978 0.5752066078644212
1.9221578118804463 12.658778191976369 56.02839444986912 140.85014175204643 0.5886123257374246
1.9384661412709532 12.61887024922621 51.35191941860001 148.09044369769435 0.6026205181706011
1.9539567560257562 12.577005550497644 47.12652031476428 155.76589266489296 0.6172662904947721
1.9685666079718491 12.53305132889519 43.305663929648084 163.91036566029956 0.6325979654164602
1.9822777946149182 12.487032532256299 39.84873307677358 172.5579037132696 0.6486579200133141
1.9950593390530773 12.438928652413964 36.717981992280336 181.7473973370326 0.6654978832864861
2.0068890150533645 12.388747952136473 33.876415084476854 191.52112030693826 0.6831730849377817
2.0177284729094827 12.336451311783396 31.303811897003264 201.92516307812198 0.7017428320666563
2.027558520204156 12.282047963260341 28.969471337189386 213.00927902901128 0.7212690342411433
2.0363587170564403 12.225553208658328 26.849452101651753 224.82953212964912 0.7418237771424538
2.044095076475786 12.166935749631334 24.924271981255067 237.44664157425 0.7634825825582007
2.050747577317101 12.10620175112346 23.202131660282333 250.92781813325624 0.7863289969869128
2.0563087907791724 12.043429952070676 21.578053248922824 265.3464260735106 0.8104518426127749
2.060744763250426 11.978555238560272 20.127853453494065 280.78383337384565 0.8359493729631473
2.064040291036162 11.911632661973812 18.80774385659017 297.3303680829569 0.8629302512408837
2.0661880327729563 11.842702741964274 17.607444387577726 315.0864065188368 0.891514670887295
2.0671721758232486 11.771787854587346 16.511093476282387 334.16117785384955 0.9218275709518401
