M[M_sun], R[km], Lambda[1], P_c[MeV/fm^3], rho_c[fm^-3]
0.24162668629717493 15.618656898711224 2160425.4255784233 3.5677272577965504 0.1711233750220791
0.25364359646472834 15.277305343684127 1723316.3025542884 3.7848116887719945 0.17388807436865986
0.26603923285663683 14.98128483645281 1383243.8913738627 4.01138484269252 0.17666646001591021
0.2788134944228853 14.723546297419794 1116474.4029465348 4.247703057845371 0.17945722243801604
0.2919668183048321 14.498462267821695 905966.5108987376 4.494391366940125 0.18226692511924375
0.30550316240811776 14.301219387453518 738678.6100371449 4.751604302987109 0.18509125333389326
0.3194180427736426 14.128181507527986 605131.9533512617 5.020025923237722 0.1879368648119508
0.3337156662778555 13.976035361257809 497716.2308178836 5.299877816159702 0.1908003343603995
0.34839565397824485 13.842071793133101 411032.9232822505 5.591891459914477 0.1936880166014232
0.36345767483823843 13.724030588070393 340677.5653987331 5.896230518147404 0.19659490779340064
0.3789107408938193 13.620031845919454 283339.3701509254 6.213760552616892 0.19952871989905413
0.39474178623899864 13.528498050038724 236425.31761566031 6.544741315485128 0.20248567291791503
0.41096487511573043 13.447918413157055 197877.98145171956 6.889870532824718 0.2054693991973611
0.42757235846786107 13.37709990383197 166096.49621475828 7.249855331037286 0.20848300989126703
0.4445661017479848 13.315002824244326 139823.37224724403 7.624958102101859 0.21152210655194612
0.46194774198871946 13.26059622986726 117993.07267698225 8.016120994461222 0.2145927454242551
0.47971181219422027 13.213199522394397 99835.58714909827 8.424052067863556 0.2176966243803983
0.49786667418703995 13.172018876129346 84653.16793915158 8.849196905999971 0.2208312799321148
0.5164038873072093 13.136433164061803 71947.45852437611 9.292419345068831 0.2239999866161639
0.5353209610728188 13.10586933783109 61284.71268918568 9.75460849672026 0.2272057279962678
0.5546272673242607 13.079853933175908 52307.14164285993 10.236573798720986 0.2304498547674023
0.5743079622234806 13.057877118173439 44736.72206683806 10.738792843195773 0.23372914598851025
0.5943642492910318 13.03953778913941 38335.29143761026 11.262497443828126 0.23704962861709197
0.6147989125489985 13.024536742635894 32905.88557768495 11.808631104326478 0.24041299574409142
0.6355990578080372 13.012459194835237 28298.889035735607 12.378172640432453 0.24382087997973534
0.6567705898642289 13.00302682026098 24374.714703391048 12.971819949281056 0.24727133312605623
0.6783012064930198 12.995988234002972 21031.47999100643 13.590881941113707 0.25076894163117364
0.7001882565189697 12.991070944793494 18175.922671632994 14.236564541893019 0.2543164389238024
0.7224201115540748 12.98800081431097 15732.61909765997 14.91005719209932 0.25791580915180234
0.7450068088468371 12.986657537837718 13636.437428454641 15.612400238734459 0.2615670572119747
0.7679262461287772 12.986756346280409 11837.948930273664 16.344838341282944 0.2652718645965881
0.7911697375383178 12.988130303382176 10291.152252331098 17.108997453359642 0.26903502551982345
0.8147426492846056 12.990654586361483 8958.277952993953 17.90633229415416 0.2728589719169641
0.8386231060140857 12.994120755079077 7809.257414002219 18.73821909957771 0.27674488428362826
0.8628017069000491 12.998398561335739 6773.626389956074 19.605980157028988 0.2806930471119517
0.8872755846394659 13.003343368508649 5956.62049603796 20.511711390438467 0.2847099157174372
0.9120349195439489 13.00883477084219 5181.495187629843 21.457206485715297 0.28879850257021167
0.9370532832384073 13.014722914426002 4566.245819725022 22.44396332893421 0.29295884178017023
0.9623308268249744 13.020924268235307 4005.363108621329 23.473979246315814 0.2971945098337897
0.9878542078421949 13.027323273941434 3517.3303782450694 24.54968934132086 0.3015117146481402
1.0135945245783147 13.033778865962447 3092.6334661576775 25.673051893885837 0.30591220857209517
1.0395561168379825 13.040230663258395 2722.0330011963097 26.845995387496043 0.31039701128715125
1.0657064314977929 13.046560624994294 2398.924684188656 28.071631439467687 0.31497497365064125
1.0920370293232073 13.052692022076213 2116.360050715864 29.352032834976708 0.31964666602945263
1.1185334682901615 13.058525040982921 1868.983279428073 30.689918549248116 0.3244165243175096
1.1451626952650673 13.063988841268225 1652.5139531069156 32.088725844603516 0.3292928611040903
1.1719240446698003 13.068999394868744 1462.5217044041074 33.55035332776976 0.3342731002895163
1.1987783938366754 13.073460893711795 1295.7233428548486 35.07936242285934 0.33937093996995654
1.2257230337806062 13.077327040189394 1149.3740846807227 36.67780021786406 0.3445832896276612
1.2527170086362704 13.080485689094537 1020.4428890435352 38.350678650740406 0.34992434393346344
1.2797572989455028 13.082935180247983 906.9248327399071 40.10026001764995 0.3553908242523717
1.3068011447012702 13.084519964137684 806.9948174959063 41.93201860047205 0.36099730940654123
1.3338357880574563 13.085238874372514 718.8037217890727 43.849391246606025 0.3667454737034588
1.3608433013361176 13.085035299826714 640.8137192509647 45.85713385162684 0.3726434503828446
1.387773103971039 13.083777379176698 571.9673913932234 47.960543934325315 0.37870100399890794
1.4146284207433433 13.081490368952757 510.9677353414248 50.16433467992598 0.38492357049218173
1.4413510275089352 13.07804450438413 457.01448492629 52.47380512085717 0.39131853824956797
1.467944519570747 13.073448490696443 409.12863296710145 54.89532900013994 0.3978973852755268
1.4943529721386326 13.067586823302518 366.6385626902524 57.43509339712428 0.40466916791678686
1.520563869707852 13.060447218116398 328.93182695953317 60.09972325060103 0.41164365222343036
1.5465466887616535 13.051965381485 295.3712463518578 62.896320773118354 0.4188313723775882
1.5722620238307492 13.04209144791859 265.53994680215794 65.83250863858542 0.42624369389148103
1.5976863129669157 13.030766834443273 238.99075771173645 68.91647732616222 0.4338928821330463
1.6227736010514713 13.017952156760884 215.30287336816966 72.1570370510445 0.44179217680575417
1.647525150723086 13.003618415178133 194.1542926217815 75.5636747667392 0.449955873084958
1.6718746863910434 12.987689586214117 175.2875113505113 79.14637461332197 0.45839839887003914
1.6958117282639111 12.97014830401926 158.41366817342583 82.91522287112386 0.4671325948674302
1.719276915475365 12.950909778485157 143.328814465658 86.88300010298869 0.4761802102579764
1.7422791163532731 12.93001125151499 129.81689954835315 91.06134294000667 0.48555583510209055
1.7647593654265956 12.907372194494707 117.71603975241803 95.4642068233897 0.4952808707215819
1.7866866307915155 12.882943203507667 106.85655069560157 100.10538629890283 0.5053733533129999
1.808026161954857 12.856695043463363 97.11430706880935 105.00133335641449 0.5158587123518183
1.8287383531393264 12.828570959343368 88.35815957367235 110.1685805540852 0.5267594729198473
1.8488189665820185 12.798614165533687 80.48781013602192 115.6246775830083 0.5380987311744497
1.8682072346029683 12.76671303525965 73.4028701936301 121.3899661662595 0.5499063337888374
1.8868789694198957 12.73287538338085 67.02924860269391 127.48578711513606 0.5622118003456915
1.9048033684599315 12.697070361617188 61.2775868157472 133.93464676375888 0.5750446865221167
1.9219480298225766 12.659265107853573 56.091898133194704 140.76205203310454 0.5884406934660987
1.9382640142880654 12.61938719883488 51.40721691332578 147.9957507855152 0.6024383716427584
1.95376455857798 12.577556508871364 47.17716144415182 155.66432902535124 0.6170738172311768
1.9683838078596991 12.533640066049873 43.35261917626765 163.80131573893158 0.6323942592570768
1.9821027349857052 12.487653184366929 39.891927441698634 172.4403632767764 0.6484408944489348
1.994896370916051 12.439588143931973 36.75680911180582 181.62094024151887 0.6652675399335809
2.006728637784192 12.389425697623233 33.913935009169485 191.3849252404938 0.6829282454334203
2.0175868097818075 12.337181518846135 31.337503948892977 201.778324030499 0.7014822072416033
2.0274279924942187 12.282809600534133 28.99978376379479 212.85116583547278 0.7209924246686595
2.0362429457186724 12.226356848557538 26.87782077452229 224.6586810796727 0.741528457035183
2.0439930169336566 12.167777125774274 24.950188090723493 237.26222021564647 0.763168127200547
2.050657578449385 12.10708717832194 23.194433843768 250.72846200429134 0.7859935064061583
2.056235405597946 12.044355672973156 21.599418510152773 265.1304530050985 0.8100926787262903
2.0606882459944895 11.979520341822239 20.147742807609667 280.55010408172507 0.8355660025240533
2.0640005863137496 11.912639476926861 18.826894586912125 297.076787446652 0.8625194051732087
2.066166722860265 11.843754272274959 17.62318517600856 314.81093794496684 0.8910736998810277
2.067167131296855 11.772876124963352 16.527966832990593 333.86200421319313 0.921355050084245
