M[M_sun], R[km], Lambda[1], P_c[MeV/fm^3], rho_c[fm^-3]
0.24162668629717493 15.618656898711224 2160425.4255784233 3.5677272577965504 0.1711233750220791
0.2536448147954127 15.277239717213147 1723151.037152264 3.7848358370197315 0.17388837536491838
0.26604099808391074 14.981264614332247 1382964.8570491236 4.011435607264091 0.17666707347579844
0.27881710219189043 14.723485984260586 1116415.9041655029 4.247782156324556 0.17945813986117573
0.2919729190861565 14.49835312909313 905791.3459126867 4.494500875075143 0.1822681445177427
0.30550937126724875 14.301164989726873 738600.5292713421 4.751747939251129 0.1850928048796786
0.31942802303748746 14.128034915342829 605035.4478413494 5.02020474583991 0.1879387201654677
0.3337241917538399 13.975927700466073 497649.79397950706 5.300096533196639 0.19080253647804427
0.34840864198710203 13.841963166681316 410968.12953347963 5.592150617619903 0.19369052402351503
0.36347250010982596 13.723921940296563 340624.07831851806 5.896535939075074 0.19659777637138726
0.37892729739149417 13.619938037611615 283267.4850275162 6.214115932997701 0.19953196054022126
0.39476155051381107 13.52837593623102 236373.01357436515 6.5451462864940355 0.2024892239665741
0.4109871271084819 13.447827616066247 197841.44501184885 6.890332912673138 0.2054733370181804
0.4275959589353512 13.377017172594138 166063.91570521033 7.2503794588763215 0.20848734586655693
0.44459329708066164 13.314890056153063 139781.17174731015 7.625542529435808 0.2115267589693099
0.46197605996518354 13.26051788718343 117960.15456963544 8.016775915444388 0.21459781176754075
0.47974206555671434 13.213111358152995 99794.0819366706 8.424782589746297 0.21770211688370567
0.49790026249846725 13.171950379196337 84627.45132589129 8.850000335349863 0.22083709710388696
0.5164406336092826 13.136366990120882 71927.08492822718 9.29330868432387 0.22400624761996324
0.5353610053524729 13.105813983476814 61264.48952490569 9.755589776158002 0.22721244635472004
0.5546689248497764 13.079807961481972 52294.102583199274 10.237653415058556 0.2304570445910508
0.5743538774526274 13.05783060970564 44720.37458011072 10.73996610556058 0.2337366786963235
0.5944119631860663 13.03950299307569 38321.39441119929 11.263781997021253 0.23705765452868827
0.6148513065429964 13.024479856287984 32894.58153093823 11.810034537289829 0.2404215309580848
0.635657397036888 13.012417170627378 28285.56853165858 12.379703015580365 0.2438299414445445
0.6568294599056282 13.003001798035806 24365.427582811724 12.973470238861273 0.24728076550456365
0.6783630829518049 12.99597642599554 21023.22068355389 13.59267558049313 0.2507789281346935
0.700253327249243 12.99105745718714 18167.82088338995 14.238511148810622 0.25432699936133457
0.7224895088178799 12.98800415108063 15725.132806632344 14.912167002274355 0.25792696451349667
0.7450790734797071 12.986644437489751 13630.611172615583 15.614663559494662 0.2615786258063809
0.7680012597240784 12.986762478267405 11833.036634590291 16.347285823933397 0.2652840646837507
0.7912490336927374 12.988147242759753 10287.392151818285 17.111641382010347 0.26904788204954244
0.8148255513459695 12.990672987529878 8953.792967926516 17.909185767365777 0.27287251144332014
0.8387096826408685 12.994140580682348 7805.623431763656 18.7412694608095 0.276758899115189
0.8628909131341269 12.998424129680403 6812.050628403642 19.609267070019282 0.2807077934175916
0.8873744645051432 13.003376703174588 5953.686853603408 20.51525067592974 0.2847254254152348
0.9121300368850618 13.008866165093583 5209.282627159306 21.461015047855057 0.2888148097303841
0.9371549966377974 13.014753167854371 4563.764362038077 22.448025302242435 0.2929757129047557
0.9624408162057512 13.020963744180303 4003.3395659177972 23.478345607832058 0.2972122429252796
0.9879643654898547 13.027342299710169 3515.4404425369275 24.554380644274232 0.30153035096770786
1.0137077253988522 13.03380564302805 3090.870788551782 25.678049978353574 0.3059314971426329
1.0396736319666022 13.040262310041179 2720.4934887894756 26.851361358725303 0.3104172829602074
1.0658266059784038 13.046589728475993 2397.424762702995 28.077390416795986 0.3149962786119739
1.0921611562433913 13.052717042149496 2114.9302095703333 29.35816440692235 0.3196687359236526
1.1186599506172084 13.058552260060184 1867.719843145819 30.696495923783285 0.32443972643238567
1.1452938678438038 13.064005356715239 1651.5258075018983 32.09572755382953 0.32931691828735027
1.1720592549900302 13.069018697322234 1461.520431170045 33.557861504528894 0.33429840361931995
1.1989162470551296 13.073476676687614 1294.952572160771 35.08741250599956 0.33939755941251876
1.225863364766969 13.077341221645097 1148.6195617462051 36.68636884583404 0.34461093069509724
1.25286200737093 13.080500905226424 1019.788137694807 38.359817958219615 0.34995316990875747
1.2799061936387783 13.082942566558996 906.3958008416533 40.1100389709135 0.3554210770668319
1.306950262092294 13.084526853760687 806.4853037046381 41.942431167195416 0.3610287881732429
1.3339899847455632 13.085236283766328 718.3270333222766 43.86055417430711 0.3667786556976275
1.3609990536895207 13.085030317778369 640.3898310803957 45.86902374933544 0.37267802459026067
1.387932166338025 13.083769305768536 571.5960981163944 47.97321158957565 0.37873706023495846
1.4147828750656253 13.08146236120495 510.6332260636521 50.17791900422977 0.38496163526590443
1.4415143334764862 13.078019086536765 456.71542406096705 52.48828454857592 0.3913582933331109
1.4681096277567889 13.07341518993724 408.8503687749978 54.9107676475666 0.39793894333781915
1.4945202128841815 13.067545183372994 366.38925663169806 57.45156057420309 0.4047126503368918
1.5207323065350482 13.060397377239308 328.71781906717723 60.11729392594433 0.4116891898058617
1.5467165305681219 13.051905458845503 295.17499862032486 62.91507608542513 0.41887910613852236
1.5724328529220626 13.042018636606386 265.354758448811 65.85253645962872 0.42629377592346857
1.597846568205326 13.030678534605816 238.81340447018877 68.93787288114146 0.4339454765567241
1.6229443403055397 13.017856496373186 215.15204913614343 72.17990360281298 0.44184746081807724
1.6476966970590716 13.003513054697038 194.01785961066489 75.58812437121995 0.4500140381146033
1.6720455000295846 12.98757343425151 175.1598724619963 79.1724012801575 0.45845911878600204
1.6959826141212753 12.970013688612196 158.3006171919074 82.94308054398203 0.46719661171852356
1.719462660992846 12.95079627745951 143.22045169876353 86.91283219288357 0.4762477652639208
1.7424445275511884 12.92985212238671 129.72657647784862 91.09316186405525 0.4856266204959737
1.764926545299575 12.907192575337339 117.62971358141621 95.49831912065635 0.4953557207186908
1.7868524277709656 12.88275312809244 106.77988642182328 100.14182167242924 0.505451979268366
1.8081892159303108 12.856485944125989 97.04207618959659 105.04028075109362 0.5159414172260564
1.8289031428050722 12.828352749007724 88.29429695166282 110.21024606360015 0.5268465844168941
1.8489757204022637 12.79836517568987 80.4296048366491 115.6694564309907 0.5381912288223889
1.8683514407790132 12.766418935909488 73.35705650992203 121.43793982792556 0.5500039905836037
1.8870261163453899 12.732592705293634 66.97723616853958 127.53713667546239 0.5623147203243354
1.9049484704727773 12.6967660267646 61.23176646741914 133.9896544153031 0.5751532887059893
1.9220879142582812 12.658939595943323 56.04905428626527 140.82113447403117 0.5885558085289405
1.9384001394513841 12.619040385030642 51.37105356348994 148.05926184819242 0.6025605383316904
1.9538941339060074 12.577186511235157 47.14504130655105 155.7324481352088 0.617202909763176
1.968507727137085 12.53324588418561 43.32368967378536 163.874455715958 0.6325308853419976
1.9822195481439755 12.487236073844652 39.86216480148138 172.5191975976765 0.6485864534029105
1.9950049516834785 12.43914405545029 36.730622310879 181.70575469971934 0.6654220306452121
2.006838347444506 12.388977402036808 33.88859998358529 191.4762706383591 0.6830924581506861
2.0176813993669214 12.336692246966852 31.31485482002018 201.87680796910234 0.7016570065179847
2.0275148953760054 12.282298480845732 28.979369531882423 212.957210930214 0.7211779442174329
2.0363207024263748 12.225817839106178 26.859323238447395 224.77326892898088 0.7417265248606619
2.044061230739508 12.167213473170191 24.932223301179242 237.38590908991281 0.7633790280934246
2.050716518806346 12.106493282167948 23.17792447789783 250.86217743712865 0.7862185486972467
2.0562850993285413 12.04373369261944 21.58567002254861 265.27539022098256 0.8103338503616956
2.0607265016755356 11.978872994288794 20.13425036727205 280.7068613500343 0.835823120929015
2.0640270455712573 11.911967361260206 18.814583386434943 297.24685790071345 0.8627949497822018
2.0661837585296303 11.843051929908585 17.612031591008588 314.9956873363766 0.8913694473192662
2.067171697724663 11.772148189935352 16.51829887873129 334.0626511253845 0.921671955854489
