M[M_sun], R[km], Lambda[1], P_c[MeV/fm^3], rho_c[fm^-3]
0.24162668629717493 15.618656898711224 2160425.4255784233 3.5677272577965504 0.1711233750220791
0.2536450613584962 15.277245444457947 1723112.7445528787 3.784840749635232 0.1738884365983007
0.2660419263296489 14.981241676467445 1382983.9715399751 4.011445934646143 0.17666719827611574
0.27881822619704333 14.723461029739466 1116424.356530969 4.247798247950798 0.17945832649979057
0.2919741012579494 14.498330382839738 905813.1169927372 4.49452315329126 0.18226839259084965
0.3055108972931973 14.301156712344408 738597.8976040307 4.7517771606087145 0.18509312052611035
0.3194287961984488 14.12807019423355 605032.6410272311 5.020241125684009 0.18793909762039154
0.3337281189782564 13.975860312008676 497624.1229019681 5.300141029428881 0.19080298448127034
0.3484112959321767 13.841940512923902 410953.9237202839 5.592203341431965 0.19369103414090055
0.36347534370296497 13.723932396063182 340614.1761724508 5.896598075122028 0.19659835996628963
0.3789296978193691 13.619943569386432 283259.7511423154 6.214188233349771 0.19953261983237686
0.39476488201782983 13.528362313033083 236375.9115480151 6.545228676180055 0.20248994641281748
0.4109915681964985 13.44779452517008 197837.19079342412 6.890426982404807 0.20547413815549015
0.42760266326155794 13.376966924964314 166046.9758969113 7.2504860915541665 0.20848822801137312
0.4445981479758018 13.314877483676485 139778.28020021314 7.625661430425828 0.21152770549764352
0.4619801858184541 13.260490705102114 117948.508422186 8.01690915890462 0.21459884251342837
0.47974827199176484 13.213100963976759 99785.9977605538 8.424931214882008 0.21770323433695207
0.4979071824298151 13.171936602715746 84624.20656433207 8.850163794229301 0.22083828061601468
0.5164482626250622 13.136356917368381 71921.93865604364 9.293489622536955 0.2240075214362635
0.5353695479789117 13.105796274414459 61259.259561853345 9.755789420743843 0.22721381322723275
0.5546785237958795 13.079757306466641 52290.34358454668 10.237871363578307 0.23045848548070114
0.5743632227693943 13.057812475169008 44717.3665984076 10.740204811756897 0.2337382112640458
0.5944223230973988 13.039491165878042 38318.78936206294 11.264043347094512 0.23705928744867547
0.6148611615570221 13.024497207548016 32891.6018817725 11.810320075467896 0.24042326750661738
0.6356685418296351 13.012433948614905 28283.605225773434 12.38001438244421 0.24383178507084968
0.6568411293573755 13.003010183267723 24363.045869183992 12.97380600454548 0.2472826846035274
0.6783751902915461 12.995965596611663 21020.999610606475 13.593040513586898 0.2507809599843882
0.7002663029707845 12.991043602211015 18165.739934535468 14.238907206409724 0.2543291479931393
0.7225032791480247 12.988004720240493 15723.995125625319 14.912596267237578 0.2579292341991699
0.745093491513677 12.986645575057079 13629.449408037613 15.61512405966899 0.26158097957781024
0.7680173958959134 12.986764057739979 11832.013305883274 16.34778379634898 0.2652865469513466
0.7912653174231665 12.988143811620109 10286.641660231886 17.11217932638952 0.2690504978908951
0.8148423899798065 12.99066960303753 8952.888752650044 17.909766349180227 0.2728752662625161
0.8387271541898842 12.994138838877276 7804.902435715528 18.741890104756408 0.2767617506529953
0.8629104762363944 12.99842321897162 6811.459064871649 19.609935847213603 0.2807107937990868
0.887394421889087 13.003368824850535 5952.900529016384 20.515970805839864 0.2847285811361589
0.9121535657990685 13.008857429695128 5209.031118957038 21.46178997043867 0.2888181277244796
0.9371759493172904 13.014762373858854 4563.35381526131 22.44885178914223 0.2929791456608072
0.9624633269259805 13.020964074379796 4002.885579976844 23.479234032561145 0.2972158510820811
0.9879836649770604 13.027366519405655 3515.0385744772043 24.555335189439226 0.3015341429225045
1.0137312886281427 13.033811097564236 3090.588321203202 25.679066948624463 0.3059354218267657
1.0396958082621757 13.040269602479817 2720.1543456083136 26.85245318889242 0.3104214076979734
1.0658511004062288 13.046592328866195 2397.095509229459 28.078562218762 0.3150006136169847
1.092186752710973 13.052727346984948 2114.6851391436476 29.35941202708947 0.3196732265902115
1.118687081865803 13.058557399068135 1867.5497287482037 30.697834260128314 0.3244444475005648
1.1453209999052325 13.06402124824903 1651.3261049188345 32.097152237710226 0.3293218133608386
1.1720870577660296 13.069023989028706 1461.339081488525 33.55938925038452 0.3343035522803706
1.1989449123564022 13.073477668106918 1294.7815369061873 35.089050526018376 0.33940297590065277
1.225893659353934 13.07734214543021 1148.4803461524125 36.68811238590629 0.3446165550854761
1.2528909024492734 13.080510812342503 1019.6718766983689 38.36167409540519 0.3499590147068134
1.2799359343604515 13.082943185133537 906.2618715203067 40.112028806276335 0.35542723295268347
1.306989206052171 13.084549050656136 806.3988687492083 41.94454994035223 0.3610351935454887
1.3340205488426111 13.085243724614786 718.1520872005428 43.862825644993336 0.3667854076832251
1.361030909701283 13.085028340151192 640.2956521034462 45.871443157258405 0.3726850598998489
1.3879704104405286 13.083782599996416 571.4854116557295 47.97578927079621 0.3787443971478058
1.4148160407840402 13.08145891575415 510.5925613569061 50.18068322980922 0.384969380930602
1.441546625158653 13.078013412765426 456.6314913846874 52.49123092958336 0.3913663829914438
1.4681430419379935 13.073410104536903 408.78726779439194 54.913909232962276 0.3979473999207025
1.4945527529088294 13.067538037633021 366.32872774358066 57.454911470063976 0.4047214985481458
1.5207662936596598 13.060387194761715 328.67336267243587 60.12086939012361 0.41169845626782825
1.5467504431453445 13.051891359913373 295.1340923008364 62.918892631658764 0.4188888195521159
1.5724676916878868 13.042003231083152 265.32276231367797 65.85661197214108 0.42630396724421027
1.5978815260301018 13.03066351637865 238.77968257973467 68.94222674092941 0.4339561791884878
1.622979815066832 13.017840268192947 215.11633589255925 72.18455682693453 0.44185871082648615
1.6477324809745917 13.003491291877985 193.9779009313453 75.59309976657622 0.45002587446224734
1.6720796861862421 12.987549456600783 175.14115428328498 79.17769762697876 0.4584714751025419
1.6960174144999534 12.969986696558138 158.27237734285185 82.94874952871665 0.4672096390289329
1.7194961390850156 12.950767873349363 143.19612499060344 86.9189030049232 0.4762615126662942
1.7424786213651111 12.929819399308428 129.70684335314317 91.0996370300693 0.4856410253569321
1.7649604038410691 12.90715599992622 117.60711787403815 95.50526103382184 0.4953709528262297
1.78688699020144 12.882713605926295 106.76071618867306 100.1492363777496 0.5054679798807695
1.8082225431016556 12.856443300310263 97.0255786302436 105.04820670647644 0.5159582480089252
1.8289357774908073 12.828306774632969 88.28114632574272 110.21872521783293 0.526864312072874
1.8490082811992992 12.798314585358849 80.4173583967948 115.67856923126747 0.5382100527231751
1.8683811785382272 12.766364528019372 73.3429072017705 121.44770285738413 0.5500238645338302
1.887056797967638 12.732534627771951 66.96882569140674 127.54756763248152 0.5623355970589512
1.9049787137308591 12.696703478827324 61.2232040509604 134.00084906058524 0.5751753904116826
1.922117773534995 12.6588720540698 56.041573786999216 140.83315846790813 0.5885792358415066
1.938427945699685 12.618968032068052 51.36309596906 148.07218721509483 0.6025854009180043
1.9539207551803601 12.577109808885668 47.13747245713481 155.74631139624253 0.6172291820305669
1.9685332001477411 12.533168298392548 43.31723022963042 163.88934090348368 0.6325586909960003
1.982243612376572 12.487152375503486 39.85642203606821 172.53524180738336 0.6486160772818966
1.995026794166314 12.43905592911459 36.7246127187421 181.72301610626485 0.6654534725365777
2.0068597336430227 12.388882369124827 33.88396730109788 191.49486136551926 0.6831258789238641
2.0177013130993826 12.336592104713302 31.311025397944785 201.8968517044229 0.7016925821710273
2.027532881687195 12.282196532064034 28.974547278596035 212.9787937014407 0.7212157019844377
2.0363370589502505 12.22570867049381 26.855045638702325 224.79659056481657 0.7417668368634133
2.044075291412391 12.16709790824176 24.92878678765305 237.41108323588392 0.7634219523248419
2.050727770999829 12.106372455766042 23.175115706782186 250.88938602260004 0.7862643303831037
2.0562943286950417 12.043607760487875 21.5827581701437 265.30483507676837 0.8103827589718302
2.0607347628903088 11.978741184075972 20.132541831391215 280.7387667174351 0.8358754531574616
2.064032536437048 11.911828135451193 18.81158100380381 297.28147329208474 0.8628510329186477
2.066186196658414 11.842909714985037 17.609596751410955 315.03329080200757 0.8914296430717088
2.0671728570353376 11.77200098552307 16.515328105718794 334.1034907510348 0.9217364587809574
