M[M_sun], R[km], Lambda[1], P_c[MeV/fm^3], rho_c[fm^-3]
0.24162668629717493 15.618656898711224 2160425.4255784233 3.5677272577965504 0.1711233750220791
0.2536414003740741 15.277360057180614 1723057.1585817188 3.784794987557406 0.17388786619607693
0.266036929974329 14.981320009164982 1383078.7330640422 4.011349733581454 0.17666603574302295
0.27881096610639555 14.723616167461595 1116478.7637317362 4.24764835322232 0.17945658794682676
0.2919629438279859 14.498530814796208 906007.487703436 4.4943156315008554 0.18226608178755022
0.3054967305566525 14.301333896023333 738731.2431258359 4.7515049653804144 0.1850901802981523
0.3194113090790691 14.128249383762503 605237.486609712 5.019902251916408 0.18793558167425942
0.3337077431759239 13.976085767489277 497767.7840021579 5.299726555458359 0.19079881141612387
0.34838681140822053 13.842145224646904 411077.1214842161 5.5917122323773425 0.19368628252569764
0.3634471618867887 13.724109947504282 340724.4556579053 5.896019297495307 0.19659292396433709
0.3788991576244494 13.62012061412008 283366.49296883494 6.213514783089574 0.19952647877689075
0.3947282172083785 13.528556639286158 233346.35546092346 6.544461252457996 0.2024832171435137
0.4109507650224862 13.448000990547367 197919.126778965 6.8895507701260605 0.20546667596403612
0.42755698227382316 13.377146112634744 166128.1644885839 7.249492868433983 0.2084800113310411
0.4445489400745292 13.315016300080874 139844.22964455848 7.624553941590289 0.21151888917439965
0.46192713988870643 13.260664280695218 118013.55676481627 8.015668087091935 0.2145892418195938
0.4796892124892859 13.21324211975111 99842.86095560568 8.423546882396742 0.2176928260919242
0.49784292860467994 13.172069188144247 84671.21197229202 8.848641305286073 0.22082725714555623
0.5163782478319507 13.136476820058498 71962.2907976153 9.291804338521729 0.22399565693173112
0.5352947164994615 13.10589682547666 61298.60835924718 9.753929914996407 0.22720108206659204
0.5545961007320513 13.079896944927304 52319.3968977113 10.235827219154974 0.23044488283873427
0.5742753321441848 13.057927459859204 44748.02409882695 10.737981509750195 0.23372393697646998
0.5943306877747636 13.039567456122784 38344.93852997848 11.26160915633241 0.237044078580744
0.6147641064315553 13.024547285383376 32915.80554611593 11.807660615928134 0.24040709355540535
0.635562241697069 13.012468042313333 28306.86082271221 12.377114376972088 0.24381461392326023
0.6567307066601831 13.003038859831976 24381.448297677438 12.970678770424069 0.2472648106156721
0.6782595486070063 12.996011927930441 21037.786292958845 13.589641643455884 0.2507620359861105
0.7001434796044207 12.991061874986599 18045.211255014092 14.235218476101558 0.25430913645118897
0.7223725804548351 12.988015886931262 15736.533398128964 14.908598281648503 0.2579080953423084
0.7449569446162619 12.986645464740784 13640.953721432768 15.610835185673883 0.2615590576988698
0.7678736673645179 12.986753107667127 11841.655732433172 16.343145953784813 0.26526342846937534
0.7911147197344871 12.988122032725986 10294.316261500942 17.10716923891216 0.2690261355320507
0.8146858839149034 12.9906555684748 8962.483787625239 17.904359197253847 0.27284960971325534
0.8385632376504566 12.994117264585089 7811.2189556377125 18.736109871197705 0.27673519347056624
0.8627405179904426 12.998387945576647 6818.410115995539 19.60370737526574 0.28068285057354847
0.8872098548744605 13.003337784393894 5958.785590119203 20.509264118087305 0.28469919139053884
0.9119674584266582 13.008829604994945 5214.1999676145415 21.454573036686707 0.2887872269040838
0.9369830151501856 13.014715990644076 4567.861607871765 22.441154672387704 0.2929471762198826
0.9622584130642934 13.020913806192148 4006.9684230109365 23.47096014008461 0.2971822483463209
0.987778478798717 13.027302101780894 3518.743146310345 24.546445576978616 0.3014988287122957
1.0135167523089972 13.033763256755261 3094.038401756077 25.669596026495288 0.30589887171427255
1.0394751862571197 13.040220774549878 2723.1936957064527 26.842285174105875 0.3103829947690596
1.0656260692653579 13.046548517539565 2399.7035946612223 28.06764951552368 0.3149602427824991
1.0919508790224162 13.052674183704621 2117.156402493727 29.347793311693877 0.319631406348715
1.1184451315173078 13.058509026601739 1869.8129879436722 30.68537081835172 0.324400481902087
1.145071792084758 13.063963885511278 1653.2209324185535 32.083884747310194 0.32927622757061936
1.1718310231611426 13.068978701953206 1463.1399386301132 33.54516208720145 0.33425560527356174
1.1986828356531811 13.073440697235972 1296.3166854270185 35.073796541802345 0.3393525351102148
1.225625491363082 13.077313784253068 1149.8218747502817 36.67187584610369 0.3445641785214353
1.2526174377330943 13.080474557335592 1020.905275601874 38.344327636269 0.34990422531189885
1.2796559915952606 13.082925781101823 907.3577663495344 40.093498914153365 0.355369907656892
1.3066955462169523 13.084518160561004 807.3242089436367 41.924819464876144 0.3609755453289705
1.3337296015172673 13.085237225925756 719.1236600220439 43.84167337852262 0.36672253220812745
1.3607344777231885 13.085037264843246 641.0958776908261 45.848913420241985 0.3726195464850386
1.3876634197507194 13.083787274522834 572.2253480244207 47.95178583378764 0.37867607561760136
1.4145162965344154 13.081504051838847 511.18601555958725 50.154942892325515 0.3848972536683289
1.4412379090178047 13.078060794537448 457.20030213632646 52.46379455307413 0.39129105298107136
1.4678308370729978 13.073469642188064 409.3213191105727 54.884655334464064 0.39786865368714425
1.4942369264314637 13.067613529055155 366.78081942098765 57.42370872644455 0.4046391061137904
1.5204480921164458 13.060479802765258 329.08997301751396 60.0875757570761 0.41161216979734727
1.5464300651252756 13.05200481554753 295.52146605484376 62.88335437478764 0.41879837186296215
1.5721451077686242 13.042138180023608 265.6770334220571 65.81866260035191 0.42620907016840043
1.5975677758089921 13.030824221539397 239.10957154659187 68.90168583114261 0.4338565217695668
1.6226554306209349 13.01802157360581 215.40838927003415 72.14122872779112 0.44175395733364503
1.6474060259726506 13.003692375625107 194.2532146581547 75.54677216727957 0.44991566220140666
1.671756101593381 12.987774687265436 175.3677734928838 79.12838187531997 0.45835642201813076
1.6956948943645556 12.970241211767263 158.491683652729 82.89596448468868 0.4670883391514916
1.7191563723395231 12.951010943809717 143.4000275644247 86.86237695248279 0.47613350896886364
1.7421632307774686 12.930126570327488 129.89093281759713 91.03934644039374 0.4855069009870723
1.7646431949036234 12.907496530571585 117.7691078340267 95.44062512235557 0.49522912720397505
1.7865733315387173 12.883076899290796 106.90978419530471 100.08019886466859 0.5053189999226484
1.8079136991147242 12.85684178635877 97.16237251430006 104.97440960687962 0.5158015397132466
1.828628414199431 12.82872668791106 88.40386618054427 110.13969620789449 0.5266989499228727
1.8487100558284522 12.798782528500897 80.5296599134087 115.59372321076157 0.5380347901229207
1.8681006172342343 12.766900415079192 73.44216278157981 121.35680360827422 0.5498388269735011
1.8867753707808508 12.733074078611475 67.06412677519472 127.45023022659107 0.5621404379540951
1.9047025829609283 12.69728118340673 61.30598668452725 133.89662252521083 0.5749696148688016
1.921849797656701 12.65949301954421 56.11973730353724 140.72121148926755 0.5883611205558303
1.9381706370192502 12.619626730720206 51.43506098082502 147.95184942371938 0.6023539251891151
1.9536741217266695 12.577819755134765 47.202384821318574 155.61724284628914 0.6169845842084613
1.9682979065386004 12.533911122859266 43.37297565381719 163.75067973295694 0.6322995498347265
1.982023425304369 12.487943094348697 39.91216433050017 172.38587154724297 0.6483402814283539
1.9948189878034917 12.439892736157024 36.77404146334696 181.56231555560294 0.6651607542553077
2.006659280925118 12.389750655187223 33.93213648120263 191.32178699538213 0.6828147410529537
2.017521965201182 12.337519666631938 31.353148756321097 201.71025238314047 0.7013613867822562
2.0273681929794765 12.283168471766322 29.014780394101535 212.77786875163847 0.7208641958057166
2.0361890595249434 12.22673054616928 26.891138682963504 224.57948032626112 0.7413915566474085
2.0439448928015653 12.168168336996507 24.96109151716201 237.17673003672547 0.7630223585922251
2.050616125020181 12.10749903408578 23.205470653288803 250.63587937582767 0.7858374330218442
2.056195528581247 12.044762045231614 21.609682645332494 265.03027386753365 0.8099259748210972
2.060661483885303 11.979967343676703 20.157260834091666 280.4417621753016 0.835388296581161
2.063987085672167 11.91311767460481 18.835437200595447 296.9592458469005 0.8623289667203764
2.0661564795540808 11.844237960493398 17.63181735533164 314.6832530734107 0.8908693015153477
2.0671621587248077 11.77338212290048 16.5343775438838 333.7233341539196 0.9211360318025087
