M[M_sun], R[km], Lambda[1], P_c[MeV/fm^3], rho_c[fm^-3]
0.24162668629717493 15.618656898711224 2160425.4255784233 3.5677272577965504 0.1711233750220791
0.2536454241769426 15.277248610924188 1723103.5795141684 3.784855905364367 0.17388862550715298
0.2660434566122802 14.981187173896373 1382859.3969609425 4.011477795391879 0.17666758329442503
0.27882151418395706 14.723400689536529 1116354.5822779574 4.247847892001214 0.17945890229596342
0.29197826297825336 14.498258594372372 905841.3166506512 4.494591883746738 0.18226915792042292
0.3055155669438679 14.301089484341524 738537.9312163418 4.7518673116520995 0.18509409432943474
0.3194349105285764 14.127965601697008 604972.7396636149 5.020353361812299 0.18794026211354173
0.33373608177181113 13.975790670340574 497567.8344206502 5.300278306056557 0.19080436662912792
0.3484194374895213 13.841872009777616 410910.2568155483 5.592366001737698 0.19369260792410484
0.3634832033903143 13.72387396501716 340550.6601903901 5.896789774139439 0.196600160444029
0.37894053778287173 13.619870637058542 283220.6635116897 6.214411291529096 0.19953465385439279
0.39477805835927027 13.528302041540538 236345.4232438459 6.545482862360652 0.2024921752822326
0.41100504260501886 13.447746427858242 197810.0519652578 6.890717204476949 0.20547660980844346
0.42761628754747355 13.376923035056732 166027.35920893052 7.2508150736672965 0.20849094959608414
0.44461492918873297 13.314800049526239 139746.7146257448 7.626028263704578 0.2115306257264154
0.4619979953703492 13.260442472101527 117927.6664034149 8.017320242903539 0.21460202258050715
0.479768809500969 13.213049153721693 99768.65565930345 8.425389756058829 0.21770668192557296
0.4979288179567508 13.171887876345993 84606.02421417244 8.850668102198043 0.2208419320211826
0.5164719194129824 13.136312361759659 71910.14461182948 9.294047860025788 0.22401145146298695
0.5353943763562221 13.105759206755156 61249.5386784856 9.756405373811296 0.22721803036797547
0.5547043350851976 13.079738642108182 52277.55075890263 10.238542457484838 0.23046291385260229
0.5743913236804031 13.05777533610046 44707.21095383454 10.740941283931422 0.23374293964353676
0.5944529958666751 13.039490773207763 38307.5832571321 11.264849684198033 0.23706432545748998
0.6148936824627774 13.024461150257796 32885.08250518698 11.81120104232139 0.24042862525494735
0.6357015303586405 13.012408351140397 28276.434893583493 12.380975041191974 0.24383747320257892
0.6568770829675707 13.00298874087998 24356.93656552325 12.974841943600488 0.247288605606359
0.6784150757081431 12.995951811956857 21015.419902709364 13.594166446477171 0.2507872288770658
0.7003075896902322 12.991049528035807 18161.683363653814 14.240129171973953 0.2543357772159633
0.7225471653784593 12.988000135030473 15719.619083002766 14.913920692395259 0.2579362369342244
0.7451389263095469 12.98664132263481 13625.338413175483 15.616544859526579 0.2615882417642284
0.7680638876843536 12.98675467883172 11827.975051579433 16.349320215651087 0.26529420561622036
0.7913147759962057 12.98815267092557 10282.83164631545 17.11383907842029 0.26905856870298156
0.8148927121803836 12.990687103292938 8949.848738549848 17.91155765870154 0.27288376589811
0.8387816550937494 12.994142715271824 7802.085488501903 18.74380502570777 0.27677054872396006
0.8629671243614679 12.998418724877215 6809.312205115171 19.611999283959086 0.28072005113842236
0.8874525182206172 13.003381403562665 5951.039749661941 20.51819269269849 0.2847383177888824
0.9122145890397628 13.008872929968355 5207.502865813285 21.46418092213652 0.2888283650872613
0.9372399670437427 13.014783431230542 4562.178687295567 22.451401844389874 0.2929897371385246
0.9625275289443418 13.020987272391306 4001.4747830892247 23.481975200617555 0.2972269837800386
0.988053693473446 13.027366452308543 3514.0175051408555 24.5582803767787 0.3015458427536582
1.013801711611106 13.033835401775848 3089.799032474032 25.68220475288911 0.30594753121772994
1.0397700003414359 13.040290409142298 2719.260046285296 26.855821980298067 0.3104341343852872
1.0659269484995675 13.046616585792272 2396.447157793945 28.082177771544206 0.31501398911888895
1.092264608612376 13.052734744510701 2113.8979665629936 29.363261524635515 0.31968708241777377
1.1187667841915498 13.05857433499086 1866.8288967587775 30.70196367399984 0.32445901427557594
1.145403687559526 13.064041776450829 1650.5923649601211 32.10154808758816 0.3293369170680454
1.172171287595289 13.069032652861067 1460.8910389683515 33.56410311349132 0.3343194384850602
1.1990312055196033 13.073489059995202 1294.3641892583398 35.09410465808326 0.33941968854521304
1.2259820229502387 13.077356353813425 1148.055116236241 36.693492116925256 0.34463390926497883
1.252981843103711 13.080520659182746 1019.2863918227313 38.367401263974685 0.3499770490115949
1.280028703207156 13.082946736531138 905.8913966937413 40.11816852710796 0.35544622719778834
1.307082791846955 13.084551990566839 806.03417458444 41.95108752383425 0.3610549576507944
1.3341176592874038 13.085237372817636 717.9116556456747 43.8698344108553 0.36680624136003365
1.361128496630778 13.085028439297673 640.0368214893708 45.878908416000236 0.3727067678581914
1.3880698100157836 13.08377835895645 571.2459227661743 47.983742918479365 0.37876703579660537
1.4149165697347286 13.081447469788385 510.33201221297963 50.189212508957716 0.3849932809107221
1.4416502143937493 13.07799743975496 456.4461751035297 52.500322296423136 0.391391344478545
1.468246390482778 13.073390081780705 408.62719432307966 54.92360295590837 0.39797349367949536
1.4946586016937278 13.067511456153424 366.18066052355624 57.465251079958236 0.40474880081489084
1.5208714301389614 13.060353147094661 328.5237741742341 60.13190197239228 0.411727049199783
1.5468569125370173 13.051855413295387 295.0112778359648 62.930669147628514 0.4189187917215334
1.5725746842447734 13.041960461038395 265.19730987761557 65.86918761275999 0.4263354141816668
1.5979889328512238 13.030610899749542 238.66041548759176 68.95566131653827 0.43398920398088925
1.6230981401983622 13.017790484194819 215.0185680323091 72.19891519717679 0.44189342477572735
1.6478398220231736 13.003422620686706 193.89252670774408 75.60845231504821 0.4500623978112327
1.6721873673739143 12.987475215695609 175.0630105007933 79.19404058823234 0.4585096030441709
1.6961250584003467 12.969906535279529 158.19873590769998 82.96624241251602 0.46724983762495637
1.7196040828010901 12.950675479689668 143.1328620517029 86.9376358932351 0.47630393344156424
1.7425883203336008 12.929724014502462 129.64554028246954 91.1196177190743 0.48568547503534093
1.7650646809799904 12.907045941997076 117.55012247160492 95.52668207902828 0.49541795538249966
1.786974153271007 12.88256006854372 106.71223057164669 100.17211643337562 0.5055173540481873
1.808324733723015 12.856310846921557 96.98507286923437 105.07266445974233 0.5160101840992508
1.8290378775640268 12.828163377493333 88.23846946463408 110.24489013024498 0.5269190159446578
1.8491066481968201 12.798161891604263 80.38516713765114 115.70668958257647 0.5382681396653922
1.86847787124037 12.766198007009367 73.31018921762359 121.47782982503661 0.5500851919996688
1.8765019106046075 12.739434134013628 69.83296757563467 129.6154183049246 2.4455165666010545
