M[M_sun], R[km], Lambda[1], P_c[MeV/fm^3], rho_c[fm^-3]
0.24162668629717493 15.618656898711224 2160425.4255784233 3.5677272577965504 0.1711233750220791
0.2536435574057953 15.277298900890514 1723152.5007033055 3.784811355194795 0.17388807021078098
0.26603861860061 14.981311610916325 1383029.7709201474 4.011384141448006 0.1766664515417841
0.2788133392684189 14.723547146290286 1116427.99119807 4.247701965210751 0.17945720976510102
0.29196674039306536 14.498463468571067 905916.2643364054 4.494389854245272 0.1822669082750355
0.3055030336533052 14.301229171095553 738685.0659086376 4.751602318870716 0.18509123190164947
0.3194182967931361 14.128150869874835 605138.1710281606 5.020023453085855 0.1879368391831718
0.33371489569794893 13.975986938799624 497692.29257813306 5.29987479494212 0.19080030394175157
0.3483954746021363 13.842073307505686 411033.8500682342 5.5918878800895415 0.1936879819656322
0.3634575568801568 13.724015906653785 340667.5535800823 5.896226299292001 0.1965948681690179
0.37891069153845985 13.620030605967425 279400.21839910647 6.213755643679431 0.19952867513545522
0.39474062866289206 13.528508635351942 236429.3927142086 6.544735721563956 0.20248562386678337
0.4109651774894087 13.447909410694374 197885.83903245645 6.889864145933149 0.20546934480391235
0.4275716330210773 13.37710539530904 166096.81391827637 7.2498480912447745 0.20848294999831898
0.44456589900964416 13.314970121002506 139815.67043733015 7.624950029419928 0.2115220422882072
0.4619470330064709 13.260604290709669 117990.86310446211 8.016111948087936 0.21459267544324406
0.4797101192120412 13.213205708181167 99834.44825365406 8.424041977260762 0.2176965485131717
0.4978662468980918 13.1720158137568 84654.08490945732 8.84918580837444 0.2208311995805643
0.5164041209118657 13.136425453180193 71947.35376476194 9.292407060833076 0.22399990013437837
0.5353208977034017 13.105869134373235 61283.73533103792 9.754594942588875 0.2272056351975097
0.5546268278134616 13.079840231031364 52307.6546663806 10.236558886348043 0.2304497554568158
0.5743072884579359 13.057873104884528 44736.831727533 10.738776637376063 0.23372904194212776
0.5943628230157004 13.039540311083453 38334.21949617575 11.262479700859366 0.23704951775870206
0.6147984147955249 13.024517788287342 32906.67187871139 11.808611719398083 0.24041287785138374
0.6355986299698733 13.012441694114239 28298.97278136445 12.378151502195244 0.2438207548186643
0.6567703881755776 13.003025361377746 24375.33560591244 12.971797154804696 0.24727120284217668
0.6782995927069531 12.99598851723259 21031.397577301497 13.590857166725678 0.25076880369401855
0.7001875997879783 12.991059589286612 18039.68698625309 14.236537654765451 0.2543162930598231
0.7224202558494877 12.9879939271901 15732.956641436314 14.910028050870158 0.2579156550711389
0.7450057231722745 12.986642713630946 13636.472920212515 15.612368977277395 0.26156689742414274
0.7679252640594129 12.98676100970018 11838.016847575025 16.344804536272928 0.2652716960870917
0.7911686363909067 12.988130154153627 10291.218628884042 17.108960935147113 0.269034847944122
0.8147414843803727 12.990651569429074 8958.198775574832 17.90629288184259 0.27285878490836385
0.8386219032672427 12.994121861929855 7809.189111108706 18.73817696797181 0.2767446907106986
0.8628004408017091 12.99839357989534 6773.737365761519 19.60593475834465 0.28069284343668655
0.8872749495950832 13.003340490552478 5956.66042933496 20.511662506187566 0.2847097014990701
0.9120336881979098 13.008844289719907 5212.396838515001 21.457153882448665 0.2887982773382572
0.9370519119761728 13.014722024692503 4566.31858716968 22.44390722577017 0.2929586087595671
0.9623288953920895 13.020937116635297 4005.3511791259507 23.47391893924118 0.29719426490884066
0.9878523098994989 13.027324758419557 3517.3961904573994 24.54962454649603 0.3015114572490607
1.0135933046753245 13.03378026034769 3092.5692546087103 25.67298286211236 0.3059119421651866
1.0395555993312413 13.040238444093362 2722.13773999835 26.845921274900455 0.3103967313031105
1.0657063918113054 13.046555232338939 2386.675821355604 28.071551899157523 0.3149746793964472
1.092035019182467 13.05269124422453 2116.259209613935 29.351948148843288 0.31964636121136986
1.1185319945640464 13.05852430922433 1869.0926504393626 30.68982770629493 0.32441620386310577
1.1451610655218016 13.063978144294369 1652.5396933051009 32.08862914130748 0.32929252884109
1.1719212527191472 13.069001060821712 1462.5573981067796 33.55024962989602 0.3342727508169901
1.1987768775969516 13.07345610558165 1295.7880259440014 35.07925124101743 0.3393705723217468
1.225720769186284 13.077326367259932 1149.364712143392 36.67768187467624 0.3445829078708564
1.252715642100156 13.08048443437152 1020.4665257254993 38.350551784713225 0.3499239420497012
1.2797554178090627 13.0829282955864 906.944647166908 40.10012495947723 0.3553904064275053
1.306797705920771 13.084518611134152 806.9808397922222 41.931874791923285 0.36099687465151137
1.333833461083979 13.085240620378142 718.7316997781155 43.84923707548507 0.3667450154271559
1.3608418252121444 13.085032850725987 640.8202535897872 45.85696964095085 0.37264297288050513
1.387770558464832 13.083781429787729 571.9573792604989 47.96036898276177 0.3787005060302825
1.4146265098513022 13.081492393766291 510.9746915616247 50.16414706924747 0.38492304478638545
1.441348495493 13.078043640938354 457.01025179997936 52.47360514886764 0.39131798920140776
1.467942001679516 13.073451921927436 409.13514714509574 54.89511578146448 0.397896811329199
1.4943507014758024 13.06758931853157 366.65257398554905 57.434865974675446 0.4046685673962232
1.5205615657686753 13.06044588852442 328.9333894391824 60.09948058915835 0.41164302332242153
1.5465444065196332 13.051965952019618 295.3771844169829 62.896061752267634 0.41883071314893006
1.5722604912639555 13.04209091968182 265.5447718967128 65.83223204494622 0.42624300223503697
1.5976839937215483 13.03076808901059 238.99244526624105 68.91618184482259 0.4338921557826066
1.6227713631972864 13.017952606700623 215.3055854807873 72.15672125611529 0.4417914133145669
1.6475231516416995 13.003618883660607 194.15999508014883 75.5633371109243 0.44995506980977623
1.671871191298016 12.987691227927879 175.28451666249822 79.1460151793064 0.458397560314593
1.6958099241437037 12.970151259446574 158.42219999333741 82.91483815244378 0.4671317107850238
1.7192740897282253 12.950912515345284 143.3292914001401 86.88258811943159 0.4761792773179193
1.7422765395501136 12.930014556437632 129.8194392602347 91.0609035200796 0.4855548575544975
1.7647570820325449 12.907374591306677 117.71429680251654 95.46373573448733 0.4952798370473411
1.78668437509269 12.882947208365147 106.8534896315371 100.10488313084987 0.505372267498171
1.808023952008369 12.856698381453649 97.11432080778786 105.000795500309 0.5158575702132508
1.8287360996400197 12.828574116205884 88.35733497766225 110.16800516426272 0.5267582699327866
1.8488168071029656 12.798617411643429 80.49054841819549 115.62405920250954 0.538097453813726
1.8682043312031484 12.76671696805882 73.40402124013386 121.38930367007538 0.5499049851893842
1.8868768573978727 12.732878592403516 67.0308642715793 127.48507678419027 0.5622103747171512
1.9048021747227302 12.697073911041235 61.276810908828935 133.93388713922596 0.5750431867874274
1.9219461668895481 12.659270063491071 56.09251931616351 140.76123614291802 0.588439103801748
1.9382620426489663 12.61939222124216 51.40857663777342 147.99487374435117 0.6024366846104439
1.9537621883568255 12.57756252814215 47.17778610032307 155.6633883557954 0.6170720345682063
1.9683819411651968 12.533645326969069 43.3519473946418 163.80030574126388 0.6323923725730398
1.9821010823344736 12.48765834291921 39.89247388019165 172.43927465272193 0.648438884423646
1.9948944187697586 12.439595004217704 36.75708105306614 181.6197690451544 0.6652654065831635
2.0067269596690984 12.389430822698259 33.91488189317085 191.38366386724277 0.6829259778475991
2.017586041223967 12.337187639493624 31.337628383195273 201.77696409169116 0.7014797934843662
2.0274262785608315 12.282816949109515 28.999358418756408 212.84970149622865 0.7209898628947605
2.036241106095676 12.226366639894595 26.87788761312985 224.65709878827025 0.7415257220068248
2.043992013093924 12.167784448471657 24.950494171712442 237.26051226449013 0.7631652149869304
2.0506570996577738 12.107094978126181 23.19444871604507 250.72661234798295 0.7859903883037166
2.0562345771912613 12.044364051372897 21.599918936426636 265.12845157208835 0.8100893482254806
2.0606878260547106 11.979530714408531 20.14852887906445 280.5479395576288 0.8355624522007469
2.0640001777288677 11.912647528666335 18.82701518144049 297.0744391120542 0.862515600450383
2.066167035839189 11.843763313052916 17.6236916615205 314.8083869456262 0.8910696162328262
2.0671664937683123 11.772886580816575 16.5283675377766 333.85923372636285 0.9213506743216014
