M[M_sun], R[km], Lambda[1], P_c[MeV/fm^3], rho_c[fm^-3]
0.24162668629717493 15.618656898711224 2160425.4255784233 3.5677272577965504 0.1711233750220791
0.25364594013074465 15.277254894192739 1723312.2672149865 3.7848592020437826 0.17388866659867153
0.2660438315637559 14.981184118110397 1382955.7534011533 4.011484725776251 0.17666766704403014
0.2788224217780096 14.723365319304389 1116334.870489649 4.2478586906655975 0.17945902754419701
0.2919790837761838 14.498274880242166 905790.8681735743 4.494606834169439 0.1822693243968495
0.30551661935891966 14.301085527037111 738528.1913623471 4.751886921600046 0.18509430615429873
0.3194365871748019 14.127957348164442 604971.147389491 5.0203777758559065 0.1879405154186671
0.3337366181791936 13.975811714256903 497563.9961020525 5.300308167104078 0.19080466728032802
0.3484212112164355 13.841857031652884 410900.97256687214 5.592401384466587 0.1936929502617403
0.36348761993430084 13.723805742425238 340559.4037848029 5.896831473653415 0.19660055209468882
0.3789441517468471 13.619843253769409 283210.86362054804 6.214459812626539 0.19953509630837826
0.39477961672706147 13.528292256335117 236331.06325750164 6.5455381547854365 0.20249266012210157
0.4110080168721534 13.447711501931742 197793.67129197143 6.8907803358839015 0.20547714746199713
0.42761990974372205 13.376906160855913 166013.67611060682 7.25088663668349 0.20849154161857708
0.4446183488787828 13.314793078794912 139751.50517405506 7.626108060648943 0.21153126096140182
0.4620021192355211 13.260427388375838 117921.90677763097 8.01740966593859 0.21460271433997868
0.4797725098770281 13.21304088299511 99767.38758383752 8.42548950274312 0.21770743188119554
0.49793342231537807 13.171880819167436 84603.36021070869 8.850777804841874 0.22084272631519627
0.516476927881973 13.136303964359502 71906.13801404502 9.294169294371853 0.22401230636835381
0.5353992133007723 13.105751848059185 61246.39955169376 9.75653936351748 0.2272189477324289
0.5547111074308927 13.079719563503145 52275.586678069456 10.238688442475592 0.23046387716909905
0.5743979749971234 13.057779388522146 44706.37354267488 10.741101491309847 0.23374396822453228
0.594459052786308 13.03945146147579 38305.67533007065 11.26502509004773 0.2370654213964131
0.6149018719643867 13.02447396897834 32881.74658858417 11.811392683243964 0.24042979075150242
0.6357100427734619 13.012392386111953 28274.65164044423 12.381184018476478 0.24383871057258721
0.6568854225531173 13.002982432266696 24355.48267868743 12.97506729756471 0.24728989363720777
0.6784213163507201 12.995956006069235 21014.314039270812 13.594411378038567 0.2507885925903785
0.7003164460902559 12.991039642813167 18160.426811166024 14.240394994917835 0.25433721931840736
0.7225556294016877 12.987993704110298 15718.016732607748 14.914208804941023 0.25793776029385873
0.7451487797251196 12.986637163123538 13624.303936892058 15.616853937950832 0.2615898215681134
0.7680747049569584 12.986765415240436 11827.873021700849 16.34965444669981 0.2652958716741702
0.7913257674656926 12.9881458583545 10282.44514507655 17.11420014018644 0.26906032442408456
0.8149037596828302 12.990681629627398 8949.159837591877 17.911947340560864 0.27288561491066887
0.8387937096452576 12.99414661744377 7801.659442627324 18.744221599012697 0.2767724626627554
0.8629775136346338 12.998439542079485 6808.943714737507 19.612448166808516 0.28072206499267216
0.8874655845726053 13.00338595652226 5950.63190556101 20.518676046420172 0.284740435919836
0.9122280419937827 13.008883421824823 5206.990295192634 21.464701056097226 0.288830592150257
0.9372537863431765 13.014776595850647 4561.955319763657 22.451956591485768 0.29299204124213585
0.9625428183507845 13.020989458406229 4001.2055447825574 23.482571524777256 0.2972294056296363
0.9880674017097808 13.02737180625385 3513.533938208938 24.558921085996676 0.3015483879872222
1.0138168808679604 13.033830012587982 3089.519062305719 25.68288736651422 0.3059501655551732
1.0397855687877537 13.040290022551932 2719.0808511084 26.856554846253633 0.3104369030209005
1.0659432100236221 13.046616599779773 2396.2552095496562 28.082964321786232 0.3150168989102525
1.09228075692709 13.052739418470434 2113.7302277967033 29.364098970789616 0.319690096709734
1.1187842771959517 13.058579687917051 1866.6649763151258 30.702862017888812 0.32446218324185555
1.1454218564807734 13.06404477158702 1650.4829924784194 32.10250439641188 0.3293402028509711
1.172189850952579 13.069041498711757 1460.7736048302966 33.56512860876974 0.3343228945098814
1.1990506102115244 13.073490869651259 1294.2653669742247 35.09520418202528 0.33942332437280764
1.225458654407089 13.077136361496184 1150.4857874434028 36.60505189055399 0.43379996733424386
1.2269097755083982 13.060025201725592 1129.4031388909355 39.3962136030832 1.5282365579474613
