M[M_sun], R[km], Lambda[1], P_c[MeV/fm^3], rho_c[fm^-3]
0.24162668629717493 15.618656898711224 2160425.4255784233 3.5677272577965504 0.1711233750220791
0.25364595678349966 15.277209946355603 1722984.7270267648 3.7848577357895246 0.17388864832251955
0.26604372040504437 14.981197330930158 1382950.1895592927 4.01148164336882 0.17666762979495546
0.27882155375985335 14.723373196796219 1116344.7833734008 4.247853887772637 0.17945897183787649
0.291978741748496 14.49826123228502 905724.028526253 4.494600184707939 0.18226925035355243
0.30551608777154843 14.301083663701732 738532.4996312502 4.751878199730493 0.1850942119414616
0.31943668341802267 14.127951356635304 604981.1173522669 5.020366917276891 0.1879404027567188
0.33373623942135444 13.97577095583986 497578.953588726 5.300294885869186 0.19080453356033023
0.3484204223193278 13.841863693477489 410905.1018777794 5.592385647360478 0.19369279800090955
0.36348570896554483 13.723824740361867 340555.9410830982 5.896812927037538 0.19660037790094761
0.37894251086312813 13.619844806941185 283217.1006963707 6.214438231980884 0.19953489951887465
0.39477726733336 13.528311835297403 236328.22611858437 6.5455135624611485 0.20249244448064016
0.41100662232935326 13.447717548081133 197798.01721789935 6.890752257019383 0.20547690833060406
0.42761849698284315 13.376930116781246 166026.05850572587 7.2508548076947275 0.20849127830551012
0.4446163058520359 13.31480408185148 139748.80165296304 7.626072569457167 0.2115309784286945
0.4620004527464459 13.260439256986906 117923.63417603864 8.017369893350129 0.21460240666685218
0.47977067125149625 13.21304490529063 99767.47525414052 8.42544513850301 0.21770709832412996
0.49793143034643716 13.171883902264192 84603.04563771641 8.850729012486248 0.22084237303769416
0.516474674106312 13.136302372720024 71904.95675170161 9.29411528410081 0.2240119261326785
0.535397475554939 13.105754397479581 61246.51653596832 9.756479768990207 0.22721853971674996
0.5547080243938365 13.079747663561722 52277.55148572566 10.238623512795932 0.23046344871524757
0.5743946106876012 13.057788714895786 44707.204293334005 10.741030235924626 0.23374351074288702
0.5944555037050132 13.03946722496743 38305.16469350814 11.264947074820816 0.23706493395586353
0.6148981208552144 13.024453992065881 32884.6085054419 11.811307447122285 0.2404292723736693
0.6357068555504597 13.012407720519128 28275.242998791542 12.381091071635487 0.24383816022744476
0.6568815150466467 13.002986379286854 24355.905961338303 12.974967066842568 0.24728932075950155
0.6784195093605085 12.995944071128216 21014.91492708722 13.594302439754037 0.25078798605119657
0.7003118479070073 12.991043161394714 18161.019856355877 14.240276764733013 0.2543365779138845
0.7225522390792823 12.987985909253299 15718.83261888583 14.91408066096379 0.25793708274834687
0.7451444314949416 12.986650262418612 13624.982773102733 15.61671646893561 0.2615891189176944
0.7680697069909406 12.986761277960273 11828.084358631839 16.349505790492643 0.2652951306602617
0.7913207496146214 12.988146317650413 10282.424627243015 17.11403955041383 0.2690595435304006
0.8148995428590295 12.990688294793767 8949.917395900262 17.911774021353224 0.27288479252342157
0.8387882727588818 12.994152911547655 7802.153274813379 18.744036319225092 0.2767716113979977
0.8629737185447721 12.998432719248756 6809.190020618113 19.612248516609938 0.2807211692881439
0.8874589063269109 13.00338738745512 5950.914504100691 20.518461064505065 0.28473949383575053
0.9122216915318031 13.008882802400027 5207.139152484563 21.464469715315722 0.2888296016160239
0.9372469863561961 13.014776502722421 4562.098691407809 22.451709855708362 0.29299101644218656
0.9625359484165161 13.020998153459182 4001.312857553453 23.48230629662236 0.2972283284592923
0.9880619834423362 13.02737592463241 3513.6766870505758 24.558636116535737 0.3015472559388353
1.0138100330432163 13.033830983205215 3089.670327946165 25.682583759076934 0.3059489938756012
1.0397796333514304 13.040293717351526 2719.1918047011404 26.856228887887532 0.3104356716088885
1.0659359432872588 13.04662012907622 2396.3706402132416 28.08261448603792 0.3150156047156992
1.0922729896460412 13.052738847201274 2113.787948948693 29.363726497858142 0.3196887560358802
1.118776707617351 13.058578854334723 1866.7932092361564 30.7024624592018 0.32446077377269633
1.1454138015128656 13.064036534972493 1650.557556122269 32.10207905640668 0.3293387414246075
1.1721810701555258 13.06904202975879 1460.8365693234448 33.56467249637746 0.3343213573640923
1.1990425239822082 13.073488640669497 1294.3255826343618 35.0947151435409 0.3394217072551185
1.225993034996815 13.077361717010305 1147.986766010043 36.69414193285776 0.34463600547058776
1.2529926065820098 13.080520305969747 1019.2577583486872 38.368093048480986 0.34997922737468623
1.2800400076500138 13.082947673709494 905.8584438316029 40.11891014607984 0.3554485215191284
1.307094063805742 13.084555031386786 806.0113828234516 41.95187720278087 0.36105734496988584
1.3341291508447448 13.08523776914667 717.8682182166393 43.87068100691629 0.36680875788135414
1.3611406139880649 13.085027061824679 639.9973947306195 45.879810154681124 0.3727093899917835
1.3880813738275093 13.083776448726129 571.1973050803513 47.984703652895476 0.37876977035688547
1.4149276275563767 13.081445447017988 510.310305385873 50.19024277828537 0.3849961678389162
1.4416615556534216 13.077997729130328 456.3932429082719 52.50142046454757 0.39139435963676666
1.4682585636429988 13.07338651923646 408.5957552007017 54.92477388740677 0.3979766456165016
1.4946718575878732 13.06750879555398 366.1527970008722 57.466500033543944 0.40475209874047
1.5208848456338218 13.060350512906329 328.512724247186 60.13323463621273 0.41173050303905734
1.5468703392722034 13.051850122435443 294.9946560829376 62.9320916780864 0.41892241217464493
1.572588113820681 13.041953330414318 265.18355955422174 65.87070667724977 0.4263392127894237
1.5980015355692057 13.030606038739815 238.6504316409019 68.95728414053836 0.4339931931970184
1.6231112708579276 13.017783439595531 215.00508114359909 72.2006496161923 0.44189761804645733
1.6478521574172424 13.003415952181737 193.87860214305965 75.61030683195874 0.4500668096630139
1.661971037113873 12.987399586336549 181.78053182835058 80.16456790064584 1.7265630914468242
