M[M_sun], R[km], Lambda[1], P_c[MeV/fm^3], rho_c[fm^-3]
0.24162668629717493 15.618656898711224 2160425.4255784233 3.5677272577965504 0.1711233750220791
0.25364505284283356 15.27727338321627 1723169.449816782 3.7848566275259548 0.1738886345085488
0.2660435098242196 14.981200830700253 1382926.5921991968 4.011479313542217 0.17666760164037593
0.2788215343134475 14.723387942182217 1116429.8542688026 4.24785025752489 0.1794589297324733
0.2919783997650017 14.498262040612186 905714.0170616386 4.494595158740918 0.18226919438824318
0.3055158050586514 14.301083597555671 738532.5307585832 4.7518716073457385 0.1850941407311245
0.31943540695934625 14.127973328496608 604980.1116671441 5.0203587098737374 0.18794031760174332
0.3337364216427445 13.975768925692762 497570.6703460842 5.300284847318113 0.19080443248877788
0.3484198260359848 13.841868728744465 410908.2231000944 5.592373752557116 0.1936926829154149
0.3634845504275872 13.723845400426102 340550.09175479674 5.896798908688154 0.1966002462376436
0.3789419070686392 13.619842674435324 283216.58307566075 6.214421920385253 0.19953475077676294
0.3947774238927746 13.528293747779081 236342.6433575321 6.545494974514474 0.20249228148945891
0.4110058485081595 13.44772263017506 195314.13528577294 6.890731033803297 0.2054767275847899
0.42761701031192245 13.376953171468797 166026.25046848803 7.250830749983278 0.20849107928222876
0.44461576451894835 13.314816390592194 139752.45774101577 7.626045743706199 0.21153076487846792
0.4619988346859515 13.26045679231878 117927.83847965696 8.017339831550157 0.21460217411452548
0.47976895667733654 13.213060467250257 99768.21792588384 8.425411606152988 0.21770684620773517
0.49792987725027293 13.17188703943518 84606.7005067233 8.85069213319458 0.22084210601586518
0.5164729904911313 13.136305181784875 71907.79656888891 9.294074460908408 0.224011638734859
0.5353943252199705 13.10578583804587 61243.82071911459 9.756434725004821 0.22721823132178284
0.5547055566635576 13.079735641707758 52279.03381277384 10.238574436301137 0.23046312487238677
0.5743923179799858 13.05777873473089 44707.241785024475 10.74097637822587 0.23374316495977795
0.594454313880288 13.03946801585904 38305.527156052405 11.264888107784456 0.2370645655287533
0.614895129258093 13.024459498811451 32884.78125379266 11.811243022270144 0.2404288805630778
0.6357037748420988 13.012398204910967 28044.40336522059 12.381020818743231 0.24383774425485674
0.656878828735159 13.002987840439893 24356.565153930012 12.974891308531104 0.24728888775605937
0.6784163049103892 12.99594875555691 21014.6368777444 13.59422009995833 0.25078752760527423
0.7003097804428972 12.991045048918958 18161.356319709488 14.240187401793351 0.2543360931155755
0.7225488491074685 12.98799211660869 15719.232105576844 14.91398380483583 0.2579365706334881
0.7451410915495705 12.986637848723282 13625.319786939797 15.61661256462131 0.2615885878277621
0.7680662237816439 12.986758679380014 11828.18630108834 16.349393430518003 0.265294570573969
0.7913165655433074 12.988149622878733 10282.545311061289 17.113918170648798 0.2690589533017059
0.8148958119759395 12.990687264212438 8950.005206197971 17.911643020257564 0.27288417093258965
0.8387844930360961 12.99415053601864 7802.0762410706475 18.743896277925163 0.27677096798068385
0.8629698870754731 12.998429295594372 6809.217590281412 19.612097613684515 0.280720492281887
0.8874554304683805 13.003391284825456 5950.974770405393 20.518298573373905 0.28473878177441914
0.9122176046816992 13.008873935462109 5207.377590698787 21.46429485963177 0.2888288529346211
0.9372432452062183 13.01477168422136 4562.260223593157 22.451523363994987 0.29299024186178146
0.9625306682886622 13.020988117132807 4001.4098143007154 23.482105827793024 0.2972275142958113
0.9880574425480229 13.027365950831395 3513.8076413008466 24.558420726618664 0.3015464002969451
1.013805395628445 13.033830207140209 3089.7546624408 25.68235428200133 0.3059481082793717
1.0397732898068652 13.04028704896116 2719.1295061305805 26.855982517306167 0.31043474086519596
1.0659311494301662 13.046610121041306 2396.433719813801 28.08235006822059 0.31501462651921525
1.0922674507101513 13.05274031148566 2113.8543850354595 29.363444970181835 0.3196877427091044
1.1187708128897345 13.058576236357528 1866.7978245845577 30.70216045932469 0.3244597084485607
1.1454074726178416 13.06403377044082 1650.5848579088379 32.10175757025736 0.32933763682986356
1.1721745748969743 13.069038995053242 1460.883917243262 33.564327751586255 0.33432019553860126
1.1990349227232706 13.073493446073654 1294.3480063045986 35.09434551229035 0.33942048498478017
1.2259865888026138 13.077353682655557 1148.0137633502422 36.693748488103964 0.34463473627871594
1.2529871355472286 13.080517797369971 1019.2718674769504 38.36767419292553 0.3499779084386963
1.2800331910021103 13.082949663159276 905.8860073911412 40.11846111713459 0.3554471323735827
1.3070872578154011 13.08455623947892 806.0190587578898 41.951399074852226 0.36105589951672146
1.334121686527349 13.085235813924584 717.8954130508815 43.87016841723997 0.36680723419974426
1.3611334170133176 13.08503054356182 640.0073253382503 45.87926417766608 0.3727078023647891
1.388074199136459 13.083775327317019 571.2260315209218 47.984121955581486 0.37876811465855387
1.4149216409035106 13.08144512686181 510.3407811549934 50.189618979475654 0.3849944198859073
1.4416550024837034 13.0780014308256 456.42542365371526 52.500755554866565 0.3913925340439028
1.4682515414447836 13.073391447251456 408.6167108573713 54.92406492147897 0.3979747372077287
1.4946630380487624 13.067511139819281 366.17434544112103 57.46574382735415 0.404750101939496
1.5208768693094616 13.06035329863014 328.51964803458844 60.132427745733914 0.4117284118364727
1.5468621826720923 13.051853208725097 295.0038125981672 62.931230375774014 0.4189202200917833
1.5725799782580148 13.041956464821881 265.18689225262466 65.8697869261662 0.42633691283861586
1.597993681719193 13.030609750159362 238.65719040298012 68.95630156583951 0.4339907778378442
1.6231034499365702 13.017786884195356 215.0101627632885 72.19959947367731 0.4418950791375599
1.647844984841552 13.00341970161053 193.88694212479473 75.60918397334733 0.45006413840898724
1.6721933143419412 12.987469594182203 175.05482541624457 79.19481944881872 0.45851142011700813
1.6961302079227645 12.969903827197992 158.19371833380438 82.96707607796527 0.4672517533857307
1.7044133787159905 12.95118177277368 151.33729496458784 88.53967402093832 2.1292181328796733
