M[M_sun], R[km], Lambda[1], P_c[MeV/fm^3], rho_c[fm^-3]
0.24162668629717493 15.618656898711224 2160425.4255784233 3.5677272577965504 0.1711233750220791
0.25364580278639953 15.277207174130648 1723122.7578864868 3.7848526307665478 0.17388858469087087
0.2660429556472124 14.981198253119471 1382923.7626138416 4.01147091143666 0.17666750010588883
0.27882037945242844 14.723414096278557 1116266.2032623074 4.247837165693732 0.17945877788696082
0.2919774775860215 14.498268445438397 905842.6255633335 4.4945770335172055 0.18226899255967052
0.30551476502344066 14.301113941923658 738526.4837211168 4.75184783314691 0.18509388392440343
0.31943345329396694 14.128007035886611 604998.0607035569 5.020329111439603 0.18794001050656522
0.3337339960516343 13.975831909491177 497593.0989126132 5.30024864523046 0.19080406799382535
0.3484176757320007 13.841886887759314 410919.4783108666 5.592330856291279 0.19369226788224256
0.36348373838994813 13.723824325056084 340593.5253595599 5.8967483543157195 0.19659977142027926
0.37893775572711147 13.619889745088834 283215.48074706184 6.2143630959297536 0.19953421436855806
0.39477330778182135 13.528333323008416 236344.76835280197 6.5454279409144 0.20249169369534423
0.4110021312324603 13.447739783944547 197804.58515586745 6.890654496711684 0.2054760757628002
0.4276133894551168 13.376929466633099 166033.469356838 7.2507439909499 0.20849036154698006
0.4446113522748654 13.314810537922925 139756.9186353101 7.6259490023983165 0.2115299947554527
0.46199373694622964 13.260457699645796 117936.7341794002 8.017231420216508 0.2146013354652129
0.4797637624345528 13.213060859972144 99773.59538434682 8.425290679136202 0.2177059370056218
0.4979243983226498 13.171898444792548 84608.12197182875 8.850559136267979 0.22084114306129138
0.516467531466168 13.136312299778266 71912.93347742697 9.293927241304614 0.2240106022996702
0.5353889047009806 13.105772787470599 61250.34383523599 9.756272284198113 0.22721711916603518
0.5546984306923081 13.079763741676118 52281.815214131784 10.238397453297557 0.23046195700816924
0.5743850521537199 13.057797763305553 44709.297713637294 10.7407821530743 0.23374191797414146
0.5944469524982042 13.03946113340807 38308.44796380164 11.264675457176176 0.23706323688390457
0.6148869624646316 13.024466660299163 32886.2511539997 11.811010689531729 0.2404274675923896
0.6356955985538766 13.012396664992274 28278.037314237037 12.380767468782011 0.24383624415093705
0.6568699497605331 13.003004019942225 24164.441862519983 12.974618104798877 0.24728732623555844
0.6784054375073322 12.995969016593873 21016.90027123449 13.59392316195715 0.2507858743340381
0.7002985679073477 12.991051146743217 18163.164064981407 14.239865136826275 0.2543343448124009
0.7225375336923766 12.987993295562713 15721.049786962598 14.91363451784862 0.257934723821522
0.7451291893843734 12.98664351866762 13626.3687286017 15.616237860390093 0.2615866725882833
0.7680542364035569 12.986764107083292 11829.196265285802 16.348988233442295 0.26529255076817354
0.7913046852130037 12.98814309543773 10284.029107837712 17.11348044639138 0.269056824796868
0.8148821624865059 12.990680635075924 8950.925349291858 17.911170599576387 0.2728819293302372
0.8387700438342718 12.994140059089455 7802.748547338204 18.743391256478223 0.2767686476684403
0.8629550025673318 12.998417548984243 6809.760660565294 19.61155342313334 0.28071805084208695
0.8874402555793118 13.003393900299976 5951.639003354895 20.517712593571098 0.28473621392006565
0.9122031617475596 13.008869533380686 5207.800940799772 21.463664290967643 0.2888261530222058
0.9372253288975646 13.014774245563942 4562.50241903324 22.450850833654297 0.29298744855362696
0.9625140656235595 13.020982396571803 4001.763284913571 23.481382893479104 0.29722457824475773
0.9880384114678423 13.027372405112189 3514.0954339372383 24.55764398425406 0.3015433146682675
1.0137864149481293 13.03383102076727 3089.9835659015366 25.68152673887009 0.30594491463105244
1.039754223232324 13.040287840450537 2719.477535543119 26.855094053350083 0.3104313844083552
1.0606234456717667 13.042420740754313 2453.0665707982585 28.210488707131827 0.6559483900418012
1.0641109117811984 13.023012542570546 2379.233656947953 30.120433002211673 1.1323286444741456
