M[M_sun], R[km], Lambda[1], P_c[MeV/fm^3], rho_c[fm^-3]
0.24162668629717493 15.618656898711224 2160425.4255784233 3.5677272577965504 0.1711233750220791
0.25364159194133273 15.277390667710073 1723263.2225446356 3.784795936180582 0.1738878780202072
0.26603769154060647 14.98126663343864 1383022.543078475 4.01135172776085 0.17666605984150408
0.27881067020218453 14.723593942716425 1116486.8379925247 4.247651460407821 0.17945662398549614
0.2919638645471295 14.498500116335162 905983.2632171569 4.494319933210496 0.18226612968808545
0.3054981009560462 14.301291610277639 738723.2236649385 4.751510607657542 0.1850902412455137
0.31941176540273764 14.128259776331449 605183.890551415 5.019909276305563 0.18793565455500807
0.3337091130296748 13.976023356991817 497738.2990699917 5.299735146869049 0.19079889791737378
0.34838730998314343 13.842141081617159 411076.5920250198 5.591722412241779 0.19368638101868646
0.3634480582271918 13.724094667203753 340711.97748517134 5.896031294490113 0.19659303664265113
0.37889973908887353 13.620094072245843 283362.7940263559 6.21352874236796 0.1995266060687016
0.3947277448596962 13.528584182841382 236450.2753409966 6.544477159508337 0.2024833566268558
0.41095161064282 13.447997141282496 197917.39323994695 6.889568931995232 0.2054668306381353
0.4275572881889258 13.377174775038783 166129.1318626432 7.2495134555171905 0.20848018164270446
0.4445500403704729 13.31501097304058 139842.99189643268 7.624576896970126 0.21151907191398342
0.4619283157418477 13.26067997066552 118015.10947198122 8.015693811114545 0.21458944081570566
0.4796900939580451 13.213243593763949 99839.22824341059 8.423575575613542 0.21769304182480215
0.4978449397319043 13.172088180986938 84672.3036531692 8.848672861886882 0.2208274856288292
0.5163803336216012 13.136472475000188 71962.89050074012 9.291839269123741 0.22399590284534696
0.5352961523573145 13.105895156370847 61296.04242324738 9.753968456389096 0.22720134594136754
0.5541845853653438 13.080027560153846 52483.03318424103 10.202921223851286 0.25781743289082865
0.5711521032584156 13.056709801799395 45737.16373021461 10.772115132138868 0.3167557676884396
0.5866427776541197 13.032669480783147 40335.570563513415 11.34699629258336 0.36494923713118893
0.6010823814193779 13.006586785921437 35841.92932900816 11.966920040682146 0.4113873793477385
0.614735539493293 12.977916905029808 32020.136387383234 12.632654691035281 0.45606556840727297
0.6278403377094923 12.946541452560249 28697.935607277665 13.34506947779109 0.49904923954576585
0.64056472437184 12.912388389250868 25767.12728762127 14.104503999792932 0.5402340294955773
0.6530686650190257 12.875640772936322 23158.283473907206 14.910603495487003 0.5794741969144476
0.6654985516239319 12.836497702725898 20815.807174382164 15.765999701558671 0.6174341848354339
0.6779247445544587 12.795164555237855 18699.092187665738 16.672309911802003 0.6542763740480895
0.6904708424772796 12.751932525791359 16780.836318098576 17.62757991199553 0.6896050448248254
0.7032100754511006 12.707099698268847 15039.50908028862 18.63531611631392 0.7239260308927883
0.7161947881062313 12.660945219024176 13458.850194705368 19.697790720393318 0.7573947917531473
0.729491860680559 12.613740696774856 12024.343127226644 20.812653159219096 0.7894923786894541
0.743156912611434 12.565937029168857 10723.107852812613 21.986514033917626 0.8213110651325004
0.757200919037414 12.517510782553929 9547.0985960948 23.216368979702395 0.8526831904968709
0.7716660495750772 12.469053137944423 8486.979014842273 24.50801311943178 0.8840052717701998
0.7865401131818324 12.420342990409244 7531.362931928942 25.863352280956896 0.9153475790926112
0.801855189330377 12.371965145420248 6674.086793626603 27.281487024677716 0.9466625038541571
0.8176322841429572 12.324077550323342 5907.159514142483 28.768757166864805 0.978277052184217
0.8338660573513893 12.276869485638702 5222.3041747315465 30.327419769446276 1.0102876667231087
0.8505038737317124 12.230145206362602 4613.466409595678 31.960093802108748 1.0428211850969362
0.8675967018766977 12.184252903886208 4071.929412326891 33.66977904499556 1.0760335988275678
0.8850728371541269 12.138964011496059 3591.163213490562 35.45978425289834 1.1101098786051553
0.9029658153904524 12.0947694081883 3166.6200241045713 37.33419125096429 1.1452821294340274
0.9212261229791876 12.051466411559609 2791.0493630786145 39.2969864169148 1.1818148059076758
0.939835435917587 12.009019880960167 2460.088143047064 41.352979007565594 1.2200446009422508
0.9587674710916373 11.967497907010952 2168.443842276103 43.50739026464187 1.260390878123367
0.9779856456447091 11.92674340179019 1911.8907156032617 45.76598605179185 1.3033922933052928
0.9974536074097183 11.886816248869776 1686.2828197049987 48.13335200959094 1.3497761003628679
1.0171343115812863 11.847703916690786 1488.1809480144454 50.6151158695062 1.4006005601576383
1.0369693325878138 11.809052735877312 1314.241455714139 53.220938704567914 1.4573341617362234
1.0569207844159159 11.771212621660496 1161.7364912098105 55.95477732684203 1.5225329117247133
1.0769080928057322 11.733585758238485 1028.0436081762286 58.828602496190285 1.5953851366174172
1.0970209162884907 11.696353136329712 910.3858252738133 61.84387325474307 1.6243344788201506
1.1173700040302705 11.659275753740738 806.0326917454212 64.99853438616263 1.6501059143950905
1.1379301763997618 11.622563521301254 713.8180059206059 68.30331221696092 1.6768870874455901
1.1586326330962338 11.58619564524164 632.4793753445325 71.76674568567348 1.7047421946576218
1.179445824439163 11.550196550898383 560.7662991177614 75.39834173613689 1.733740982317966
1.2003101989250273 11.51442613176014 497.55443238784096 79.20860608299053 1.7639588139298596
1.2211844263310032 11.478916864629207 441.91146163390505 83.20798951962564 1.79546613372196
1.2419911064945814 11.44346628725895 392.9080275569069 87.40798459950328 1.8283393171051723
1.262712282773602 11.407993874967053 349.7183755561377 91.82390183744076 1.862687410143591
1.2832543627168365 11.372554653187725 311.6982629634444 96.46621619576362 1.8985673233812819
1.3035850285725201 11.33678926786288 278.17526646663316 101.35292735490853 1.9361041982323934
1.3236614945194638 11.3008096767657 248.6013090402622 106.49927547266715 1.9753907326384246
1.3434336418201689 11.264418727320251 222.53173323358465 111.92226020807445 2.0165307730514277
1.362822925134742 11.227478537379977 199.47367539069026 117.64072345820296 2.0596395343045675
1.381817899592056 11.18987538468845 179.09070305214976 123.67546150627712 2.1048440862932063
1.4003446031986986 11.151572102998378 161.06038209949875 130.0493651166866 2.1522836723299483
1.4183374132032394 11.112439775455243 145.09412883611077 136.78673932610488 2.2020993606611543
1.4358084109966796 11.072441953212843 130.9213371116774 143.91274670646942 2.2544288222527538
1.4526818125663006 11.031355859132685 118.34178870126973 151.4566110990306 2.3094382706259506
1.4689021694063287 10.989180437764198 107.15103185480957 159.44966110015173 2.367302042346639
1.4844572408481358 10.945859369818614 97.20554144160864 167.925709011664 2.4282046864252296
1.4992747569836047 10.901266768241609 88.34060279694087 176.92216270029436 2.4923505110742745
1.5133531412164076 10.855367631828507 80.42152252745069 186.47781031326298 2.5599386092524328
1.5266351419614081 10.808099790868562 73.3578218050949 196.6389902804404 2.6312245666730765
1.539080465381294 10.759348299769927 67.03460666245182 207.45310567317796 2.7064505087469266
1.5506732296774128 10.709160473136002 61.37028629961691 218.97289228565947 2.785886238882177
1.5613824443458062 10.657391708477855 56.29889527421863 231.2568983853349 2.8698312619422666
1.5711596747826 10.60408554711605 51.744704009840156 244.37005192557402 2.9586172825476207
1.5800079490271206 10.54912413499185 47.65351717751229 258.3810943209545 3.0525747465215183
1.587878367920273 10.49257850839403 43.888626213853456 273.3688261458616 3.152096688082344
1.5947566900104944 10.434412581943159 40.65511105633114 289.41870832755706 3.257594835632995
1.6006293288024538 10.374575669617114 37.66798286556566 306.6241563223956 3.3695059469133333
1.6054720153097797 10.31305492134741 34.97308466800157 325.0908563139072 3.4883338118774256
1.6092652147784123 10.249866526301965 32.539271046074816 344.9340084531446 3.614606900950524
1.61200812099171 10.185071892321997 30.3420712598815 366.28228278619525 3.7489135436499548
1.6136829945107098 10.118649220612003 28.351806327231603 389.27724975373894 3.891880673981719
1.6142942758768342 10.05062121358095 26.558392032958547 414.0782459767246 4.044218431052171
