M[M_sun], R[km], Lambda[1], P_c[MeV/fm^3], rho_c[fm^-3]
0.24162668629717493 15.618656898711224 2160425.4255784233 3.5677272577965504 0.1711233750220791
0.2536408660052272 15.277378153681903 1723185.7573550208 3.784779065209912 0.17388766773169662
0.26603476711126056 14.981383012639588 1383059.6759965622 4.011316262000973 0.17666563125872642
0.27880749621960965 14.723663507444469 1116551.9734211946 4.247596200395827 0.17945598305263208
0.29195972962305966 14.498556559821623 906044.9310261575 4.494243429294401 0.18226527779922408
0.30549254904150863 14.301371247636588 738761.4968321711 4.751410262654842 0.18508915732797324
0.3194050498870036 14.128338895958866 605233.14481089 5.0197843514861775 0.1879343584117904
0.3337001259185787 13.976139095119716 497796.70788819797 5.299582353875529 0.19079735954545846
0.3483770773649031 13.842238831148595 411119.02284133737 5.5915413700370955 0.19368462938555314
0.3634380070047389 13.724161835355899 340752.86732305924 5.895817936394023 0.19659103273826126
0.3788878766217124 13.620175519722396 283397.8760873414 6.21328048711015 0.19952434227966914
0.394715839664051 13.52863564973541 236486.9681727115 6.544194265288319 0.20248087602671763
0.41093656329036005 13.448066483471608 197949.03306798494 6.889245938471443 0.20546407988974777
0.4275405398666087 13.377218042986852 166156.19124179048 7.24914733256841 0.2084771528013785
0.44453182622540116 13.315092778820139 139869.5902610019 7.624168656933497 0.21151582206079436
0.46190820320022086 13.260714200422173 118038.49673414495 8.015236334527575 0.2145859018644515
0.47966879911847043 13.213286904244907 99857.8148350664 8.423065296123074 0.2176892052363915
0.49782073097966 13.172118496572171 84688.83921485065 8.848111661309714 0.22082342229686794
0.5163536467926788 13.13651882030987 71977.01528838195 9.291218067099535 0.22399152954436913
0.5352677129472484 13.105945196291659 61312.40052076019 9.753283042188778 0.22719665323294128
0.5545698090079928 13.079916255458727 52334.88739444829 10.235115529599485 0.2304401432639257
0.5742437321888657 13.057948152148493 44757.882701064635 10.737208095897266 0.23371897141996056
0.5942981587284711 13.039588942291795 38353.342745735674 11.26076238939387 0.23703878796558867
0.6147289183271454 13.024561707030998 32923.45824573975 11.806735495072099 0.2404014672770706
0.6355255644540135 13.0124985907014 28314.068461281622 12.376105589439794 0.24380864081742648
0.6566920619267506 13.003072340454425 24388.628324718986 12.969590948630959 0.247258593072385
0.678217754304771 12.996009176806298 21043.665947609825 13.588459343282732 0.2507554532555036
0.7000997845841556 12.991088430179344 18185.778863406045 14.233935360143546 0.2543021754844943
0.7223285803396203 12.988001652650278 15742.05837838775 14.907207605389662 0.25790074231270854
0.7449099071314381 12.986644386836295 13644.672634109274 15.609343337456151 0.26155143236036277
0.7678236184806876 12.986752419967228 11844.992438309953 16.341532735380383 0.2652553869802384
0.7910635960421155 12.9881137093927 10297.59949588064 17.105426556390906 0.2690176614570716
0.8146292422188778 12.99065077626611 8963.876546934578 17.90247842017114 0.2728406855604799
0.8385067363573356 12.99410683458105 7813.934930027011 18.73409934056427 0.27672595612258205
0.8626804211327354 12.99836780659579 6820.635343814795 19.601540955625893 0.28067313121491383
0.8871489244369514 13.003327021564495 5961.014420363726 20.50693138580407 0.28468896899597784
0.9119033883229312 13.008805946769012 5215.794561558628 21.452062854475695 0.28877647903077236
0.9369173299422828 13.014696419952099 4569.601428041757 22.43847749512158 0.29293605674967266
0.9621878193513715 13.020890481829044 4008.3447966434555 23.468082379903603 0.29717056090716
0.9877062911681347 13.027281413080694 3520.030510809738 24.543353692965194 0.3014865461248966
1.0134412975669818 13.033744939318447 3094.925726165863 25.666301984735185 0.30588615937272373
1.039399188021961 13.040191028562742 2724.230123289236 26.838748715486023 0.31036963466520234
1.065546466046465 13.046528547893237 2400.596033350998 28.06385409159138 0.31494620185899674
1.0918685907794858 13.05265246385807 2117.9833440272837 29.34375237131413 0.31961686144449797
1.1183608817110315 13.05849075922414 1870.5768985460966 30.681036131061685 0.32438519101179064
1.1449856716436857 13.063957036413258 1653.8170045735715 32.07927045745424 0.32926037332516356
1.1717424195658523 13.068965890369405 1463.7032366429985 33.54021408638839 0.3342389300006615
1.198591219300718 13.073431656048086 1296.8046866994703 35.06849148493047 0.3393349927253437
1.2255329668810497 13.07729746680746 1150.2573186719565 36.66622912422 0.34454596307073226
1.2525217802608548 13.080470947435519 1021.3141417449414 38.33827430206359 0.3498850496761589
1.2795584105875872 13.082915930119972 907.750098561697 40.087054743309594 0.35534997154515974
1.3065967167174866 13.084513379025577 807.7272651588347 41.91795782859607 0.36095480156296256
1.3336288731125496 13.085230869303698 719.3788975403737 43.83431737307306 0.3667006663556855
1.3606320890339734 13.085038102205047 641.3787229903709 45.84107845444667 0.3725967634688055
1.3875588019482799 13.083792904704652 572.4704727217147 47.94343845373908 0.3786523162793902
1.4144105448843556 13.081513866947846 511.41978612425874 50.14599159974997 0.3848721711600793
1.4411378524670448 13.078095474949674 457.4235722861873 52.45425355344488 0.3912648569707931
1.4677218878947016 13.07349308328883 409.5231761378891 54.87448239653448 0.3978412699678008
1.494127731364272 13.067641252240088 366.9764433464993 57.41285819893157 0.4046104547430411
1.5203372500758923 13.060514179334847 329.2440034604011 60.07599826252886 0.4115821646266869
1.5463179928327175 13.052045085667103 295.6645539478222 62.87099647291874 0.41876692002020904
1.5720326307611465 13.04218379190628 265.7938101611257 65.80546641742963 0.42617607148852416
1.5974545028221372 13.030877339173957 239.22560215684535 68.88758865163072 0.43382186816826357
1.6225410855843274 13.018080569192854 215.50528342302044 72.12616254395412 0.44171753211740167
1.6472926791727531 13.003762006035041 194.34297106245918 75.53066318193983 0.44987733930703927
1.6716426727320641 12.987853971941623 175.46024752599922 79.11123402911717 0.45831641628912373
1.6955810674665788 12.970329840208747 158.57444566885087 82.87761054443085 0.4670461618502345
1.7190452258408302 12.95110599511789 143.4668593201223 86.84272247741544 0.4760890012530218
1.7420510574645574 12.93023500622921 129.95339092077862 91.0183832479665 0.4854602656001954
1.7645373170681686 12.907619790964656 117.82756234166986 95.41815135703398 0.4951798147447115
1.7864638441491607 12.88320514994157 106.96128368299026 100.05619496069725 0.5052672005392581
1.8078056894304566 12.856980604624034 97.21000625693492 104.9487511437434 0.5157470539129946
1.8285315429078084 12.828901763097857 88.44883748794369 110.11213896590675 0.5266411580204878
1.848605942159286 12.798946193114196 80.564991555254 115.56422398110038 0.5379738548938422
1.8679993265663104 12.76707342227661 73.47982326530035 121.32520022644148 0.549774494069437
1.8866764672315381 12.733263437519378 67.09471351942894 127.41634533929358 0.5620724312556613
1.9046067316944033 12.697482068049215 61.3366751796737 133.86038655550678 0.574898073813437
1.9217420734826576 12.659655269200165 56.14860608856892 140.68229197446325 0.5882852905406482
1.938088252137845 12.619885214826386 51.461416541360855 147.9100134077446 0.602273451530916
1.9535851480652702 12.578039307422621 47.22420662594298 155.57237218367504 0.6168995498111909
1.9682161747465894 12.534168678598263 43.39484511812631 163.70236168321085 0.6322090774741307
1.9819456538960045 12.488219562941383 39.92969841042764 172.33394466347985 0.6482444041150532
1.9947452155102983 12.440181081135519 36.79254622719303 181.5064507226325 0.6650589956874423
2.006591488048487 12.390054966285863 33.9486602856432 191.26162161753487 0.6827065810316225
2.01746009624193 12.337841619897784 31.369152789412432 201.64538648675833 0.701246256214671
2.027310219227486 12.283504713548197 29.02816978325113 212.70802411299093 0.7207420067890747
2.036136937738064 12.227087319018073 26.90334272645381 224.50401083784857 0.7412611058400137
2.0439002145037555 12.168544078028678 24.972643397087193 237.09526819907876 0.7628834586758256
2.050578083185728 12.107889064333515 23.216646791566074 250.54766022412767 0.7856887154730381
2.0561632654476294 12.045169181624843 21.619272565174892 264.9348172154743 0.8097671294061558
2.060636261640964 11.980393915251312 20.165591286529313 280.3383455071539 0.8352183716785573
2.063969911985597 11.9135628297282 18.843849273430443 296.84724757551294 0.8621475094527533
2.0661460733601045 11.84470093109554 17.640024249819184 314.5615913014138 0.8906745449474095
2.0671607500379596 11.773866295456529 16.5425399975016 333.59120689077315 0.9209273473446201
