M[M_sun], R[km], Lambda[1], P_c[MeV/fm^3], rho_c[fm^-3]
0.24162668629717493 15.618656898711224 2160425.4255784233 3.5677272577965504 0.1711233750220791
0.2536451938194907 15.277265160849657 1723096.7744201343 3.7848467773860706 0.173888511731307
0.2660424832298821 14.981228282261583 1382883.9938059335 4.011458606310198 0.17666735140569753
0.27881943200188575 14.723443695731802 1116327.3273550286 4.247817992362761 0.17945855550521517
0.29197616089089046 14.498322576758563 905833.6107417595 4.494550488696628 0.18226869697693265
0.30551254224913055 14.301158725761363 738547.7894529777 4.751813015329504 0.18509350782552464
0.3194309665441501 14.128036134476009 605022.1952037368 5.020285763978561 0.18793956075992632
0.33373176276670763 13.975868776976364 497616.41766968917 5.300195626686253 0.19080353418505885
0.3484145355726583 13.841913197601349 410934.4808609355 5.5922680341152144 0.19369166006040733
0.3634801008374024 13.723852654702762 340604.9319995935 5.896674316860687 0.1965990760448336
0.37893467321831437 13.619894866424465 283246.63816443563 6.2142769469873365 0.1995334287939333
0.39476971229964014 13.52833874110552 236354.61546052838 6.545329769755552 0.20249083286690386
0.41099684545457377 13.447766420292808 197821.70784520335 6.890542407808636 0.20547512116666555
0.4276078753636836 13.376948696975472 166034.14941654415 7.250616932175051 0.20848931042229812
0.44460476581107106 13.314831534752651 139759.46103587502 7.625807324768892 0.21152886691042408
0.4619876830316674 13.260467630856523 117938.60832823016 8.017072652089853 0.21460010726539472
0.4797565812846532 13.213092953751913 99783.16862330078 8.425113582104512 0.2177046054835206
0.49791688908955356 13.171904482493796 84617.74144258989 8.850364363183864 0.22083973282094224
0.5164584287897802 13.13632413023025 71917.96091262324 9.293711639545778 0.2240090844498468
0.535378711966383 13.10578470883208 61253.88432985152 9.756034391499389 0.22721549042669578
0.5546892910508302 13.079763041575887 52286.87321899406 10.238138264068379 0.23046024668672482
0.5743748711663424 13.057802780869725 44713.20649700334 10.740497713391585 0.23374009178327004
0.5944349097476571 13.039482331969422 38314.68547019804 11.264364034183034 0.2370612911074078
0.6148746284386444 13.024482665000873 32888.81773208064 11.810670442938122 0.24042539832541157
0.6356821257675193 13.012403224630377 28280.513654104696 12.38039644346344 0.2438340472824946
0.6568558246554299 13.003014740871235 24360.67437047487 12.974218004598635 0.24728503942688265
0.6783910414690685 12.99597355039859 21019.065087734714 13.593488304166994 0.2507834531623679
0.7002827835074634 12.99105509659443 18164.73067247581 14.23939318909495 0.25433178447292504
0.7225209407993537 12.987999609470185 15722.003766432865 14.913122997937021 0.2579320192229305
0.745111736155777 12.986650864861778 13627.78788758856 15.615689118415498 0.2615838677833041
0.7680358277873366 12.986760988091008 11830.739491540122 16.348394836617295 0.26528959283382997
0.7912825535446404 12.98815319066341 10284.925577303688 17.11283941564602 0.2690537076814245
0.8148631442138978 12.990678259435754 8951.771860546442 17.910478758293113 0.2728786465928171
0.8387489625628916 12.994140243686257 7803.617777225646 18.74265167360786 0.2767652496678214
0.8629330043073972 12.998416736828185 6810.589396402676 19.61075647998314 0.2807144754607777
0.8874180490748822 13.003369806280473 5952.275189081456 20.516854453242164 0.2847324534160875
0.912177121697311 13.008865500319105 5208.410378144614 21.462740853767492 0.2888221991315302
0.9372016227844401 13.014766240669292 4562.694102707878 22.449865946874237 0.2929833578946521
0.962488699190949 13.020970469542645 4002.2183724365027 23.480324194306217 0.29722027855284644
0.9880118466058762 13.027362727322759 3514.941217535268 24.55650648785346 0.30153879593506283
1.01375922175088 13.033818504760752 3090.397125813038 25.680314849118894 0.30594023771510576
1.039726094630457 13.040274686595824 2719.869563257576 26.853792950639434 0.3104264690766033
1.065881159671583 13.046600167685542 2396.7493425190523 28.08000011483738 0.3150059330198127
1.0922164134796284 13.052733477131442 2114.464325978387 29.36094296051043 0.31967873701052907
1.118718284771966 13.058566928383874 1867.238251796635 30.69947651287285 0.32445024065353645
1.1453533238138776 13.064027182900329 1650.9354124778495 32.09890044887643 0.32932782004221384
1.172120240847932 13.069026082476844 1461.1636111608768 33.56126393112077 0.33430987014773944
1.1989797339825252 13.073489449017204 1294.602144032532 35.09106052686792 0.3394096224285497
1.2259289324959208 13.077347535355148 1148.316154049292 36.69025187289374 0.34462345673931216
1.2529279965338045 13.080514333409223 1019.5727740008693 38.36395175321731 0.34996618683291253
1.2799724447319645 13.082950505953882 906.1001884775002 40.1144705293945 0.3554347868282841
1.307026870658385 13.08454772358162 806.2649612511441 41.9471498870488 0.3610430535782426
1.334058333964614 13.085241121050881 718.056702499844 43.865612972542124 0.3667936930621998
1.3610697327864243 13.085029818805166 640.178368739078 45.874412024006354 0.37269369296106186
1.388010779842735 13.083779338030977 571.3969207373788 47.978952360907925 0.37875340032333144
1.4148568664884456 13.081449992470654 510.4761936386858 50.184075237028175 0.3849788857086365
1.4415881690404277 13.078009632996908 456.560167036195 52.49484646792636 0.3913763099051085
1.468183635782622 13.07340403312192 408.72713170581653 54.91776431593209 0.3979577771107357
1.4945956506509028 13.06752785638772 366.2768613372718 57.45902340848933 0.40473235633106763
1.5208081927982835 13.060373780870389 328.6165746555539 60.12525690833414 0.4117098273146592
1.5467929262138633 13.051877036762015 295.07566637049655 62.92357599525381 0.4189007390848092
1.5725111399880045 13.04198594409002 265.2678789619798 65.86161312864292 0.42631647325169647
1.5979243756385946 13.030641220044176 238.7411908250074 68.94756947477231 0.4339693126644646
1.6230329455745036 13.017826558373534 215.071735659368 72.19026693041309 0.44187251603132294
1.6477750750121085 13.003463404701598 193.94540815942753 75.59920522858364 0.4500403992116738
1.672123245522557 12.987517256145646 175.10530596894273 79.1841969503481 0.4584866379496055
1.6960604005150184 12.969955459107767 158.243187994496 82.9557061440865 0.4672256253107919
1.7195393791764155 12.950730471602993 143.17276130116082 86.9263527341966 0.47627838263776195
1.7425207842767216 12.929778919581741 129.68128291094953 91.10758297372479 0.4856587021567688
1.7650019966856245 12.907113131282724 117.58738405998942 95.51377976280276 0.4953896448197536
1.7797344201510144 12.883912884677672 109.61605897494188 100.92796753175705 1.3112647504982287
