M[M_sun], R[km], Lambda[1], P_c[MeV/fm^3], rho_c[fm^-3]
0.24162668629717493 15.618656898711224 2160425.4255784233 3.5677272577965504 0.1711233750220791
0.25363647974226555 15.277456143566035 1723402.0631751756 3.784681345592601 0.17388644970380834
0.2660228262585146 14.981683401740762 1383327.0178184283 4.011110842519621 0.17666314888552456
0.27879107803730846 14.723955036744757 1116850.2428956646 4.247276138241752 0.1794522708139682
0.29193603271503793 14.498936365730552 906356.8683893388 4.493800332881111 0.1822603438178248
0.3054623920578888 14.301777413837359 739078.1526003574 4.750829095029749 0.18508287960844716
0.3193677257529038 14.128759437931492 605499.2206972074 5.019060839091162 0.187926851691442
0.3336569841842201 13.976519372781018 498109.37728322233 5.2986974583372985 0.1907884501156957
0.3483257593753515 13.842656981218749 411386.6780707776 5.5904928896706085 0.19367448504958037
0.3633768511215562 13.724607512578931 340991.1980838232 5.8945823272356535 0.19657942763556308
0.37881782169544664 13.620617107117154 283635.24275210133 6.211842807781938 0.19951123237527446
0.39463764054304296 13.529059487539962 236703.16328951783 6.54255601611013 0.20246651079459113
0.4108499149020284 13.448458140824757 198133.33787554712 6.887375508528804 0.2054481505234608
0.42744393367847006 13.37760491364145 166325.55006648556 7.247027183585419 0.20845961335218982
0.44442525414356104 13.315435834966124 140010.80947401733 7.621804655814474 0.21149700309183922
0.46179345136472666 13.261031419213767 118174.98858176824 8.01258726786191 0.21456540919211417
0.47954052367594713 13.213618048927614 99977.9827857208 8.420110523289242 0.21766698947537774
0.49768262320328455 13.172414328827148 84792.28986502437 8.84486208278261 0.22079989395989363
0.5162018438146742 13.136791558521297 72077.89774297738 9.287621121536045 0.22396620682335874
0.535107033500102 13.106197087249697 61399.85448177246 9.749314361102197 0.22716948154147723
0.5543969890183138 13.080138600881185 52402.30959745204 10.23074926464878 0.2304110656426395
0.5740609462713429 13.058116659139426 44822.77846607554 10.732463221367812 0.23368850785570328
0.5941042869441778 13.039763651958207 38410.19155855625 11.255567588138858 0.23700633075334065
0.6145210092484846 13.024689508553454 32972.1294674232 11.801060104129657 0.24036695143095985
0.6353024631293164 13.012596201917509 28357.52135294577 12.369917033946576 0.24377199792114196
0.6564514914047583 13.003139554640526 24428.735380808746 12.962917645729071 0.24722045120951447
0.6779677997372225 12.996095147739855 21079.885993161253 13.581206585996739 0.2507150718460651
0.6998372576786389 12.991139772073916 18217.310809705155 14.226064293337922 0.25425947456292625
0.7220507878683388 12.988042628942877 15769.62456803707 14.89867687878725 0.2578556371454799
0.7446183762727507 12.986661324497764 13669.716597703165 15.600192133296138 0.2615046574749304
0.7675178444293516 12.986737084159552 11868.178358301453 16.33163720532183 0.26520606024478116
0.7907421055166207 12.988102609965104 10248.473840739049 17.094737079912036 0.2689656821527153
0.81429339988177 12.990607993184426 8981.894768033148 17.890942088763445 0.2727859464928376
0.8381549993207713 12.994054550378193 7830.215783556168 18.72176730549776 0.2766692968022178
0.8623154304445304 12.998303885303976 6834.449531552315 19.588252979487976 0.280613516446271
0.8867680502915929 13.003229223438824 5973.185063198146 20.492623570916443 0.2846262699326785
0.9115072675464232 13.008715238290337 5227.1037177201715 21.436666929999486 0.28871055814062463
0.9365056952388519 13.014593870229671 4579.6395947225965 22.422057566885645 0.29286785771587004
0.9617611509103425 13.020789068999923 4016.999251132465 23.450432540587233 0.297098879665418
0.987264226843398 13.027175919696461 3527.8613136317663 24.524390942931475 0.30141121612105276
1.0129855925343418 13.033632439754863 3102.106348431779 25.64609968890954 0.30580819482239
1.0389262087774298 13.040078491270018 2730.497423791603 26.817060088384764 0.310287698937475
1.0650590943142162 13.046415148392914 2406.1874798673857 28.040577705553645 0.3148600923856948
1.0913659315572601 13.052536022770608 2122.872414985826 29.318970674360134 0.31952766255150306
1.117844260415783 13.058387169313736 1875.0426288136575 30.654453497736288 0.32429141905022363
1.144459430369253 13.06385065477775 1657.800665689861 32.05077662065651 0.32916187369177086
1.1711971832850656 13.068871615713999 1467.26720184105 33.50987135681397 0.33413667187352936
1.1980375182125211 13.073355967994901 1300.1465426508908 35.0359598209354 0.33922741933186606
1.2249598127840058 13.077226558636097 1153.2208740300764 36.63160286534037 0.34443426411961625
1.2519423800781315 13.080423503263113 1023.9278030716494 38.30115541350946 0.34976746517448887
1.2789612788012534 13.082873226054733 910.0875346538695 40.04753991608129 0.35522772587076623
1.3059871524688684 13.084485987774412 809.7777478488831 41.87588387267368 0.3608276056200328
1.3330070281791297 13.085224526262733 721.3063213008058 43.789213018252454 0.3665665928869041
1.360000340118486 13.08505539997404 643.149221789481 45.79303813399745 0.3724570687427234
1.3869179227713957 13.083843304443107 574.0242788376149 47.89225716762197 0.3785066378174223
1.4137511886367504 13.081564498681324 512.8283179262035 50.091108691727676 0.38471838320357943
1.440478591148073 13.078191932141044 458.6732129872316 52.395756073380426 0.3911042448076479
1.467049050665276 13.073610966608035 410.6604596377147 54.81211158060855 0.3976733789484748
1.4934537702961534 13.067806833708245 368.0160806722352 57.346334335726496 0.40443479509275376
1.5196560744481717 13.060724093350135 330.1571509362352 60.00501881879205 0.4113982085631353
1.5456319393872469 13.052287378897073 296.50141270839583 62.79523403243677 0.4185740985858013
1.5713428827438272 13.042468597952338 266.5833474492532 65.72456641221692 0.4259737710665215
1.596757563931579 13.031194172540056 239.90120710342856 68.80116686210354 0.43360942664862073
1.6218504474397781 13.018446452293253 216.1331576812819 72.03380234189817 0.44149423467403015
1.6465878811439458 13.00418237213181 194.89959241701573 75.43191248683034 0.44964241374359887
1.6709541059704942 12.988332316913587 175.96947979413397 79.00567180019341 0.45806931965627257
1.6948858964060753 12.970862005839317 159.04465945641735 82.76510266324917 0.4667876190669551
1.7183747789271637 12.95173587897234 143.89040837630097 86.72224532011772 0.47581617976763163
1.7413759256273864 12.930905753958623 130.33472172976792 90.8898866412463 0.48517440794814365
1.7638603880468668 12.908338824441948 118.18633909372785 95.28039895722478 0.4948775552209139
1.7857933827948462 12.883986884832199 107.28445047708043 99.9090668692767 0.5049497045009441
1.8071326592163497 12.857803503353127 97.50571199029284 104.79148529270452 0.5154130995486714
1.827881919594315 12.829822610429533 88.71222466370087 109.94323970342316 0.5262869495080876
1.8479595689465345 12.799913623168734 80.81147726343757 115.38342661325301 0.5376003899202448
1.8673764883960122 12.768146588112122 73.69967554219328 121.1315116246946 0.5493802150552344
1.8858727032106115 12.734510282730866 67.346480005253 127.23167672040226 0.6111527355545262
1.9024158183256068 12.69873685596183 61.865713613333114 133.81192223292086 0.7108628341732303
1.916833620104921 12.659893075175953 57.11229485383174 140.9210207105457 0.8125006264252463
1.9291484583998568 12.61747370758342 52.95418441781563 148.59858146064894 0.9164598258345124
1.9394506899280115 12.571320887110248 49.29707030650469 156.8880140398557 1.0231539399788394
1.9478386794130182 12.521356256671517 46.04218594392579 165.837184415859 1.1330481673987944
1.9543467287565288 12.467419111613099 43.14049150500047 175.4988237072776 1.2466251521907603
1.9591285153392093 12.40975442978233 40.533813763710334 185.93126422022547 1.3644112122872627
1.9621892830126084 12.348230079843386 38.18275648597349 197.19871821298955 1.4869507477176775
1.9636560507957692 12.28306667946779 36.04910751000231 209.37256133172033 1.6148529883693739
