M[M_sun], R[km], Lambda[1], P_c[MeV/fm^3], rho_c[fm^-3]
0.24162668629717493 15.618656898711224 2160425.4255784233 3.5677272577965504 0.1711233750220791
0.25364602193515134 15.277223226216949 1723095.636136888 3.784857472140389 0.17388864503626025
0.2660436285834563 14.98119963821123 1382941.7121481397 4.011481089117226 0.17666762309715203
0.27882148389598427 14.723374780134272 1116332.8934939378 4.247853024158619 0.17945896182125531
0.29197858140732785 14.498273005080176 905742.0685301889 4.494598989060557 0.18226923703974135
0.30551600325623973 14.30108475735634 738532.2127877714 4.7518766314415055 0.18509419500094743
0.31943631085877755 14.127957397134017 604980.7966980633 5.020364964784367 0.18794038249885525
0.33373562700636045 13.975781706135733 497575.2929241241 5.3002924977570816 0.19080450951600392
0.34842028046701384 13.841864891340721 410905.84436883556 5.592382817656529 0.19369277062274542
0.3634857628886775 13.723829542182953 340565.4407897877 5.896809592153973 0.19660034657901546
0.3789423236771306 13.619844415184817 283221.3810685467 6.214434351546854 0.19953486413398866
0.39477790769277993 13.528302099454589 236342.55558323034 6.545509140495814 0.20249240570597796
0.4110064560279353 13.447720914743025 197795.03690539554 6.890747208137944 0.20547686533221104
0.4276180552310832 13.376917953905636 166016.91708792606 7.2508490845023115 0.20849123095900599
0.4446167498605326 13.31479667333103 139748.6824144625 7.626066187763109 0.2115309276263064
0.46200006229676427 13.260431648512565 117931.75715566319 8.017362741817395 0.21460235134396471
0.4797703112981312 13.213046267004994 99762.88738161877 8.425437161344897 0.21770703834705282
0.4979310961599063 13.17188494348541 84606.07280384873 8.8507202391084 0.22084230951468997
0.5164743282883598 13.136304645755652 71908.75730731315 9.294105572489684 0.22401185776233073
0.5353960316484792 13.105766041808023 61245.552975119586 9.756469053274378 0.22721846635128723
0.554707446972479 13.079729511548399 52274.95239408546 10.238611837767015 0.23046337167480732
0.5743938268290415 13.057779368250872 44705.07792908146 10.7410174234718 0.23374342848297106
0.5944557322406282 13.039471267068864 38308.74078720868 11.264933046882593 0.23706484630905167
0.6148972583231846 13.024455090075216 32884.492391550215 11.81129212079726 0.24042917916404172
0.6357062057364643 13.012406661601279 28275.503047917253 12.381074358848894 0.2438380612697952
0.6568815629748802 13.003004226404208 24162.79853780958 12.97494904434428 0.2472892177502918
0.678416438461292 12.995975357768422 21014.44977531318 13.594282851553123 0.25078787698934185
0.7003120392952624 12.991033388145404 18161.176824686147 14.240255505760587 0.25433646258292153
0.7225507111589882 12.988009965491429 15719.623305951694 14.91405761939832 0.2579369609189046
0.7451436568461063 12.986650954219723 13625.123720659536 15.616691750640838 0.2615889925741678
0.7680688427754041 12.986754963833777 11827.708064472617 16.349479060636813 0.2652949974186345
0.7913186906302652 12.988144811708317 10282.499070026037 17.114010674792798 0.26905940311803367
0.8148986938169392 12.990685488004402 8950.034574958416 17.91174285686302 0.2728846446501439
0.8387873073955759 12.99415581227866 7801.953242109288 18.744003004112983 0.2767714583322953
0.8629729311265283 12.99842913403524 6809.1121181392355 19.612212617567568 0.28072100823178114
0.8874584067817627 13.003385379050059 5950.674084875486 20.518422408682028 0.2847393244399403
0.9122210387832841 13.008877359793399 5207.213779098079 21.464428118022113 0.2888294235084587
0.9372458466247215 13.014775794670362 4562.121590290127 22.451665490256627 0.2929908321733579
0.9625348455739445 13.020983145106976 4001.398704213778 23.48225860607774 0.2972281347738204
0.9880617085790678 13.027379568788872 3513.661958237145 24.558584876330944 0.3015470523858265
1.0138087800923294 13.033830761307453 3089.647172825721 25.682529167600137 0.30594878319657853
1.039776690368944 13.040294234377376 2719.176361972311 26.85617027752001 0.310435450189474
1.0659340821128662 13.046616903438768 2396.3397230805945 28.08255158231154 0.3150153720074627
1.0922715718649705 13.052740974407609 2113.808827550358 29.36365952377096 0.3196885149702886
1.11877515811717 13.058577576449832 1866.7768911754126 30.70239061486575 0.3244605203371455
1.1454127931563531 13.064038497689678 1650.5478671786368 32.10200257637006 0.32933847864673466
1.1721800342058066 13.06903597775249 1460.8412084614095 33.564590483207745 0.3343210809712544
1.1990396714729088 13.073497395760851 1294.307518892324 35.09462720998621 0.3394214164826919
1.2259908278260332 13.07736306308802 1147.9866750445094 36.694048334170205 0.3446357035357105
1.2529901178831668 13.080521278348927 1019.2552714495309 38.367993404668894 0.3499789136058744
1.2800385708178816 13.082954300908629 905.8450600202992 40.11880332414062 0.3554481910477354
1.3070923665516747 13.0845506040331 805.9977092513085 41.95176345831176 0.3610570011031235
1.334127099455304 13.08524130185231 717.8813798465355 43.8705590641341 0.3668083954043413
1.3611392637780328 13.085025979919784 640.0157142721409 45.87968026918389 0.37270901230240117
1.3880797261733946 13.083777932805562 571.2183457847599 47.984565269680054 0.3787693764735833
1.414926623215435 13.081445306580916 510.3233284354023 50.190094379286045 0.38499575200856617
1.4416600552641536 13.077996861794837 456.3986884242896 52.501262285430485 0.39139392533617573
1.4682571761262218 13.073389370798305 408.5924782867311 54.92460522747656 0.3979761916143023
1.4946686432660163 13.067508809679541 366.15865657044077 57.466320135333675 0.4047516237100797
1.5208827746319775 13.060349892554758 328.52162870699897 60.13304268039919 0.4117300055508555
1.5468503198274408 13.051862290122774 295.0118769686141 63.10504687454625 0.6190261035330975
1.5498843459903047 13.034213981749874 287.81957619078094 67.55744812989262 2.087562596788755
