M[M_sun], R[km], Lambda[1], P_c[MeV/fm^3], rho_c[fm^-3]
0.24162668629717493 15.618656898711224 2160425.4255784233 3.5677272577965504 0.1711233750220791
0.25363979336254044 15.277420068558957 1723269.6376815066 3.7847596266050556 0.17388742543886457
0.2660327029727758 14.98141440500456 1383166.047824392 4.011275398898672 0.17666513745225088
0.27880418954342173 14.723726152341785 1116595.5590594916 4.24753253107965 0.17945524458451204
0.2919550392881882 14.49863089621245 906115.4933416914 4.494155283804716 0.18226429627873894
0.3054857615192985 14.30150425181883 738880.6052348928 4.751294648940026 0.18508790847920115
0.3193988713558284 14.12838573981836 605274.224992084 5.019640418720852 0.1879328650537972
0.33369151676579606 13.976247124201443 497867.8531359986 5.299406313766667 0.1907955871136656
0.34836737005628776 13.842316744040176 411171.70931199146 5.591332783893906 0.1936826112572377
0.3634256545539492 13.724251736163167 340812.4329751831 5.895572119309244 0.19658872397218058
0.3788721894032544 13.620304371025904 283439.38065198896 6.2129944655809375 0.19952173410771507
0.39470001670723937 13.528745369899593 236526.98237111783 6.5438683371118085 0.202478018076917
0.41091924540849506 13.448118305282057 197980.8440509854 6.888873813313523 0.20546091071574665
0.4275203678952276 13.377312240851584 166197.10516570086 7.248725519948081 0.2084736632536718
0.44451094799147245 13.315164586992987 139899.96256750848 7.623698323464222 0.21151207790395551
0.46188491088927 13.26078627951905 118067.3357316582 8.014709278716698 0.21458182466164805
0.47964245109706527 13.213358968530397 99880.48390342791 8.422477409874467 0.21768478515365186
0.4977922436296566 13.17217761909547 84709.61886524696 8.847465112880307 0.22081874100999016
0.516325000194448 13.136566374691355 71996.17045478185 9.290502396291211 0.22398649117726166
0.5352355380412943 13.105999650317044 61327.523898155756 9.752493398742446 0.22719124691592507
0.554534589920461 13.079945798387604 52347.63740017642 10.234246768630609 0.23043435765477774
0.5742077519857414 13.057948127663861 44769.78201396188 10.736263992483769 0.23371290998359925
0.594260401096665 13.039642944237183 38362.48338516623 11.259728749876214 0.2370323297671773
0.6146879805757407 13.02458953106172 32933.1658430964 11.805606216007273 0.24039459937619595
0.6354810715602794 13.01251086894695 28322.62370334982 12.374874186725881 0.24380134959058367
0.656644833423781 13.00307588942358 24395.99985447812 12.968263076878786 0.24725100350196905
0.6781685476202539 12.996022583129022 21050.232613702483 13.587016152533483 0.2507474179560657
0.700047863279088 12.99108116808062 18192.278648536594 14.232369115879468 0.25429367853292106
0.7222731493850908 12.988024530587612 15747.332778771717 14.905510076287303 0.2578917668364559
0.744851987675175 12.986654716466244 13650.0692366017 15.60752232111684 0.2615421245327641
0.7677610905782357 12.986764298217825 11849.680654497113 16.3395635800693 0.26524557123489384
0.7909980257511044 12.988128602583265 10301.237132099457 17.103299384078696 0.26900731773843833
0.8145635327127805 12.99063578943303 8968.175750157541 17.90018269812505 0.2728297925235232
0.8384365882975445 12.994102132277138 7816.798187075726 18.73164524934823 0.27671468084322526
0.8626080684095668 12.998359165894016 6823.318288759805 19.598896598162682 0.2806612676506854
0.8870737999020463 13.003292245610918 5963.303792625735 20.50408404116236 0.2846764914902701
0.911823699183237 13.008787140501564 5217.905027149916 21.448998930890173 0.2887633601972516
0.9368341524246416 13.014671270118505 4571.461214589001 22.435209752676762 0.2929224844079273
0.962103261158809 13.020872654174447 3987.397532811539 23.464569827522645 0.2971562953882599
0.9876168244227133 13.027264387458992 3521.5253587501493 24.53957980585663 0.3014715542629626
1.013355692990289 13.033728607393341 3096.608976726375 25.662281366962752 0.30587064303441264
1.0393052882470037 13.040168404245643 2725.48750183284 26.834432235484456 0.31035332778102304
1.065450004248742 13.046508642217834 2401.7504227948552 28.05922155471501 0.31492906409070964
1.091769177459509 13.052627639287048 2118.8682574586246 29.338820190800252 0.31959910862302227
1.1182577009170924 13.058469486768077 1871.4521487189588 30.675745448716537 0.32436652778699043
1.1448800579091418 13.063929065501272 1654.5681844230087 32.073610795060645 0.32924084314957286
1.1716347847142614 13.068943015573439 1464.3800559192962 33.534174893501195 0.33421857729796484
1.198480305463459 13.0734060921261 1297.4867760625227 35.0620165338732 0.3393135818175605
1.2254178210939481 13.077284871580536 1150.8546796480164 36.65933719757478 0.3445237307822221
1.252405762533818 13.080452199382478 1021.9157065280513 38.330886144619825 0.3498616456130222
1.2794396099088294 13.082908135557657 908.2206067592896 40.07918960666105 0.35532563943994155
1.3064759774764834 13.084508906750065 808.1274217501033 41.90958321803329 0.3609294838464833
1.3335043379828426 13.08522634822257 719.8038496827304 43.82533944546981 0.3666739793118064
1.3605016518257043 13.085049460770186 641.7472873694732 45.83151601313554 0.3725689571884322
1.3874317404947032 13.08379876144229 572.7895193394323 47.93325067645778 0.3786233185765616
1.4142805258438627 13.08152720114401 511.7098035222609 50.135066837233644 0.3848415587715749
1.4410060690698194 13.07811574759692 457.65361403913414 52.44260914004674 0.3912328857743865
1.467588498795324 13.073519543513628 409.7252239956558 54.86206680079259 0.39780784941695985
1.4939933301819301 13.067675230876569 367.2129765631537 57.399615716679435 0.4045754872939292
1.5202014103451014 13.06055685621159 329.4259011927557 60.061868643442885 0.4115455451637875
1.5461812348423962 13.052095166423939 295.824725276504 62.855914509815904 0.4187285352250431
1.5718955143133655 13.042242120549714 265.97213685985093 65.78936149416892 0.4261357991453593
1.597312188835225 13.030933281359857 239.35160701851652 68.87038424496744 0.43377957639999426
1.622403497551184 13.018152388931885 215.62504417184874 72.10777567412472 0.4416730785439673
1.6471552700127412 13.003846388184087 194.45927155736925 75.51100380610687 0.44983057011782673
1.6715088194939889 12.987948878704511 175.56263254695295 79.09027422659238 0.4582674569707953
1.6954442804440872 12.970436031361434 158.66901918713947 82.85521172430042 0.4669946894268107
1.7189090996455094 12.95122815908462 143.5622910982221 86.81873668618137 0.47603468523711046
1.7419223029721738 12.930383820681588 130.02919609913664 90.99280049886261 0.4854033534001107
1.7644027123453363 12.907764985033213 117.9038124995452 95.39072537186331 0.4951196360093222
1.7863300199701546 12.883363184366779 107.02281942918682 100.02690186410297 0.5052039873076527
1.8076736183920121 12.857143247072928 97.26705595743503 104.91743913345232 0.5156805627935089
1.828401941071464 12.829089754172495 88.50044252195043 110.07851008683011 0.5265706329331886
1.8484805205144843 12.799141697610871 80.61503910680827 115.52822551263503 0.5378994944801093
1.8678752823909222 12.7672897593886 73.5210633217983 121.28663432323317 0.5496959880233317
1.8865555521863209 12.733494506843059 67.1350907007257 127.37499562797026 0.5619894427149705
1.904489378567897 12.697726136980707 61.37339161165747 133.81616814310667 0.574810772937664
1.9216451807022303 12.65996998601745 56.1801909542186 140.63479926743804 0.5881927566867993
1.9379788644224623 12.620163856548581 51.489404135123216 147.85896220768308 0.6021752520076421
1.9534766892501172 12.578329746987311 47.254531936473334 155.51761834810492 0.6167957858118492
1.968116448535921 12.534484584385945 43.421635171333705 163.6434017026925 0.6320986788002145
1.9818515681593545 12.488551872148236 39.954804726323225 172.27058157411622 0.6481274110985201
1.9946560853244382 12.44053255574418 36.813925230908374 181.4382830311991 0.6649348272922978
2.0065093752073153 12.390427052814546 33.969508963115196 191.18820699409113 0.6825746026825817
2.01738298812247 12.33823410289514 31.386569862360734 201.56623701155473 0.7011057737036365
2.027241351685148 12.283918877649496 29.046165038523924 212.62280037298436 0.7205929129547076
2.036075247058175 12.227521858779642 26.91913282051419 224.4119246962503 0.741101932752001
2.043844648883417 12.16900178385625 24.98680812218538 236.99587135107973 0.7627139779192372
2.050530594678759 12.108369619797472 23.22945657468264 250.44001957803815 0.7855072576747045
2.056124770114779 12.045666764401803 21.631702997477962 264.8183470258667 0.8095733162438733
2.060605233179071 11.980914393274661 20.178515382847213 280.21216082441003 0.8350110305244187
2.0639471535173377 11.914106830800055 18.85428887873082 296.7105974773416 0.8619261118085988
2.066132878775109 11.84526762407933 17.64858571195667 314.41315254183843 0.8904369236889864
2.0671571438029477 11.774453765512154 16.55153684184823 333.4300012449261 0.9206727359040208
