M[M_sun], R[km], Lambda[1], P_c[MeV/fm^3], rho_c[fm^-3]
0.24162668629717493 15.618656898711224 2160425.4255784233 3.5677272577965504 0.1711233750220791
0.2536435974848237 15.277283217394192 1723236.9215803412 3.7848113123339866 0.1738880696765417
0.26603863243231524 14.981312017314817 1383030.8221253261 4.011384051346205 0.176666450452957
0.27881351898378026 14.723552135091966 1116387.7560957002 4.247701824819857 0.1794572081367782
0.29196679782338963 14.498473625892002 905939.4294958409 4.494389659881504 0.18226690611074983
0.3055030282357959 14.301232413401161 738676.4175466294 4.751602063934758 0.18509122914785459
0.3194183826454937 14.128147003122189 605144.7156714264 5.020023135699999 0.18793683589017104
0.33371498199842914 13.97597925145745 497709.64253656624 5.299874406750727 0.19080030003330836
0.348395451554414 13.842073502084041 411033.9691884129 5.5918874201236415 0.19368797751533556
0.363457415460534 13.724034549458795 340673.86078926653 5.896225757218136 0.1965948630777454
0.3789101758025353 13.620036087119061 283323.5396325707 6.2137550129380905 0.19952866938385366
0.3947404424504152 13.528500971585874 236420.47803214172 6.544735002810224 0.20248561756428413
0.41096500809117065 13.447915876092125 197886.15448114777 6.889863325291993 0.20546933781498788
0.4275719032352569 13.377104297840727 166102.9705958558 7.249847161015854 0.20848294230277353
0.44456601439015303 13.31498574408239 139817.59507957695 7.62494899217448 0.2115220340310665
0.4619476125435502 13.260588927935574 116676.83224976169 8.016110785734606 0.21459266645150132
0.4797099926101861 13.213190688557445 99835.27936530493 8.424040680736168 0.21769653876511927
0.49786607119094733 13.17202524929729 84655.1491591042 8.849184382459267 0.2208311892563292
0.5164038474244239 13.136423269039588 71949.85710330016 9.292405482452464 0.22399988902248047
0.5353208278548582 13.10586985036857 61284.38964495775 9.754593201041644 0.2272056232739555
0.5546272425258456 13.079831608457438 52308.88777710531 10.236556970282772 0.23044974269656857
0.5743071039960321 13.057858605881098 44735.73211630772 10.738774555118148 0.23372902857338695
0.5943636710497464 13.039532709641112 38333.6918809177 11.262477421095944 0.23704950351469894
0.6147983828860402 13.02454246782776 32906.96777156259 11.808609228662261 0.24041286270355425
0.6355993562637292 13.012435413089591 28299.162728236213 12.37814878617995 0.24382073873693622
0.6567695662337513 13.003040545555505 24375.418683589705 12.971794225982283 0.24727118610222878
0.6782992676290863 12.99599241228478 21031.66907184529 13.590853983508055 0.25076878597071567
0.7001874798713894 12.991059913514716 18039.581070715067 14.236534200085833 0.2543162743180176
0.7224193563135342 12.988009699554086 15732.979130063282 14.910024306565203 0.25791563527358713
0.7450057396120479 12.986663864641889 13636.833964251295 15.612364960548339 0.2615668768932882
0.7679250548183657 12.986750914632006 11838.074645321687 16.34480019272747 0.265271674435607
0.7911684948953558 12.98813013490746 10291.22714325571 17.108956242987436 0.2690348251277384
0.8147413627073887 12.99065493143034 8958.46787879845 17.9062878178256 0.2728587608799653
0.8386217543061805 12.994119937607339 7809.252452869394 18.73817155455782 0.2767446658388623
0.8628002918463207 12.998388507625583 6773.831981695592 19.605928925149993 0.2806928172668209
0.8872741508291759 13.00333501864639 5956.6177512868635 20.511656225139177 0.28470967397454217
0.9120333843295141 13.008833540820454 5212.3816525646835 21.45714712355109 0.288798248398615
0.9370518041612291 13.014721952378837 4566.382573518744 22.443900017177565 0.29295857881917736
0.9623286027043524 13.020932136084342 4005.3702279354884 23.4739111904963 0.2971942334388853
0.9878527221379931 13.027332092403404 3517.4469832871287 24.54961622112891 0.30151142417632937
1.0135931366875481 13.03378099976821 3092.6164565170193 25.67297399234804 0.30591190793505785
1.0395551787206962 13.04023326723986 2722.1724417153246 26.84591175231125 0.31039669532848324
1.0657051243492202 13.046557935841594 2398.92140137942 28.071541679172046 0.3149746415882769
1.0920346687265572 13.052693473509624 2116.1978571262425 29.351937267681226 0.3196463220458675
1.1185317472682106 13.058522770537762 1869.07767092645 30.689816034055408 0.3244161626885245
1.1451607568738906 13.063978999189628 1652.5411544855042 32.08861671608423 0.3292924861492468
1.1719212243855452 13.068998068596676 1462.543372024491 33.550236305953526 0.3342727059139301
1.1987760354534114 13.07345246665249 1295.7720627952383 35.07923695547512 0.3393705250833312
1.2257208974733442 13.07732103276453 1149.396863847788 36.67766666898701 0.3445828588196567
1.2527150766549449 13.080485301784535 1020.4581224142414 38.35053548394189 0.34992389041243105
1.2797550117757914 13.082935246542094 906.9478215304234 40.100107606113966 0.35539035274199676
1.306798765527459 13.08452115898226 806.9619928245007 41.93185631424212 0.36099681879068185
1.33383323411671 13.08524056067365 718.7337802457233 43.84921726633852 0.3667449565441278
1.3608407780186573 13.085035602123046 640.8134876305795 45.85694854184267 0.3726429115271646
1.3877703676609778 13.083781623895527 571.9702395530302 47.960346503579224 0.37870044204727255
1.4146260859920141 13.081492824471082 510.97985226412266 50.16412296352192 0.38492297723948593
1.441348659164061 13.07804192434977 457.01010934421043 52.47357945486321 0.3913179186552983
1.467941718532181 13.07344933168996 409.140794756541 54.895088385421396 0.3978967375839781
1.4943504009546233 13.067589832957669 366.6522840149625 57.434836753619756 0.4046684902365368
1.5205628013747945 13.060445125324485 328.93567928792095 60.09944941007676 0.41164294251619354
1.546544059380333 13.051965751536486 295.37835061868884 62.89602847120085 0.41883062844596913
1.572260509910789 13.042089065668465 265.5480400174083 65.83219650598964 0.4262429133655011
1.597683660660195 13.030768167157957 238.99242708736955 68.91614387902628 0.43389206245531603
1.6227705335724834 13.01795253412908 215.3027322972028 72.15668068027023 0.4417913152151446
1.647523180773383 13.003618650860762 194.1598137423507 75.56329372622174 0.449954966598597
1.6718713011107162 12.987691128825144 175.2839147929506 79.14596899637056 0.45839745257033204
1.6958093837622388 12.970151064859726 158.4122503219935 82.91478872073735 0.4671315971911064
1.719273788145452 12.95091275887468 143.3294851176117 86.88253518452183 0.47617915744639316
1.7422762047281815 12.930014056410041 129.8202972201853 91.06084705993146 0.4855547319514501
1.7647564745920408 12.907374400150044 117.71675018877328 95.46367520526395 0.49527970423270945
1.7866841239992894 12.882946249684725 106.85571290838503 100.10481847984856 0.505372127984115
1.8080236496999351 12.856698453548308 97.11515149421635 105.0007263923183 0.5158574234622878
1.8287358140252359 12.828574521203123 88.35748190506997 110.16793123365001 0.5267581153635416
1.8488165207079728 12.798618024624433 80.48913268413095 115.62397974812357 0.5380972896883822
1.8682058902346346 12.766719459621253 73.40599977054242 121.3892185473668 0.5499048119107436
1.8868766462501751 12.732879780377116 67.03123532820801 127.48498551530405 0.5622101915412248
1.9048015861580947 12.697073950157495 61.27654124483741 133.9337895367209 0.5750429940897771
1.921945962035023 12.659271284827609 56.092430591087115 140.76113131097088 0.5884388995492494
1.9382617025753874 12.619393442870605 51.4083544885725 147.9947610552593 0.6024364678473689
1.9537622606278724 12.577563091673403 47.17785291004189 155.66326749124204 0.6170718055177788
1.9683813349407964 12.533646648754276 43.35213810018181 163.8001759689065 0.6323921301571978
1.9821009679019477 12.487659685479839 39.892614312688494 172.43913477784938 0.6484386261599874
1.9948955188459574 12.439594863336596 36.757705007611214 181.61961856076474 0.6652651324737611
2.006726999873242 12.389431748105354 33.9150022738664 191.3835017962442 0.6829256864906211
2.0175858028362295 12.337189012284995 31.33868136295131 201.77678935624542 0.7014794833461863
2.0274263458834527 12.282817313485273 29.00016767302065 212.8495133466267 0.7209895337382887
2.036242252694785 12.226364821329284 26.878402130502636 224.65689548328862 0.741525370589324
2.043991875167899 12.167785456203799 24.94984052694184 237.26029281379996 0.7631648408033446
2.050655938697233 12.107096618255115 23.195021348577125 250.726374689955 0.7859899876660015
2.056228944613152 12.044342640482446 21.59958618224026 265.1281944126561 0.8100889202972447
2.06068753818476 11.979530529393033 20.148410523023504 280.5476614430373 0.8355619960280862
2.0639998984705983 11.912648774771563 18.827184595745074 297.07413738012434 0.862515111590592
2.0661667969018422 11.843764771778652 17.623813011186584 314.8080591738295 0.8910690915346475
2.0671668470237687 11.772887909678493 16.528058124521223 333.8588777531907 0.9213501120904111
