M[M_sun], R[km], Lambda[1], P_c[MeV/fm^3], rho_c[fm^-3]
0.24162668629717493 15.618656898711224 2160425.4255784233 3.5677272577965504 0.1711233750220791
0.2536409684344513 15.27737403690702 1723279.3233230344 3.784780227544599 0.17388768221963777
0.2660347483512295 14.981396477494883 1383163.02332788 4.011318705426563 0.17666566078608265
0.27880800732344285 14.723678779733566 1116528.3445812995 4.247600007542316 0.17945602720979412
0.29196001200379146 14.498552076298685 906040.9642652583 4.494248700028108 0.18226533649006718
0.3054920981266816 14.301392654036022 738790.0669170034 4.751417175899673 0.18508923200421154
0.31940542334976796 14.128336933091546 605262.6617992836 5.019792958128687 0.18793444770902829
0.33370044869320237 13.976130028273063 497788.04703117436 5.299592880455248 0.1907974655306495
0.3483776211752011 13.84223092766064 411122.5755734428 5.591553842797063 0.19368475006293695
0.3634393165519114 13.7241409894228 340742.4205083057 5.895832635492492 0.19659117079530475
0.37888846939890125 13.62017204236524 283394.83381757856 6.21329759036916 0.19952449824079765
0.39471643898185194 13.528628855356265 236494.42281938772 6.544213754911297 0.20248104692438196
0.41093760021108766 13.448061650927448 197946.74421089154 6.889268190624926 0.20546426939842458
0.42754092580791814 13.377248446944222 166153.02725644023 7.249172555993511 0.20847736146831014
0.4445331452626574 13.315070653219832 139869.57326406398 7.624196781879344 0.21151604595344758
0.46190965548707635 13.260713915820313 118038.35613625126 8.015267851454672 0.21458614567336293
0.47966995757542263 13.213287873213853 99860.55911815862 8.423100450710589 0.21768946954974439
0.4978206336837637 13.17212372634742 84688.26841138597 8.848150323907806 0.22082370223059739
0.5163554510160246 13.136516958729924 71978.46661481464 9.291260863249585 0.2239918308319335
0.5352694601225679 13.105946609483134 60719.1905469447 9.753330261957318 0.2271969765244716
0.5545715497574152 13.079918075974135 52333.62687388862 10.235167480674159 0.23044048923781685
0.5742490322642709 13.057921160251313 44355.16261945021 10.737264552536152 0.23371933388907026
0.5943011306712501 13.039609675230484 38353.188366457 11.260824200420885 0.237039174162004
0.6147321317033094 13.024556120869763 32923.72838571613 11.806803025505033 0.24040187797477489
0.6355282663543224 13.012470790055099 28312.168975440243 12.376179227063332 0.24380907683125957
0.656694135289433 13.003066170458425 24387.508120951687 12.969670355298211 0.24725904692833278
0.678221984068371 12.996001477537273 21043.05528233624 13.588545646297648 0.25075593376756866
0.7001031692327956 12.991073012015546 18185.907506501604 14.234029022077417 0.2543026836050567
0.7223316751387772 12.988014006444988 15740.538282819109 14.907309118527731 0.2579012790509352
0.7449126792358708 12.986647670294925 13644.56435436512 15.609452235486266 0.2615519889748578
0.767827868533843 12.98675651800643 11844.923713527385 16.341650492601985 0.26525597397045353
0.79106569662029 12.988130278550837 10297.313289061094 17.105553763579067 0.2690182800225517
0.8146332988386478 12.990655286845763 8963.795026577722 17.90261570725921 0.2728413369778963
0.8385091378213037 12.99411738095086 7813.435966103917 18.7342460987181 0.2767266304003642
0.8626846637750862 12.998368414831846 6820.417721483748 19.60169909248757 0.2806738406752805
0.887153816952205 13.003312988824447 5960.753992830624 20.50710166218548 0.28468971517348296
0.9119056859530599 13.008812641271225 5215.653195214772 21.45224608327481 0.28877726356342953
0.9369236359029416 13.014692007952753 4569.454690235796 22.43867291322084 0.29293686840520283
0.9621915832194206 13.02089672117591 4008.1523202493404 23.468292438867998 0.29717141401902897
0.9877119544163916 13.027289897378934 3519.8386272479515 24.543579381122864 0.3014874426768079
1.0134484564902106 13.033744386596501 3094.8683154363557 25.66654242867387 0.30588708729219
1.0394052255899138 13.040198440690562 2724.1957412617244 26.839006853673038 0.31037060986479004
1.0655525613183936 13.046530561552885 2400.557955361503 28.064131131859053 0.31494722675141323
1.09187516004118 13.052647785833672 2117.9505418322688 29.344047332033565 0.3196179231219811
1.1183669981562439 13.058492192685526 1870.5028240367894 30.681352532482915 0.32438630713830635
1.1449923354712979 13.063948601892807 1653.7245810063762 32.079607267194056 0.32926153057025515
1.171748630775717 13.06896268808861 1463.66421508515 33.540575253687884 0.3342401471716987
1.1985983540721254 13.07342957640329 1296.8354301962256 35.068878713667374 0.3393362731857987
1.2255391335993724 13.077296835025857 1150.2516735984182 36.66664129102927 0.3445472926570569
1.252529198191321 13.080471038543397 1021.2883734760032 38.33871614724045 0.3498864493448171
1.2795657641358942 13.082914917701114 907.7003563010395 40.087525115424484 0.35535142671934206
1.3066045679719611 13.0845131795403 807.6925432612369 41.918458671189015 0.36095631568599834
1.333635928918181 13.085232805799002 719.3546142154519 43.83485429903759 0.3667022623773297
1.360641076036569 13.085041583311638 641.3567188066055 45.84165033914354 0.37259842643181934
1.3875666411484195 13.08379543380466 572.4621185762518 47.944047738823 0.3786540505014206
1.4144186664815404 13.081517502680944 511.4126034288502 50.14664496323354 0.38487400195656246
1.4411456906157678 13.078092361445682 457.4017223298518 52.45494995853101 0.3912667690382392
1.4677288892103182 13.073491510863356 409.4960252296984 54.875224925462796 0.39784326872213494
1.4941357440392729 13.067643033319147 366.97323097784783 57.41365018354005 0.40461254601875263
1.520345017729744 13.060510421750761 329.2370942785835 60.07684330659434 0.41158435471119065
1.5463258499797086 13.052042425541574 295.6488223187099 62.87189847672587 0.4187692156916107
1.5720407201062283 13.042180931050433 265.7821822889432 65.80642960481683 0.42617848005715636
1.5974626895476578 13.030874590566658 239.20942282177774 68.88861759978998 0.4338243975223973
1.6225501314373119 13.018074662108884 215.50753752180142 72.12726221629968 0.4417201907735961
1.6473017381732733 13.003756062338846 194.33955081249536 75.53183896439415 0.449880136465634
1.6716505127731895 12.987846932189797 175.44731293248128 79.11248563414664 0.4583193362693382
1.6955899213070331 12.970323464361032 158.56113058240445 82.87895017706481 0.4670492403221257
1.7190525515805428 12.951094146760154 143.4664476009095 86.84415703011253 0.47609224980906734
1.7420597435862823 12.930226447604921 129.95036155670138 91.0199133179845 0.4854636694427869
1.76454551060662 12.90761317251482 117.82439614909497 95.41979167600738 0.4951834139708046
1.7864722196349683 12.883195986250904 106.95540269151414 100.05794695664898 0.5052709812705137
1.8078136119610362 12.856969447637644 97.20706000306518 104.95062389702511 0.5157510307085138
1.828538365170432 12.828890419498725 88.44279169631533 110.11415029967434 0.5266453761060572
1.84861410974529 12.79893439302301 80.56721029396104 115.56637704884875 0.5379783023888438
1.868006007981999 12.767060572737137 73.47522229684228 121.32750686293691 0.5497791895360538
1.8866836084293812 12.73324973580859 67.09309254755577 127.4188184877124 0.5620773948448042
1.9046137327894663 12.697466997552203 61.334933874615125 133.8630312937516 0.5749032953479163
1.9217510503895048 12.65963965966611 56.15095361186268 140.6851325651522 0.5882908250915322
1.9380948070338695 12.619869082679724 51.45847613171015 147.9130668516465 0.6022793249821797
1.9535908852985306 12.578025997722353 47.22148415676127 155.57564710308696 0.6169057561113005
1.9682224428249928 12.534149590174515 43.39344465503882 163.7058881987927 0.6322156806419126
1.9819543683941216 12.488199550929103 39.929507834563 172.33773455747792 0.6482514017399422
1.9947502836514819 12.440160312357998 36.79090146649908 181.51052801295756 0.6650664225283042
2.0065966587448605 12.390033210824319 33.9483816788084 191.2660127652427 0.6827144750505207
2.017464109921597 12.337818771478652 31.367126651648885 201.6501206804408 0.7012546589414677
2.027315188678809 12.28348163630926 29.027439515469634 212.7131216567209 0.720750924636854
2.0361413281864973 12.227060946457584 26.902840664022474 224.5095188812358 0.7412706266241365
2.0439030197750396 12.168516741552684 24.971417992367577 237.10121356086154 0.7628935960638155
2.0505813396164587 12.107859909963738 23.215528620147428 250.55409872676367 0.7856995693331303
2.056166202896516 12.04513984426777 21.61902846837351 264.9417839005742 0.8097787223749179
2.060638473847899 11.98036302546438 20.16541535435995 280.3458933173329 0.835230773910268
2.0639712569523314 11.91353091347846 18.843454308127523 296.8554214345799 0.862160752569043
2.06614583782612 11.844667590144345 17.63847936038807 314.5704703756743 0.890688758598921
2.0671613453679027 11.773831290265754 16.54259093941119 333.60084970384094 0.9209425773975982
