M[M_sun], R[km], Lambda[1], P_c[MeV/fm^3], rho_c[fm^-3]
0.24162668629717493 15.618656898711224 2160425.4255784233 3.5677272577965504 0.1711233750220791
0.2536398686819657 15.277403919238543 1723178.9807928128 3.7847609291315525 0.173887441674229
0.26603292155856895 14.981401650264521 1383149.0216151956 4.011278137011455 0.17666517054072792
0.27880437230532507 14.723721185778986 1116664.0501881954 4.247536797353769 0.1794552940668627
0.2919553501036772 14.498625956098298 906110.3262374584 4.494161190128835 0.18226436204702878
0.30548638328033567 14.30147416465001 738849.9505349435 4.75130239578969 0.1850879921599626
0.31939858983319763 14.128401998652107 605267.2371372345 5.0196500630963055 0.1879329651179149
0.333692802473486 13.976227479766969 497864.9023977466 5.299418109493181 0.19079570587705894
0.34836840904340616 13.842262060531557 411159.3687302433 5.591346760355613 0.19368274648334952
0.3634254205718705 13.724262554947924 340810.4249088681 5.895588590405539 0.19658887867220262
0.3788729949662019 13.620292709494528 283452.3829052553 6.213013630537285 0.19952190886904084
0.3947003208513502 13.5287376335444 236535.86445255284 6.543890175963544 0.2024782095741439
0.4109203859551401 13.448114646013618 197976.291835908 6.8888987475238626 0.20546112306594513
0.427521554990033 13.377333147633768 166197.21256885663 7.248753783377564 0.20847389706978064
0.4445112241443242 13.315158261461285 139887.01306976427 7.623729837934422 0.21151232877940204
0.4618866312088912 13.26079283455234 118061.4055892611 8.014744593736529 0.2145820978518774
0.4796449375528897 13.213348673047879 99885.94266506861 8.422516800681557 0.21768508131745384
0.49779490219472466 13.172167753804255 84704.89381002919 8.8475084341844 0.22081905467474156
0.516326355728453 13.136572448768739 71995.27033855242 9.29055034892983 0.22398682876682702
0.5352378739906193 13.106008751461811 61327.23820543513 9.752546307673953 0.2271916091584765
0.5545367941630135 13.079943581733382 52346.76816428981 10.234304978551608 0.23043474531014382
0.5742105104542936 13.057960715991198 44769.2217594404 10.736327250447253 0.2337133161193197
0.5942631798149657 13.0396411515332 38361.22057781485 11.2597980068494 0.23703276248599905
0.6146901258372952 13.024605098475204 32932.99215180691 11.805681880904293 0.24039505954501392
0.6354824258689142 13.012513477241287 28321.872724980833 12.374956693962414 0.24380183812205347
0.6566476487527086 13.003087217367893 24396.257433311668 12.968352047583274 0.24725151202203172
0.6781701294356212 12.996044002075326 21049.709235456598 13.587112849623729 0.2507479563395575
0.7000517353117193 12.991093003249878 18191.882127913686 14.232474057540514 0.2542942478465539
0.7222768292260723 12.988023615791748 15746.344079076891 14.905623813986466 0.2578923682105451
0.7448554868496713 12.986647528258612 13553.305271034127 15.607644332411198 0.26154274817356754
0.7677664797195548 12.986759803108635 11849.240788019633 16.339695516561196 0.26524622890521515
0.7910025784016218 12.988127305968193 10301.344920051893 17.103441907552135 0.2690080107818272
0.8145682039293917 12.990641251832344 8967.973436463273 17.900336514223945 0.27283052236991406
0.838441052109331 12.994102767553109 7816.71287888131 18.73180967598592 0.27671543629854883
0.8626129397565753 12.998358396060803 6823.158058201535 19.59907377232679 0.28066206251942183
0.8870786959646325 13.003294143536397 5963.046037989813 20.504274815087435 0.28467732749118974
0.9118292639804827 13.008791820750487 5217.854787476528 21.44920421514874 0.2887642391649991
0.9368391402390548 13.014680420171883 4571.3408029185075 22.43542869237577 0.2929233937587916
0.9621087999358524 13.020867242572278 4010.0925077229726 23.464805168869518 0.2971572511793963
0.9876237695895472 13.027267843276542 3521.4385213954138 24.539832655909013 0.3014725587161872
1.013361797543062 13.033730086829072 3096.5157454992527 25.662550747300813 0.3058716826250169
1.0393112634183375 13.040178102386992 2725.4087903102086 26.834721437648604 0.31035442033472266
1.0654565664045277 13.046514318387889 2401.6874615806537 28.059531931605694 0.3149302123097905
1.0917752062859516 13.052633294245478 2118.696169066495 29.33915064280635 0.31960029804734563
1.118265095152558 13.05846719869237 1871.3870153662047 30.676099918957533 0.3243677782037347
1.1448845841599862 13.063935432589993 1654.525453978703 32.07399094555858 0.3292421578578769
1.1716412710738837 13.068950038837555 1464.3922425533567 33.53457951089138 0.33421994090028756
1.1984877381255254 13.073407614758908 1297.4450557508565 35.062450345065706 0.33931501631356764
1.2254265741687036 13.077289367407026 1150.7948841916618 36.659798944255286 0.34452522030553656
1.252414007967393 13.080452012187916 1021.8598692746381 38.33138113625822 0.3498632136380197
1.2794480957781773 13.082907887599987 908.1716248272752 40.07971655353531 0.3553272696375289
1.3064841097607425 13.084504571722372 808.0771346679277 41.91014429701669 0.3609311800732532
1.3335082661986748 13.085231943583196 719.7253577406624 43.82594094322049 0.36667576727419315
1.3605110668238156 13.085046197608097 641.7322744718722 45.832156669981515 0.3725708201315136
1.3874399265740098 13.08380017290736 572.7676483165301 47.933933227113464 0.37862526133605984
1.4142890686424272 13.08152787977303 511.6915707292046 50.13579876110401 0.38484360970291936
1.4410150758787403 13.07811265830335 457.63439180634055 52.44338927588804 0.39123502773511504
1.4675972635656074 13.073517147042887 409.7205625830326 54.8628986006891 0.3978100884726853
1.4940024566459162 13.067671932269 367.19555064961946 57.40050291222706 0.40457782997897673
1.5202102810292837 13.060552022749055 329.40829709203666 60.062815270763785 0.41154799851966684
1.5461903754672461 13.052091102971831 295.8123155101411 62.85692493706737 0.41873110684273057
1.5719045973486103 13.042237336000175 265.9637088449784 65.79044045182492 0.42613849721180025
1.5973212900917158 13.030925985952463 239.33521324054288 68.87153685918453 0.43378240974928245
1.6224124435896055 13.018147872645198 215.61003682140617 72.10900750354209 0.441676056713714
1.6471648912289472 13.00383888943391 194.45686461250568 75.51232088247171 0.4498337034112862
1.6715181492406288 12.987942593217474 175.55213742148223 79.09168309965693 0.45827075652539906
1.695453604612229 12.970429429938932 158.66317708680577 82.85671231912599 0.46699813778934945
1.7189172987921415 12.951216010725123 143.54638853360171 86.82034359300877 0.4760383240904613
1.7419314453125854 12.930375829320448 130.02084837911164 90.99451438678082 0.48540716616986923
1.7644117916056012 12.90775551713346 117.89954023633648 95.39256273797122 0.4951236676008268
1.7863392690825735 12.883353576598154 107.02146474567546 100.02886430783477 0.5052082221760876
1.8076822163560873 12.857132705419794 97.26539850097649 104.91953682338965 0.5156850172424878
1.8284101766601748 12.829077385323133 88.49651971943491 110.08076298132309 0.5265753576098701
1.8484880936116697 12.799129848804464 80.6136786928211 115.53063714330096 0.5379044760768753
1.8678838663289818 12.767274854891534 73.52085326991647 121.28921794262824 0.5497012473256292
1.8865636397801067 12.73347908942114 67.13037816702416 127.37776572964464 0.561995002286928
1.9044974793270442 12.697709355201654 61.370853623053115 133.81913041381003 0.5748166213798094
1.9216518868965367 12.659952367855986 56.177756787945896 140.63798087491418 0.588198955668067
1.9379860906572186 12.620145252200164 51.487618880223316 147.86238218829246 0.6021818305104989
1.9534834063029947 12.57830779042509 47.25357641116784 155.52128635720345 0.6168027370562639
1.9681229642566873 12.534464167834756 43.419713933393865 163.6473514659917 0.6321060744714254
1.9818572974343176 12.488529589676064 39.95235981902201 172.27482628492535 0.6481352484929221
1.994662700213577 12.440509731244193 36.81207699077326 181.44284958204486 0.6649431453279822
2.006514372560632 12.390403240173082 33.96582260501486 191.19312501256593 0.6825834438633767
2.0173874943066212 12.338208536171418 31.3859433712305 201.57153917863175 0.7011151845271826
2.0272453047832553 12.28389057521131 29.044374606200414 212.6285094230907 0.720602900596307
2.036078771545695 12.227496184259351 26.91780635517124 224.61354391000162 0.7413943824435042
2.042755885166625 12.170949933645055 25.117776066030597 237.39199157613996 1.0323329325207702
2.0454847344203353 12.11367862164724 23.731196174158708 252.13055715095632 1.3412197452803258
