M[M_sun], R[km], Lambda[1], P_c[MeV/fm^3], rho_c[fm^-3]
0.24162668629717493 15.618656898711224 2160425.4255784233 3.5677272577965504 0.1711233750220791
0.2536415453352837 15.27735266965506 1723269.1223765598 3.784791770865334 0.17388782610156203
0.26603713621607483 14.981319944872808 1383021.9167856846 4.0113429715117155 0.17666595402740087
0.2788106339185123 14.723619235367048 1116506.0079534 4.247637817064309 0.17945646574327148
0.2919627966450093 14.498512335317704 905982.6346852662 4.494301044840589 0.18226591936170275
0.3054962663156001 14.301351350320331 738765.4259846754 4.751485833006334 0.18508997363199753
0.31941028340715977 14.128270575745182 605206.1597062546 5.019878432961125 0.18793533454340508
0.3337064949346759 13.976063701788888 497771.0225219309 5.2996974229212 0.1907985180998143
0.3483847933036741 13.842114667306445 411076.9540211734 5.591677713590078 0.19368594854693508
0.3634454653674814 13.724113856266161 340712.2314352401 5.8959786170501 0.1965925418849868
0.37889674500219833 13.620113553170624 283367.05433602456 6.2134674487972 0.19952604714513852
0.3947257648286778 13.528569649510233 236462.7584325539 6.544407313531731 0.20248274417199827
0.41094789817616756 13.448014109713545 197924.9835764843 6.889489185418433 0.20546615148282293
0.42755220594208165 13.377185512884523 166124.03562176885 7.249423060166024 0.20847943382513062
0.4445454421610786 13.315033767422259 139842.9537059534 7.624476102767506 0.2115182695273201
0.46192322260275864 13.260673571039803 118023.10877119965 8.015580860206619 0.21458856704911594
0.4796858277558963 13.213239958488202 99847.0726777585 8.423449587417451 0.21769209456969582
0.49783840189427253 13.172079549441282 84675.78100341774 8.848534301005882 0.22082648238884825
0.5163735850317968 13.136482603688258 71966.14220318838 9.291685893526088 0.22399482307157764
0.5352884313181815 13.10591413698512 61300.21978160824 9.753799226379284 0.2272001873031417
0.5545918949552321 13.079890186851149 52320.998309608876 10.23568343523046 0.2304439252938873
0.5742694085502941 13.057917756942395 44751.30314778287 10.73782525528469 0.23372293377439987
0.5943232657358503 13.039576595377069 38345.83713609743 11.261438081844112 0.2370430097042453
0.6147572961314882 13.024537034626652 32916.60895311531 11.807473711025509 0.24040595686175345
0.6355552742090601 13.012453220408052 28307.979207054752 12.376910568237887 0.2438134071566218
0.6567229902302434 13.003042526081051 24383.109856762934 12.97045899376477 0.24726355446241122
0.6782507886640833 12.995995280528053 21038.865721516413 13.58940277850698 0.2507607060500707
0.7001344686238 12.99106657696931 18182.175008563914 14.23495924241263 0.2543077300957746
0.7223638591146774 12.988009893826835 15737.96090499657 14.908317316510413 0.2579066097737127
0.7449476483314422 12.986654763513096 13641.785916087529 15.610533779774213 0.2615575171118411
0.7678637189413794 12.986751472212912 11842.227781315003 16.342820026184317 0.2652618038020323
0.7911040694144836 12.988117814239002 10294.921127295298 17.106817154245803 0.26902442346354405
0.8146741924861285 12.990642473703678 8961.807774692857 17.903979211750418 0.2728478067092118
0.838551182901533 12.994118797512158 7811.783882801973 18.735703670085538 0.2767333271866299
0.8627276232203878 12.998375679577341 6818.72277288129 19.6032696779632 0.2806808869017932
0.887196758969341 13.003330094520098 5959.342893397387 20.508792818496417 0.2846971260826554
0.9119558748530494 13.0088093933811 5214.659410583596 21.45406588451118 0.2887850554253329
0.9369693891958389 13.014703902102202 4568.24881635 22.440613779975244 0.29294492966073865
0.9622439023161237 13.020900900541044 4007.296562004596 23.470378721042668 0.29717988703083514
0.9877638977171568 13.027303633426586 3518.9519615362237 24.54582089533543 0.3014963471486776
1.0135018083367866 13.033758598122702 3094.2388584009877 25.668930499956993 0.3058963033191881
1.0394604409500012 13.040206652972332 2723.444491280412 26.841570668288746 0.3103802954947433
1.0656110078321013 13.04654712060853 2399.920754116559 28.06688268675186 0.3149574059494295
1.0919345245902483 13.05266739652982 2117.1679606908338 29.34697687729319 0.3196284676861658
1.1184279506874621 13.05850161130659 1869.966414704033 30.684495033233333 0.3243973925133324
1.1450543309100139 13.063964279268959 1653.1804010801438 32.08295246934081 0.3292730243553422
1.1718127116063048 13.068978166520514 1463.2251101313336 33.5441623835753 0.33425223616926786
1.1986644769361718 13.073442695005934 1296.4054841649152 35.072724695493726 0.3393489908050504
1.2256069584933371 13.077305783274936 1149.9384838725948 36.670734966908945 0.3445604982217573
1.252597987132992 13.080474286030062 1020.978379785095 38.343104601212886 0.34990035100495703
1.279635699708919 13.082924273385684 907.4677197525687 40.092196910771555 0.3553658796933999
1.3066758242190737 13.084519593742932 807.3981129924744 41.92343311264316 0.3609713541761388
1.3337094561506473 13.085233258306596 719.2031605192385 43.84018713845033 0.36671811433400586
1.3607143149744245 13.085040442406003 641.1498788449347 45.847330405774514 0.37261494329400346
1.3876424738879065 13.083785850048823 572.2906439838458 47.95009928527997 0.3786712751561188
1.4144954284159768 13.081505545334453 511.244699223048 50.153134321666116 0.3848921858540326
1.441223920415603 13.078080616294821 457.24833066054254 52.46186683059492 0.3912857601773987
1.467809921627518 13.073473707956266 409.3739253649522 54.88259992690203 0.39786312089964426
1.494215359517181 13.06761847998333 366.84773768597256 57.421516409452934 0.40463331718907203
1.5204247648013285 13.060487705282085 329.1189495631589 60.085236553362044 0.4116061073279275
1.546407177170083 13.052013092556585 295.5520297599153 62.880857486078284 0.4187920170826854
1.572121241029295 13.042148626449249 265.6992633430216 65.81599633250171 0.4262024028374176
1.5975449979403753 13.030835562534522 239.13468099069416 68.89883751161116 0.4338495200477441
1.6226325743633945 13.018033395304501 215.4243784667931 72.138184614627 0.4417465976411395
1.6473838687963291 13.003706269878306 194.27708097804646 75.5435173486349 0.44990791906498473
1.6717334549852223 12.987790745860075 175.38383680917016 79.12491714761708 0.458348338848039
1.6956714005413664 12.97025927151842 158.5062718252577 82.89225605563814 0.4670798171923342
1.7191437709918556 12.951059106412224 143.41928589307287 86.85840573867407 0.47612451612346124
1.742140411913567 12.930148931799035 129.90221616732995 91.03511078859071 0.4854974782208979
1.7646253026821634 12.907527510515767 117.78341065199734 95.4360842437487 0.49521916350238265
1.7865529144090981 12.883101563940508 106.92031421407026 100.07534880584103 0.5053085337061123
1.8078922283857128 12.856868313832182 97.17479542657001 104.96922522628313 0.5157905306701831
1.8286053907905921 12.828757254727346 88.41266292125205 110.1341281556051 0.5266872728350667
1.848688756120292 12.79881622899039 80.53833314245375 115.58776275576541 0.5380224778796935
1.8680794221471602 12.766933904611712 73.44759208645323 121.35041798168925 0.5498258281778451
1.88675569328792 12.733112130139231 67.07100636167596 127.44338359014333 0.5621266968093748
1.9046834421846033 12.697321740889913 61.31292923050638 133.88930081977986 0.5749551595489115
1.9218319206209262 12.659534641198583 56.12573604117077 140.71334753227757 0.5883457985771021
1.9381599765742068 12.619702989771865 51.439365294252426 147.94339614042877 0.6023376648781286
1.9536579248569923 12.577867515921072 47.20725914491205 155.6081763629178 0.6169674023149048
1.968281530903691 12.533963610540493 43.379065528395756 163.740916643537 0.6322812690938611
1.9820073298705696 12.487998725310273 39.91567348897491 172.37537922754757 0.6483209085072428
1.9948059893308767 12.439950970740375 36.77818448721031 181.55102749852347 0.6651401929028197
2.0066449594042743 12.389808285730878 33.935155587331536 191.30962992772652 0.6827928861466271
2.0175089825919588 12.337585279333565 31.355292246946078 201.69714547793862 0.7013381233184125
2.0273571043551244 12.283236657253395 29.017781015498937 212.7637557860411 0.720839506016756
2.0361789377525383 12.226802101186092 26.89384133278453 224.56423073220915 0.7413651973610483
2.04393583154808 12.16824446436896 24.96364884397199 237.16026954963633 0.762994291949652
2.0506091830043087 12.107575617970502 23.20893368823153 250.61805340668195 0.7858073824672269
2.056189136368069 12.044843664513731 21.61178435181881 265.01098537849464 0.8098938776546987
2.0606568129533622 11.98005338215965 20.159322772447172 280.42086753920114 0.8353539682739163
2.063984011456254 11.913207803659423 18.837246970370714 296.9366146820904 0.8622923001783066
2.0661539447368593 11.844331743316381 17.63313959571019 314.6586691223073 0.8908299474449222
2.0671625147615518 11.773477642301538 16.5367801565287 333.69663534330806 0.9210938631638337
