M[M_sun], R[km], Lambda[1], P_c[MeV/fm^3], rho_c[fm^-3]
0.24162668629717493 15.618656898711224 2160425.4255784233 3.5677272577965504 0.1711233750220791
0.2536444352706461 15.277283455426064 1723228.0375354679 3.7848278708503686 0.17388827607046028
0.26604088008344623 14.981237485350311 1382991.2287766612 4.011418860690756 0.17666687110334284
0.27881672271734664 14.723472381495764 1116418.9661571824 4.247756062686375 0.17945783721429512
0.291971001890265 14.498408144864076 905878.4790616041 4.494464749553607 0.1822677422516761
0.30550725011670093 14.301207560747967 738623.7784441088 4.751700555100435 0.1850922930404171
0.31942323382547855 14.12813344905434 605113.0811264177 5.020145753910648 0.1879381081014328
0.3337221325260476 13.975980508714517 497701.0829902297 5.300024380257179 0.19080181001766727
0.34840435915144913 13.841999312973918 410989.28349125566 5.59206512341377 0.19368969684355206
0.3634672006128768 13.72399423200052 340652.00016510504 5.896435182696945 0.19659683004616155
0.3789220896871494 13.619969580753265 283290.51015174465 6.2139986949998915 0.199530891470845
0.3947546025943268 13.528430572067538 236400.1377602505 6.545012688491629 0.20248805249257507
0.41097997914853207 13.447864560129513 197859.10725730957 6.890180375359255 0.2054720379464056
0.427589463704362 13.377039565361224 166071.48288048437 7.250206550679177 0.2084859154413545
0.44458499809193214 13.314893545988623 139796.8253133244 7.6253497281562055 0.21152522414715344
0.46196642869768867 13.260549004319797 117975.26914788238 8.016559857899512 0.21459614038775612
0.479732453817075 13.213126883081387 99803.42092178184 8.42454159093763 0.21770030490957465
0.4978893314986114 13.171969382487083 84637.66277557654 8.84973528379543 0.22083517801738506
0.5164284592615994 13.13638705806541 71933.88033394323 9.29301529031293 0.22400418210783524
0.5353481117008669 13.10582697440016 61270.41933543724 9.755266050146677 0.22721022995508833
0.5546555427761446 13.079805262548435 52301.076443274564 10.237297246598468 0.23045467264804836
0.5743388907607906 13.057826307290535 44726.65776718833 10.739579042161811 0.23373419362940617
0.5943981001876788 13.039518520529366 38321.66866649607 11.263358217309047 0.23705500674537758
0.6148340920432419 13.024491462792762 32899.14579003752 11.809571537447622 0.240418715146546
0.6356397588926957 13.012436035533828 28289.622034388798 12.37919813557096 0.24382695201254523
0.6568102798364519 13.003022209334398 24368.00393900328 12.972925797195213 0.24727765369925928
0.6783427938653328 12.995973219283135 21025.942790274665 13.59208384526833 0.2507756335114972
0.7002311037137592 12.99105783687811 18169.896954047483 14.237868946814125 0.2543235153841609
0.7224665611841081 12.988000257889036 15728.09018112202 14.911470956390398 0.2579232842565317
0.7450556175345875 12.986639632938362 13632.78257300979 15.613916867487172 0.261574809212139
0.7679767918549097 12.98676198284477 11835.074585101604 16.346478373046423 0.2652800397435948
0.791223061733667 12.988143527653092 10287.798046870312 17.11076911925942 0.26904364053115765
0.8147986292221444 12.990668849946795 8955.24488269414 17.90824437103537 0.27286804458504543
0.8386811839134165 12.99412600430844 7806.580958511837 18.740263106576716 0.2767542754381911
0.8628618632898786 12.998404738186691 6813.170903814182 19.60818267147979 0.28070292840523925
0.887344593093814 13.003366525445111 5954.723381448483 20.51408301317077 0.2847203085359761
0.9121000175834504 13.00885066576367 5210.450064981603 21.459758543485968 0.288809429742543
0.9371216269809562 13.014751043662141 4564.613011539269 22.44668519074265 0.2929701468445294
0.9624061642626245 13.020956137736764 4004.0428691226525 23.476905069912906 0.29720639247276437
0.9879267400360101 13.027336994167939 3516.117460257473 24.55283289849746 0.30152420250848616
1.0136700252595148 13.033796209074952 3091.6687219000687 25.676401016284593 0.30592513348043654
1.0396357052725584 13.040253812331237 2721.050432393334 26.849591019164652 0.3104105949361315
1.0657861160805546 13.046587556261217 2397.825553938834 28.075490411660848 0.3149892496667935
1.0921203855092638 13.052707450303856 2115.536754909027 29.35614147073501 0.3196614545954673
1.1186199827870844 13.058540615501219 1868.3552077243296 30.694325901867224 0.32443207153946285
1.1452500814053133 13.063999300666028 1651.8709333817785 32.09341752932297 0.329308981270674
1.1720138327767695 13.069011129142966 1461.8572158213733 33.55538437782018 0.33429005544690915
1.1988720569575713 13.07346457382397 1295.223951570422 35.08475658390503 0.33938877699817427
1.2258175358301604 13.077337175226809 1148.8711152172616 36.68354183639033 0.3446018112002435
1.2528151202138715 13.080499233926712 1019.9732507912922 38.35680838727764 0.34994369305837836
1.279857443624096 13.082933619320047 906.5539026643223 40.10681262713525 0.3554110958370338
1.3069012427935924 13.084520125343133 806.6133164930179 41.938995768704046 0.36101840244314287
1.3339401051281743 13.085233713077047 718.4782276963258 43.856871199491465 0.3667677079917811
1.3609479757454568 13.085034341869608 640.5251599799086 45.86510091611565 0.3726666175241341
1.3878787316040213 13.083773570298579 571.6990663464544 47.96903214018534 0.378725164172838
1.4147369382912265 13.08147998636036 510.73829831008453 50.17343710331893 0.3849490764856366
1.4414592707849085 13.07802775364325 456.77336297689396 52.48350731189142 0.3913451768310512
1.4680547016977217 13.073428023597819 408.9363303203736 54.905673919148306 0.3979252319370042
1.4944645112139945 13.067559296383731 366.46737146029994 57.44612748428807 0.40469830398614676
1.5206767979603084 13.060413421991 328.77716808561996 60.111496737511466 0.41167416534374096
1.546660577127198 13.051924200716796 295.23794820287884 62.908888025425725 0.4188633570338513
1.5723766510961508 13.042041523498135 265.4128972920975 65.84592853319836 0.4262772519899792
1.597801014434017 13.030710904769531 238.87932699397558 68.93081366688003 0.4339281236389775
1.6228881931851342 13.01788651487913 215.19072920705113 72.17235902698435 0.441829220445532
1.6476402246637025 13.003546330645975 194.06631907274058 75.58005745845702 0.4499948471203125
1.6719890073146153 12.98761399818546 175.19298976314388 79.16381400760439 0.4584390847773804
1.6959263850651412 12.97005912591811 158.33983006889676 82.93388911638318 0.46717548984467117
1.719406511230466 12.950844542108515 143.25393981315813 86.90298928788428 0.47622547592689884
1.7423881902296345 12.929902224076475 129.76297040363409 91.08266338489477 0.48560326524419295
1.7648711901018446 12.907254044154953 117.65736339879912 95.48706391532122 0.4953310242850203
1.7867984615768087 12.882814057929583 106.80974857261249 100.12979994018426 0.5054260368917294
1.8081358656210478 12.856553570977246 97.06808847527468 105.02743014380938 0.5159141289345524
1.8288450939367993 12.828416526503073 88.31545240903957 110.19649857401198 0.5268178420731042
1.8489242979678335 12.798447559289011 80.44965979291086 115.65468164008152 0.5381607092027589
1.8683006303525145 12.766506088347032 73.3736396568807 121.42211085078438 0.5499717685868173
1.8869787722761135 12.732684358572563 66.99570860639496 127.52022481861474 0.5622808725818299
1.9049014422687969 12.696865630818355 61.24621412646433 133.97150443530165 0.5751174550099476
1.9220414483928425 12.659046780059581 56.06429234145351 140.80163992498288 0.5885178257339921
1.9383556967843014 12.619155221251207 51.38303488650263 148.03830596755932 0.6025202286526725
1.953850704355917 12.57730944892645 47.15558719419215 155.70997171538343 0.6171603146976855
1.9684661248115212 12.533375244892767 43.33058280139931 163.85032252822208 0.6324858043467463
1.9821803636725825 12.487372098411656 39.870558555026335 172.4931853933999 0.6485384247118294
1.9949688566230945 12.439293603079221 36.73848484616185 181.67776916888516 0.6653710546127563
2.006804248007162 12.38913075265551 33.8979908095581 191.4461300149471 0.6830382739904959
2.0176505905483175 12.336853867875849 31.322707435610983 201.84431174197172 0.7015993289203163
2.0274859324429992 12.282465664513467 28.98670874637336 212.9222196368864 0.7211167290432188
2.0362950868691168 12.225997114450397 26.865606331421688 224.73545863058837 0.741661168859755
2.0440383098282435 12.167398926300152 24.938123320273117 237.3450955545933 0.7633094372665097
2.050696752791229 12.106689433248945 23.183027425285573 250.8180657428877 0.786144325517564
2.056268605754808 12.043939450048759 21.590730973815617 265.2275700638602 0.8102542871544519
2.0607135857880383 11.979087167673615 20.13899892316441 280.6551354660959 0.835738278440262
2.0640185620342515 11.912189434834472 18.818426895651857 297.19073869622525 0.8627040266154293
2.066178557824626 11.843283776645933 17.61604210090327 314.93472408151166 0.8912718571387768
2.067168626360864 11.772392029941852 16.520724595441514 333.9964416618516 0.9215673832956134
