M[M_sun], R[km], Lambda[1], P_c[MeV/fm^3], rho_c[fm^-3]
0.24162668629717493 15.618656898711224 2160425.4255784233 3.5677272577965504 0.1711233750220791
0.25364179341667714 15.277353799284786 1723216.5314983933 3.7847997919667216 0.17388792608072134
0.26603826822408644 14.981258391779853 1383040.2358543319 4.011359833335742 0.17666615779259306
0.27881186063761987 14.723562229071417 1116480.0852006294 4.2476640899369364 0.1794567704690016
0.29196457333066794 14.498486160015169 905953.1556415483 4.494337418041463 0.18226632438573626
0.30549852780887665 14.301306910672722 738670.2175283196 4.751533541410561 0.18509048897381605
0.3194133270798194 14.12823697937939 605204.8159157652 5.019937827851955 0.18793595078832176
0.33371012907023867 13.976025909461052 497747.45504138694 5.299770067808185 0.19079924951328658
0.34838933599034344 13.842124600524546 411066.92144593137 5.5917637896961665 0.1936867813569402
0.36344937120587634 13.72410156509766 340707.3156801693 5.896080057959894 0.19659349463947876
0.37890238184380526 13.620081742312944 283348.9879029179 6.213585481860979 0.19952712346455911
0.39473175511655734 13.528552934764727 236445.63346959237 6.544541816048426 0.2024839235773657
0.4109549587534577 13.447957245410452 197905.28113207073 6.889642753636084 0.20546745933420688
0.4275617969082907 13.377126805775598 166115.78322476838 7.249597134870479 0.20848087390054904
0.44455497220668616 13.314992785981941 139836.63717814596 7.624670202693988 0.21151981468754075
0.46193276344437606 13.260646356176178 118011.19134335835 8.01579837050048 0.2145902496670885
0.4796950997828099 13.21323264831437 99840.95677686529 8.423692203852417 0.2176939187061152
0.4978499832171425 13.17208536492732 84668.6714230421 8.848801128902508 0.22082841433682662
0.5163874549050371 13.136440494347397 71956.01200986413 9.291981250433095 0.2239969024026163
0.535301917037041 13.105890984699732 61293.29311072431 9.754125114484271 0.22720241850561107
0.5546062294255962 13.079853905671335 52317.26463310979 10.236041978364216 0.23044631305128999
0.574285979115678 13.057879986560886 44744.665813424064 10.738214895520926 0.23372543538541193
0.5943397885805691 13.039558600725409 38342.682650543335 11.261864677999773 0.2370456750847457
0.6147742642404916 13.024527446343148 32913.633350837976 11.807939782698517 0.24040879135514875
0.6355733671258591 13.01244736126982 28304.16148541057 12.377418792194842 0.24381641638838267
0.6567416123636948 13.003052717509936 24380.025955453777 12.971007036195724 0.24726668684821118
0.6782709529292592 12.995998788554472 21035.792411849223 13.589998420581662 0.2507640224255605
0.7001562105338558 12.991076523341077 18179.75988501917 14.235605677181596 0.25431123703594555
0.7223866754455123 12.988010557380596 15735.443259453374 14.909017942155227 0.2579103142455997
0.7449711789359348 12.986644862512174 13639.681957345723 15.611285377767524 0.26156135878222825
0.7678889387694442 12.986759252775702 11840.630243831158 16.343632773096996 0.26526585514154805
0.7911306071599065 12.988126915040215 10293.032905611013 17.107695128190503 0.2690286927535302
0.8147018143407453 12.99065696778268 8960.183201189793 17.904926761176387 0.27285230276348504
0.8385796155849063 12.99412350838937 7810.4535034489345 18.73671659259161 0.27673798104144515
0.8627583716744393 12.998384305713545 6817.852064503272 19.604361141704008 0.280685783611248
0.8872292104545534 13.003340579861211 5958.58501799696 20.509968075470503 0.2847022762409423
0.911987287144224 13.008824851905906 5213.610091776266 21.455330546311377 0.2887904703409317
0.937003481084325 13.014718658191626 4567.542640056045 22.441962579076026 0.2929505318043136
0.9622786604702158 13.020926079296578 4006.6030045549046 23.471828580703402 0.2971857753417127
0.9878002458682468 13.027308783425294 3518.3161377770653 24.547378638302515 0.30150253532199056
1.0135401183462318 13.033759734696599 3093.6577619490986 25.670590097212845 0.30590270802461883
1.0394989596711817 13.040216975384437 2722.848786313001 26.84335240465201 0.3103870265738872
1.0656500076690711 13.046556752126236 2399.424254201768 28.068794900436167 0.31496448005934197
1.0919751917988312 13.052672146923735 2116.7773433937546 29.349012792093813 0.31963579572939
1.118470705034501 13.058513407240772 1869.590891252784 30.686678950687952 0.3244050964236679
1.145098789783491 13.06396323195469 1652.9954068692323 32.085277262758105 0.3292810121165411
1.1718578545543192 13.068985188468588 1462.9480549266355 33.546655316391096 0.3342606376098892
1.1987102275854697 13.073443140937918 1296.156322262415 35.0753975307397 0.33935782914660156
1.2256536866814622 13.077310585317587 1149.6826939093985 36.67357994962305 0.34456967569559915
1.2526453961479036 13.080481243344986 1020.7592534914583 38.34615445663352 0.3499100122783348
1.27968559098101 13.082927885441844 907.2348349251539 40.09544369005522 0.3553759241438247
1.3067243416825678 13.084522486825502 807.1994436940391 41.926890233424636 0.36098180557601267
1.3337603969234049 13.085233306474064 718.9675941172044 43.84389335100789 0.36672913111443894
1.3607659064384787 13.085039077851295 641.0195290446525 45.85127794599649 0.3726264222047362
1.3876952293535567 13.083786997817036 572.1517397567626 47.95430501002502 0.3786832460063807
1.4145492792962293 13.081500320371974 511.14151913729256 50.15764433574946 0.38490482341050797
1.4412704543248234 13.07805432603024 457.13419539684355 52.46667397613277 0.39129895879796384
1.4678637874448328 13.073463224825662 409.27377523782957 54.887725483788635 0.39787691797697167
1.494270721187242 13.06760596247674 366.7667471881631 57.426983381006124 0.40464775300600897
1.5204812989606615 13.060470213458707 329.0448732768776 60.09106982059811 0.4116212252947909
1.5464641690425567 13.051995775568992 295.490310782678 62.887083977378445 0.4188078639980723
1.5721788220890454 13.042124169631693 265.62966213171325 65.82264521038346 0.42621902917505233
1.5976014522119435 13.030808065291628 239.073547712671 68.90594037852637 0.43386698027217985
1.6226826439298248 13.017971497402135 215.3729299201022 72.14577573994428 0.4417649505554676
1.6474401236012841 13.003670879285767 194.2229652815443 75.55163391923475 0.4499272281940927
1.671789272960321 12.987749886979534 175.34832933860724 79.13355717724991 0.458368495938324
1.6957279704819586 12.970214789362117 158.46924893730932 82.9015038151214 0.4671010685166929
1.7191916818066935 12.950978215671416 143.38584665607598 86.8683088180531 0.476146941725847
1.7421953396263063 12.9300952257701 129.86653537449826 91.04567331051058 0.48552097594424504
1.7646770600050619 12.907459601805847 117.75850164346605 95.44740792733049 0.49524401019261677
1.7866053860712032 12.883039015322613 106.89165907288229 100.08744350990533 0.5053346335527692
1.807945929375679 12.856799335943446 97.1502090295175 104.98215364879604 0.5158179842024883
1.8286589517094625 12.828683689494536 88.38864980473369 110.14801336597668 0.5267163923210714
1.8487411522440336 12.79873333719679 80.51950829182961 115.60262652724148 0.5380531813024698
1.8681311596431376 12.766846784192234 73.43085801468916 121.36634203368824 0.549858243712201
1.8866126675639514 12.733138220234409 67.10132746352073 127.49521671633796 0.6528984445360542
1.9000661508242174 12.698055738215848 62.33226570201595 134.47777656724335 0.9427816306880414
1.907681864627668 12.657556280475207 58.826855297498426 142.49742814696253 1.219232225900742
1.91047737628506 12.610304010555101 56.13542244024877 151.57470943551175 1.4836497415738434
