M[M_sun], R[km], Lambda[1], P_c[MeV/fm^3], rho_c[fm^-3]
0.24162668629717493 15.618656898711224 2160425.4255784233 3.5677272577965504 0.1711233750220791
0.2536449482447854 15.277276931481223 1723216.227626448 3.784838221681593 0.17388840508857809
0.2660416435122727 14.981247169937076 1382918.2884661031 4.0114406203375745 0.17666713405583298
0.27881757766125775 14.72348730693923 1116419.6825329387 4.247789967449155 0.17945823045844997
0.2919736647415925 14.498351824456982 905810.0563284972 4.494511689261457 0.18226826493621714
0.30551035906705515 14.301163947874741 738626.7502794218 4.751762123737922 0.18509295809920748
0.319428884995718 14.128043704533336 605043.0204374326 5.020222405156253 0.18793890338769062
0.3337255809045114 13.975942537815136 497644.7855469371 5.300118132318731 0.1908027539453643
0.3484099374077576 13.841951997958745 410960.64631123864 5.592176210519094 0.19369077164185508
0.36347454500556203 13.723901930742253 340633.1381323143 5.896566100795909 0.19659805965665225
0.378928903355375 13.619958804300696 283268.16915255133 6.214151028601772 0.19953228056987254
0.394762750836293 13.528385263971145 236373.6986374654 6.5451862795865745 0.20248957465196765
0.41098926382511003 13.447826170785484 197837.70440256217 6.890378575402138 0.2054737259011422
0.4275981754061593 13.377003848994303 166049.78454330273 7.250431219808941 0.20848777407148728
0.4445957375368422 13.314865335945314 139777.60458006628 7.625600245550227 0.211527218426692
0.4619789526135447 13.260511418331623 117963.64167723565 8.016840593557168 0.21459831210503313
0.4797456528662137 13.213095266527352 99790.33147922762 8.424854734295494 0.21770265930985938
0.49790305161827303 13.171945072056234 84627.17272484412 8.850079680360265 0.22083767159566378
0.5164450986304011 13.136353967075372 71926.40397163384 9.293396513988839 0.22400686594628014
0.535364174695266 13.105815568051204 61262.47691570194 9.755686686090684 0.22721310985141657
0.5546730740500623 13.0797925734061 52293.510589670754 10.237759432270266 0.23045774687548576
0.5743582501661023 13.057807504732814 44719.04515043368 10.740081976392275 0.23373742262295527
0.5944172672481683 13.039494632744292 38319.97032872649 11.26390885941029 0.2370584471671907
0.6148565395033359 13.024483542924255 32893.82369550439 11.810173140813545 0.24042237389876386
0.6356629189845188 13.012433390117753 28284.836411999746 12.379854156586081 0.24383083636165445
0.6568351736345881 13.003012028623077 24364.51378560888 12.97363322327676 0.24728169705664768
0.6783689690848422 12.995965955060415 21021.733561630972 13.592852723025334 0.2507799144168535
0.7002599001011728 12.991044748989763 18166.870445668766 14.238703399443747 0.25432804233040207
0.722496224899226 12.987992832372054 15724.301500887097 14.912375372038094 0.25792806624298314
0.7450860124037118 12.986640467506334 13629.935811094245 15.614887091087912 0.26157976835161123
0.7680077154604845 12.986766884320964 11832.66681659888 16.347527544848326 0.2652852696018859
0.7912562138910886 12.98814880922619 10286.620372661837 17.111902505622652 0.2690491518052452
0.8148325206262096 12.99067527299139 8953.496194555071 17.909467587505944 0.27287384865973413
0.8387181081434105 12.994135603308305 7805.2872874971 18.74157072740601 0.2767602832793205
0.8629033214111518 12.998402564195692 6812.022164474716 19.609591700831594 0.2807092498313125
0.8873846746172055 13.003365969108106 5953.242662400523 20.51560023369828 0.28472695723157637
0.9121429505828927 13.008863659165193 5209.322609186244 21.461391202345833 0.2888164203149841
0.9371656744289355 13.014759435497878 4563.560794251147 22.448426486391 0.29297737919530925
0.9624512629068961 13.020966708040854 4003.0800579674933 23.478776856981977 0.297213994356214
0.9879734815462675 13.027364266500653 3515.255819947491 24.55484398867256 0.3015321916150425
1.0137197585635422 13.033803733705346 3090.6761987805817 25.67854362426846 0.3059334022172893
1.0396853504120969 13.040266995372956 2720.3783272695237 26.851891342041586 0.31041928514174244
1.065839701836322 13.046594115871285 2397.310728306507 28.077959218839595 0.3149983828580673
1.0921734170232456 13.05272666215429 2114.7828239793957 29.358770011520182 0.31967091572836165
1.1186750192285708 13.058550712390259 1867.6556375464309 30.69714556244544 0.32444201807486195
1.1453072457357005 13.064013682617881 1643.5226396311216 32.09641910600258 0.3293192943925017
1.1720723459555737 13.069022481136448 1461.4396358417105 33.55860308342785 0.3343009028166694
1.1989306937040605 13.073477344660404 1294.8939027172403 35.08820761242312 0.33940018861390764
1.2258779716492607 13.077343315183594 1148.5715737909732 36.68721517212652 0.3446136608127083
1.2528753522373808 13.080499422667284 1019.7133200474658 38.36071893959122 0.34995600701272267
1.2799203241514971 13.0829407815801 906.3194583466797 40.11100484982812 0.35542406517351444
1.306965810608279 13.084523055497932 806.4404985875216 41.94345963295708 0.3610318973810523
1.3340056637660838 13.085242149393629 718.2842794378906 43.861656759884795 0.36678193315217966
1.3610148067072698 13.085030618232839 640.331139249517 45.870198144080405 0.37268143957064953
1.3879473416230006 13.083766557247879 571.5566139804821 47.97446281060503 0.37874062161391103
1.4147968014997825 13.08145845565708 510.57112410104514 50.1792607742815 0.3849653950534555
1.4415294882686625 13.078016169738056 456.67082556955313 52.48971473726519 0.3913622200954063
1.4681258997491107 13.073412405896194 408.8274446159105 54.912292588837985 0.39794304820546705
1.4945366432790208 13.067544204659326 366.3680400574302 57.453187115119356 0.40471694530105595
1.5207485889108885 13.06039051986955 328.7029587473629 60.11902947263337 0.4116936877889427
1.5467350753382598 13.051896429273718 295.1583000391115 62.916928653612516 0.41888382107184496
1.5724497529125676 13.042010767168357 265.33556911172684 65.85451473026527 0.4262987228327247
1.5978637728795904 13.030670332125743 238.79692241159327 68.93998626170062 0.433950671656016
1.6229625040202549 13.017848500321353 215.13580718506316 72.1821622948996 0.4418529216134965
1.6477134566395857 13.00350321669201 194.00167662671402 75.59053944521438 0.4500197835184028
1.6720625604894097 12.987559616368987 175.1488871172187 79.17497214401132 0.4584651165819604
1.6959997544116545 12.969999971974447 158.28757759290576 82.94583228605474 0.46720293521379225
1.7194794940812324 12.950781718568498 143.21030595121516 86.91577898155997 0.47625443829042524
1.7424605290059696 12.929825676265008 129.71971535046185 91.09630492579622 0.48563361265142796
1.7649429463348445 12.907175355964409 117.6162157529832 95.50168874074481 0.4953631144175645
1.786868521146538 12.882735056780843 106.7675230477861 100.14542078510713 0.5054597459973819
1.8082077635871807 12.85646367789366 97.04065465363934 105.04412802360702 0.5159495869173027
1.828919137572043 12.828329892411174 88.29040359855037 110.23017223894865 0.5268534073248303
1.8425841787690935 12.799952850568884 82.33826160935904 116.39262411025923 1.1861299297440562
