M[M_sun], R[km], Lambda[1], P_c[MeV/fm^3], rho_c[fm^-3]
0.24162668629717493 15.618656898711224 2160425.4255784233 3.5677272577965504 0.1711233750220791
0.25364082118558257 15.277371012060003 1723291.379451997 3.78477747389498 0.17388764789672367
0.26603580127957016 14.981324025309528 1383076.243617402 4.0113129167875 0.17666559083379582
0.2788075763333281 14.723670108525837 1094186.3073268668 4.247590988159594 0.17945592259854645
0.29195934293248327 14.498562699478368 906050.3818152812 4.494236213313607 0.1822651974476032
0.30549107946966136 14.301417193930472 738750.7664492467 4.75140079797308 0.1850890550913466
0.31940423443104027 14.12836192446101 605247.5853461364 5.019772568438337 0.18793423615812122
0.3336998490227804 13.97613870185227 497784.97820915654 5.299567942316931 0.1907972144449765
0.3483762425123069 13.842243335250437 411129.7644938944 5.591524294041341 0.1936844641705968
0.363436813512287 13.724169992702553 340750.4424915655 5.895797812409759 0.19659084372954236
0.3788859912712411 13.620194729307272 283411.4052807208 6.213257071690758 0.19952412875923828
0.3947136830466766 13.52865515343866 236501.80396422348 6.544167582800435 0.20248064205734514
0.410935146820052 13.448072938958616 197951.9329568775 6.889215473923975 0.20546382044087758
0.4275375860039683 13.377249560382975 166153.02459827697 7.249112800185618 0.20847686712382554
0.4445298758040267 13.31510387226479 139867.53402088291 7.624130152210308 0.21151551553843934
0.4619063003708368 13.260719670166365 118040.9203239532 8.01519318599965 0.21458556807570392
0.47966630994666104 13.213300203637454 99862.56809756065 8.423017167445325 0.21768884337601746
0.4978180470701281 13.172122986431111 84689.99796013017 8.84805872998186 0.22082303905143846
0.5163516010650661 13.136521945554094 71978.2598199849 9.291159476726207 0.2239911170644882
0.5352647177119476 13.105954312943025 61311.3397694963 9.753218395657354 0.22719621062856776
0.5545666938872296 13.079903776869235 52335.96610508347 10.235044405673555 0.23043966960632456
0.57423796737739 13.057994819635919 44757.82164613916 10.737130803631022 0.23371847517966912
0.594295223836142 13.03959762874811 38353.619057926924 11.260677766710192 0.2370382592415297
0.6147262621797421 13.024558477455995 32924.94100835463 11.80664304224815 0.24040090500964684
0.6355222252014122 13.012491148787333 28315.614296206084 12.376004775584255 0.24380804389110716
0.6566878432272156 13.003073651118413 24389.12138873629 12.969482236684659 0.24725797171947939
0.6782132141263715 12.996013311770641 21043.86739463784 13.588341189920815 0.25075479540923956
0.700096160228473 12.991086607041595 18187.522855930838 14.233807132090037 0.25430147984104584
0.7223228862543427 12.988017175859193 15742.468761909238 14.907068628689464 0.2579000074905069
0.7449052357572873 12.986659403186456 13645.182900635831 15.609194250512418 0.2615506703267997
0.7678186177372651 12.98675050602518 11845.458741975803 16.341371519822165 0.2652545833611149
0.7910566244464944 12.98812347224885 10297.905757180873 17.105252403428434 0.2690168146101883
0.8146241626577977 12.99064116296568 8964.04426438208 17.902290467406168 0.2728397937380494
0.8385004851297571 12.99410358443004 7764.450871336296 18.733898421516376 0.2767250330035153
0.8626749106919371 12.998372198719768 6820.791433079269 19.601324458667893 0.28067215992960076
0.8871434676623735 13.003313151249346 5961.103351373752 20.506698269362587 0.28468794744358594
0.9118963053295296 13.008813726222451 5185.238398023859 21.45181200567058 0.2887754049688314
0.9369100772178683 13.014696003649536 4569.6443665902 22.438209958689367 0.2929349455556454
0.962180264451264 13.020893293604303 4008.4616147193346 23.467794799576666 0.2971693929580038
0.9876999004697992 13.027278569371465 3520.183374127936 24.543044715696468 0.3014853187048864
1.0134339299747146 13.033745005053003 3094.959741065736 25.665972806255983 0.3058848890095763
1.039390198803662 13.040203484761173 2724.333498342855 26.838395312952226 0.3103682995740667
1.065538378463757 13.04653218639099 2400.877072716008 28.063474811451545 0.31494479873683584
1.0918607679911385 13.052653242390914 2118.0838097103456 29.343348557448934 0.31961540796252624
1.118352458876473 13.058488709900992 1870.6402934381995 30.680602964159068 0.3243836629874731
1.1449778450445303 13.063950085920464 1653.7677396728166 32.078809350877094 0.3292587890083817
1.1717334142127318 13.068963428445906 1463.7199771801643 33.539719633532286 0.3342372636435562
1.198583290527457 13.073428386514795 1296.9180804065445 35.067961353152825 0.33933323972327406
1.2255225686050757 13.07729632987778 1150.3459186223117 36.665664851436716 0.3445441428140809
1.2525130209726973 13.080467061068576 1021.3328904732722 38.33766939871184 0.34988313347494854
1.2795485580400858 13.082916816171684 907.7539558931795 40.08641078572365 0.35534797935552115
1.306586696085765 13.084508898951212 807.767739447678 41.91727215603206 0.3609527286709226
1.3336174365012976 13.085234627619773 719.3857402631476 43.83358230137901 0.3666984813424597
1.3606218047496974 13.085038503637065 641.3976411004148 45.84029552327639 0.37259448681131546
1.3875484694518734 13.08379353539864 572.5123123279617 47.9426043204267 0.3786499420667191
1.414398848008424 13.081519284950373 511.4573503897185 50.14509712199603 0.3848696647348393
1.4411270694416993 13.07809584903475 457.4345194711556 52.453300150642534 0.391262239283907
1.4677102073181516 13.073496604706046 409.51526648332964 54.873465849054895 0.3978385336048078
1.4941166534773094 13.06764353245319 367.01582481206253 57.411773945445375 0.4046075917164664
1.5203264254172986 13.060515229316241 329.26208329107783 60.07484136942232 0.41157916632900204
1.5463065874202186 13.052049099360673 295.6702937815175 62.86976160065938 0.41876377717213226
1.572020991980558 13.042188551500683 265.80686012968283 65.80414778354088 0.42617277408215865
1.5974435957919961 13.030883569797503 239.23517374335475 68.88617998989542 0.43381840540451677
1.6225304396612397 13.018086306236832 215.51707246686686 72.1246570594197 0.44171389233706243
1.6472821919880634 13.003767867515998 194.35784653350294 75.52905350124217 0.44987350991480624
1.671631178420683 12.987861364387369 175.4670052170449 79.10952054587467 0.45831241875232254
1.6955703288645523 12.970337353718195 158.58283059607237 82.87577654990456 0.46704194733615456
1.7190404513667088 12.951143806340054 143.46888787128435 86.84075853580617 0.47608455389155446
1.7420407439809757 12.930245528289602 129.96212436162415 91.01628854160556 0.485455605649576
1.7645264770610487 12.907631086568065 117.83835015697892 95.41590571830201 0.49517488731190684
1.7864526112010926 12.883218347971015 106.96479875401266 100.05379643460545 0.505262024624009
1.8077947769555807 12.856994345954348 97.21850061739613 104.94618729928085 0.5157416095839044
1.8285204410453726 12.828916946810182 88.45416650831994 110.10938540322472 0.5266353833632924
1.8485961245173657 12.798962607662656 80.57511057444748 115.56127638304413 0.5379677661733959
1.8679885615967868 12.767091358314419 73.48184691372914 121.3220423912502 0.549768065874205
1.886666546208665 12.733282559680848 67.09916276252916 127.4129595478147 0.5620656359991789
1.9045964084628169 12.697501759488476 61.33975723069366 133.85676585606066 0.5748909254285132
1.9217325920961823 12.659676927781659 56.1487165981228 140.67840315172762 0.5882777136351145
1.9380791124540753 12.619909199453867 51.46264917815093 147.90583318780998 0.6022654106698929
1.953572995763467 12.578056829212933 47.22687585880129 155.56788876263158 0.6168910532795168
1.9682076042486765 12.534192565478929 43.39594142757273 163.69753382625527 0.6322000376304763
1.9819384565973874 12.488246306711813 39.93279281910742 172.3287562407894 0.6482348242598457
1.9947380397341223 12.440209403855876 36.793149535649306 181.50086885399176 0.6650488282363162
2.006584739567157 12.390085124848255 33.94914778718009 191.25561007813684 0.6826957740151491
2.0174529801101144 12.337874401939835 31.369570850500445 201.63890531788618 0.7012347527792375
2.027305095330727 12.283538481194011 29.030966112270914 212.70104551860598 0.7207297981557144
2.0361315744026336 12.227123487470198 26.904954708882894 224.49647027111993 0.7412480717909078
2.0438956568074786 12.168582875262063 24.973974530757648 237.08712894558423 0.7628695805009328
2.0505738992257467 12.107928117695792 23.21693422401332 250.53884586427924 0.7856738564547219
2.0561605267400265 12.0452098412878 21.61981883035661 264.92527977801956 0.8097512585561177
2.060634108227626 11.980436702095117 20.16716776999194 280.3280125149911 0.8352013929575733
2.0639681257031706 11.913607293348653 18.844798465565404 296.83605752898023 0.8621293795723254
2.0661448204080903 11.844747516504448 17.639690908071547 314.5494358242732 0.8906550864193058
2.0671603898629654 11.773914535092944 16.543776424983292 333.5780058658113 0.9209064973801833
