M[M_sun], R[km], Lambda[1], P_c[MeV/fm^3], rho_c[fm^-3]
0.24162668629717493 15.618656898711224 2160425.4255784233 3.5677272577965504 0.1711233750220791
0.25364388376836033 15.277278108461454 1723221.093840377 3.784817301198023 0.17388814432484276
0.26603969065079475 14.981263710971747 1383049.6074962136 4.011396641122619 0.176666602592975
0.2788146724825492 14.723550196171626 1116431.6702921868 4.2477214414289834 0.17945743565988248
0.2919682817099591 14.498470054663489 905933.7771456267 4.4944168180662745 0.18226720852344033
0.30550506170740227 14.30119685327401 738660.6195842734 4.7516376858271165 0.18509161393227747
0.3194199667617293 14.128140412871632 605096.1505092334 5.020067483686534 0.18793729601764808
0.33371913500634975 13.975955425652083 497691.4119214464 5.2999286483739745 0.19080084615645132
0.3483986720234699 13.84204631283186 411017.33402341383 5.591951690797644 0.1936885993517868
0.36345991345345796 13.724033096527638 340659.2754899079 5.896301500849079 0.1965955744779563
0.3789142164068926 13.620011674903525 283313.5122686935 6.213843146107265 0.19952947305223728
0.39474640084492185 13.528465824247625 236414.88109630867 6.544835433999059 0.2024864982101343
0.41097020207738655 13.447892501821647 197868.56523841366 6.889977993283509 0.2054703143757222
0.42757847652101666 13.377071115869748 166099.51111811856 7.249977141808492 0.2084840176005598
0.44457296557493664 13.314960367187167 139812.04090876394 7.625093926502284 0.2115231878015083
0.46195339801990404 13.260597096276573 117980.75831467359 8.016273201548964 0.21459392286913292
0.47971829242743835 13.213164252901729 99812.25535012883 8.42422184449079 0.21769790086329174
0.49787546257609194 13.171999667010837 83772.89270631387 8.84938362616517 0.22083263186589022
0.5164131098342606 13.136405503933677 71944.4514760407 9.292626030426272 0.22400144169396563
0.5353297941556073 13.105882939023568 61279.64967701635 9.754836548606313 0.2272072893601946
0.5546362437592997 13.079839495955593 52303.04569180897 10.236824703621155 0.2304515256961591
0.5743189304729445 13.057847067961822 44733.622404703536 10.739065510924554 0.2337308965997909
0.5943755231489453 13.039525269735739 38331.821874165085 11.2627959748246 0.23705149384416024
0.6148105962086972 13.02451147854402 32903.72678844098 11.808957262111202 0.2404149793276048
0.6356148559374447 13.01244003456395 28293.683458700805 12.37852829854506 0.24382298585781098
0.6567838445346408 13.003023248320943 24371.720769201456 12.972203474487014 0.2472735251988616
0.6783163263236369 12.995975267505477 21029.791787736634 13.591298779426578 0.250771262475222
0.7002037095052625 12.99106738362162 18038.11121239816 14.237016928256534 0.2543188931419032
0.7224372321061894 12.987997162366955 15731.165423727012 14.910547505053438 0.2579184016212156
0.7450234138752699 12.986651184990551 13635.099378362247 15.612926225783676 0.2615697457088693
0.7679434137673965 12.986751343185894 11836.727896490718 16.34540712520013 0.2652746998417593
0.791187409164698 12.988136400003258 10289.602829665264 17.10961188865482 0.2690380133105986
0.8147619308532318 12.990665299999808 8957.030897427472 17.90699542458383 0.27286211842343683
0.83864195070121 12.994124372304462 7808.186607815205 18.738927983938265 0.2767481412404784
0.8628236450458019 12.998399458061641 6815.348671548445 19.60674401225998 0.28069647404863485
0.8872942199152648 13.003367040342697 5955.816554993556 20.512533892822173 0.2847135200504136
0.9120584305186545 13.008849547849467 5211.735184207141 21.458091563271317 0.2888022922159996
0.9370771817323005 13.014728286261644 4565.601812658386 22.444907294827917 0.29296276247708003
0.9623556828432441 13.020928352606072 4004.9629321075918 23.474993946239927 0.29719863083167825
0.9878792448669103 13.027332711356934 3516.8335078371356 24.5507795511828 0.3015160455343748
1.0136211016371812 13.033788612727957 3092.1673390895967 25.674213393733485 0.3059166910236995
1.0395848227669948 13.040240785924665 2721.7337646635556 26.84724237636336 0.31040172218654727
1.0657345871066852 13.04656672396945 2398.6093828991548 28.072969754214533 0.3149799246588337
1.0920655956842242 13.052703291779933 2115.923746456717 29.353457732514414 0.31965179478569683
1.1185639476960652 13.058531845505307 1868.8694780377664 30.691447040698645 0.32442191617014515
1.145193653199587 13.063983933360813 1652.270716578381 32.090352941446426 0.32929845164857996
1.171955691468123 13.068999579113624 1462.252799630481 33.55209811480352 0.3342789804017151
1.1988100328834606 13.073460008573763 1295.5590588240302 35.08123313468075 0.3393771259067988
1.225756036827485 13.07732400843462 1149.2230874370216 36.67979142600706 0.3445897129568981
1.2527505838330852 13.08049551950109 1020.2963613035419 38.35281326398522 0.34993110592026927
1.2797918227160023 13.082930815124811 906.8172574423651 40.10253247169686 0.35539785446601496
1.3068353764337168 13.084519148509242 806.8502940598571 41.934438288249424 0.3610046244892733
1.3338715812522237 13.085236350795821 718.6790435655845 43.85198529539496 0.36675318455800276
1.3608805869724332 13.085031312201853 640.7106503814342 45.859896826267885 0.372651484737779
1.3878095732556082 13.083776574905954 571.8765897939871 47.96348763566604 0.3787093827231711
1.4146658538396593 13.081488521272245 510.8806550826628 50.16749138476978 0.38493241592703015
1.4413889753026006 13.07803737640545 456.9431476300077 52.477169818262404 0.3913277764479996
1.467983221640371 13.07343989445991 409.0703337405804 54.89891658777712 0.39790704241623254
1.4943918564515397 13.067578033065901 366.5834040995632 57.43891997935355 0.40467927220213357
1.5206028581098396 13.060436332473726 328.872084252767 60.103806246506664 0.41165423404564194
1.5465860376616372 13.051951252218737 295.32843756861365 62.90067903532214 0.41884246450139406
1.572302006388155 13.042073359063243 265.5032462640416 65.83716258404003 0.4262553316550012
1.5977262009405313 13.030746615691207 238.95190268894703 68.92144908027065 0.4339051036688865
1.6228130897681972 13.017929123271726 215.26567493003031 72.16235060661796 0.44180502328452265
1.6475653528394087 13.003593328264808 194.1253795892286 75.56935615949186 0.44996938898367717
1.6719148905160115 12.987660563552664 175.256936973244 79.15242245181601 0.458412508408054
1.6958521680049732 12.970116900943951 158.38773544468182 82.92169615740434 0.46714747046044947
1.7193320159697416 12.950911022778602 143.30003617145823 86.88993215744887 0.476195907950693
1.742318026789562 12.929973595197495 129.7950419908656 91.0687366481511 0.4855722833811858
1.7647978706145433 12.907329785982224 117.69548953680619 95.47213340618546 0.4952982634141557
1.7867251677047757 12.882897742514212 106.83489465159315 100.11385265808796 0.5053916233488189
1.8080646149934356 12.856647664170874 97.09777846472593 105.01038339129919 0.5158779301198656
1.8287755684951361 12.828517403834699 88.34115075274059 110.17826214801825 0.5267797145573822
1.8488559502543742 12.798556199869966 80.47453663795598 115.63508255958085 0.5381202242655673
1.868242755123282 12.766654051337063 73.39134790385363 121.40111345561944 0.5499290255849484
1.8869140837623117 12.732808428340599 67.0197788219901 127.49773929773816 0.5622357882808058
1.9048371395074122 12.697000014641244 61.26571064463057 133.9474283866894 0.5750699214144402
1.9219806282816003 12.659188299684851 56.0821398685027 140.77578041524268 0.5884674415751436
1.938296236240084 12.619306369148346 51.40007705114842 148.01050813216105 0.6024667581332555
1.9537943188777804 12.577468792574544 47.1686872032822 155.68015702349336 0.6171038128720612
1.9684122655587728 12.533548853173201 43.34453995208974 163.81831029786565 0.6324260052344003
1.982129256909963 12.487554981524504 39.884791948681425 172.45868085989807 0.6484747158633659
1.9949195565993654 12.439488013349333 36.75018826853524 181.6406472468179 0.6653034365169862
2.006759320241747 12.389333367330615 33.90783816161323 191.40614963129806 0.6829664007753175
2.0176087833423937 12.337068212998044 31.331317488330615 201.80120696456203 0.7015228221923498
2.027447901637681 12.282689629647768 28.994900434011377 212.87580549676736 0.7210355302819503
2.036261333465676 12.226231972853503 26.873867994221296 224.68530550738546 0.7415744779923222
2.044008948594167 12.167646120414918 24.945616852729568 237.29095910697956 0.7632171296502694
2.050671671726454 12.106948635753819 23.190931109222053 250.75955483487186 0.7860458739456215
2.0562483572658854 12.044210412088729 21.597298322183498 265.16413030581964 0.8101487197113002
2.0606978536515794 11.97937012834334 20.14475802541886 280.5865257164265 0.8356257424820248
2.0640061616267786 11.91248067425807 18.82383364683501 297.1163020719485 0.8625834259464636
2.06617012675401 11.843591737039237 17.621117348043285 314.85386283138223 0.8911424141815034
2.0671670300512104 11.772709349041918 16.525615906567342 333.9086224455051 0.9214286798583436
