M[M_sun], R[km], Lambda[1], P_c[MeV/fm^3], rho_c[fm^-3]
0.24162668629717493 15.618656898711224 2160425.4255784233 3.5677272577965504 0.1711233750220791
0.2536389179065449 15.277454222387666 1723279.11821042 3.784747573711453 0.17388727520536032
0.2660316323425513 14.981438772917281 1383148.6633459646 4.011250061909677 0.17666483126969174
0.2788026247092224 14.723762899396627 1116684.9598732835 4.247493053421937 0.17945478670317414
0.2919517998545027 14.49870421741088 906136.0017515669 4.494100630192193 0.18226368769807905
0.30548263265782655 14.301519058870891 738895.3413985218 4.751222964369525 0.18508713414902767
0.3193930797932212 14.128470501659075 605296.2062988149 5.019551175818191 0.1879319391242375
0.33368664227763767 13.976289193550398 497903.99288368435 5.299297163887086 0.1907944881554906
0.3483622975963153 13.842336160926806 411218.1255797428 5.591203455208746 0.1936813599666317
0.363416668414792 13.724343704640873 340828.7168978688 5.89541970731653 0.1965872924864912
0.37886358887205585 13.620354330828008 283473.61995947 6.212817126894205 0.19952011699242175
0.39468973861635903 13.528768339689956 236550.14966795302 6.543666256542099 0.20247624610331813
0.41090852218745555 13.448195973236754 198009.4075598159 6.888643091097419 0.2054589457885355
0.42750942425925437 13.377342171877212 166222.49081161807 7.2484639922463625 0.2084714997020193
0.4444973564788866 13.315200317052227 139916.53155367036 7.623406713745608 0.2115097565030909
0.46187102801733 13.26081724550406 118081.8244880049 8.01438250245685 0.21457929678309087
0.4796273456254824 13.213398750686938 99908.16470303826 8.422112920404482 0.2176820447023845
0.49777678508308365 13.172206408879209 84720.99260915231 8.847064254648899 0.22081583862512122
0.516306075839907 13.136607754836039 72013.07694634721 9.290058684601966 0.22398336741930716
0.5352150670511254 13.106028527766455 61337.72168722884 9.752003826900454 0.2271878950479493
0.5545138900613014 13.079966651842101 52359.910975956525 10.23370814732095 0.23043077064697226
0.5741844324741278 13.057978059971663 44776.33777540408 10.73567866227363 0.23370915198233758
0.594236292903588 13.039661837012876 38370.33073104479 11.259087911766594 0.2370283257990716
0.6146620102393117 13.024621472695035 32941.76275888473 11.804906086535143 0.24039034142086516
0.6354535297266184 13.01253339508027 28327.24871026845 12.374110746485588 0.24379682920427137
0.656615023188226 13.003105631016298 24403.176038123096 12.967439831556549 0.24724629816929475
0.6781380615900043 12.996036007951554 21055.21961158057 13.586121416878976 0.2507424363076554
0.7000153960753027 12.991100112050017 18196.84033566746 14.231398095449686 0.2542884106996988
0.7222391726385725 12.988012213438925 15750.466503402258 14.90445766871146 0.2578862023608944
0.7448159114659693 12.986663090005322 13653.178094835645 15.606393360448388 0.26153635403469616
0.7677248402282794 12.986756769411027 11852.143622340098 16.33834278489617 0.2652394858771418
0.7909592608143526 12.988113500308627 10235.043367308243 17.101980631383167 0.2690009050906471
0.8145225849322643 12.990631351188856 8970.524142211425 17.898759459103243 0.27282303935613117
0.8383917446112001 12.994087808343041 7818.766754538884 18.730123835094826 0.27670769073193174
0.8625630175162969 12.998350629318859 6825.032496611815 19.597257236479805 0.2806539128687056
0.887026082263178 13.003284396299641 5964.849981836148 20.502318847006205 0.28466875613578013
0.9117751168997897 13.008777689677833 5219.267993858855 21.447099479485427 0.28875522729639286
0.936783493757516 13.014665923549625 4572.828410199448 22.43318395390654 0.2929140703931507
0.9620493581298905 13.020856059600737 4011.062133010382 23.462392272766678 0.29714745169138135
0.9875650077711785 13.027250662480355 3522.5832931677023 24.53724025250268 0.3014622603281255
1.0132998172558243 13.033712541871454 3097.3489654332648 25.659788867718152 0.3058610239997995
1.0392459527388782 13.040162795069342 2726.1960201564966 26.831756336449168 0.3103432187163156
1.0653896469419344 13.046498045614792 2402.4501531538385 28.05634973881223 0.31491843999492397
1.0917070690693558 13.052615272902889 2119.4392768928597 29.335762631929136 0.31958810328843695
1.1181945214932498 13.058454813878011 1872.0546018216517 30.672465664801344 0.3243549581367049
1.144814653429645 13.063916407272863 1655.0077452431967 32.070093409147184 0.3292286786607873
1.1715666321209441 13.06893184644918 1464.803009667282 33.53043113184197 0.33420596043517525
1.1984157676413967 13.073413658584315 1297.8572724109304 35.05800266312362 0.33930030903515446
1.225348021081644 13.077277287008112 1151.2465035853845 36.65506485978192 0.344509948881846
1.2523341833714692 13.080451644045898 1022.1356967124408 38.326306216922255 0.3498471374060963
1.279365481970396 13.08289623896573 908.4363643630531 40.07431402160343 0.355310556008601
1.3064004032294252 13.084509491240205 808.3529682450285 41.90439183542656 0.3609137895103721
1.3334289868826694 13.085231474576968 720.0082195340651 43.81977410215893 0.3666574362333028
1.360428983536195 13.085043074340614 642.0465735850859 45.82558836350842 0.37255172038852685
1.3873520310439436 13.083808333987763 572.9841178129741 47.926935419480486 0.3786053433165949
1.4141997969611628 13.081536906396598 511.88668695190717 50.12829477537537 0.3848225827079514
1.4409251258538465 13.078122804198587 457.8275474511645 52.435391016919674 0.3912130675126766
1.4675073856668608 13.073536959229546 409.8726847419479 54.85437067872266 0.39778713284046496
1.4939104467349766 13.067694677241514 367.3048436920964 57.39140707214835 0.40455381194980167
1.5201176966426333 13.060579454318423 329.5404265406483 60.053110135685486 0.4115228459071462
1.5460973225053711 13.052123800845594 295.93146556092216 62.84656572633859 0.41870474182783207
1.5718105877656379 13.04227821269452 266.0500232280626 65.7793786706211 0.42611083586617055
1.5972265952057332 13.030973896926232 239.43456942790607 68.85971995648534 0.4337533615106308
1.6223182503968618 13.018202322991979 215.71207603911918 72.0963784949117 0.4416455238080176
1.647069836971194 13.003898213744794 194.5280428697057 75.49881793361371 0.4498015802159501
1.6714240247038503 12.988006208672576 175.62305424514642 79.07723906620745 0.45823692886678014
1.6953585198236474 12.970504230889768 158.7308870954185 82.84132796865485 0.46696278459677326
1.7188233217586362 12.951297860723765 143.60410619171586 86.80386935574984 0.4760010180485488
1.741838952510653 12.93046369831138 130.07799107070232 90.97694340290192 0.4853680771983854
1.7643189785801745 12.907854613450722 117.94379910939189 95.37372589111243 0.49508233535275514
1.7862480877827913 12.883461048456802 107.0668056134599 100.00874520087547 0.5051648060161122
1.8075927183826734 12.85725204635377 97.30472627293167 104.89803121528035 0.5156393500385902
1.8283224524193395 12.829203113184033 88.53353618923224 110.0576662758859 0.5265269201593213
1.8484013188835096 12.799266019309222 80.64938385619155 115.50591313629917 0.5378534048100085
1.8677991527687807 12.76742248139505 73.54722971645582 121.26273078003442 0.5496473291690503
1.8864806812211405 12.733636531456668 67.1597552334838 127.349366836449 0.5619380059348831
1.904416866778723 12.697879504676392 61.39720164041754 133.78876149259165 0.5747566636998579
1.9215562696133874 12.66007188197651 56.203718948209804 140.60536342968015 0.5881354044809636
1.9379096614266467 12.62033910154426 51.50884370445787 147.82732107777014 0.6021143887200102
1.9534147914909457 12.578531204255796 47.26978187196199 155.483682602459 0.6167314741768342
1.9680546639612575 12.534681418742053 43.43661266475055 163.60685935019694 0.6320302556558747
1.9817931765525618 12.488757882563332 39.96857664288324 172.2313105628016 0.6480549014699313
1.9946010977697095 12.440752148856552 36.827630250169186 181.39603458269286 0.6648578711575358
2.006457326315079 12.390658740653071 33.9819749997184 191.14270702994423 0.6824928068513448
2.0173430934084493 12.338496340481253 31.3998803851436 201.51718320892218 0.7010187080427224
2.027197196964483 12.284174661036506 29.056312400464645 212.56996207036096 0.7205004444226405
2.0360235081329683 12.227756028034726 26.928359068010103 224.35485426833614 0.7410032851586972
2.0438101277432423 12.16928389599604 24.99519511740361 236.9342706729649 0.7626089431043168
2.0505020816578807 12.10866379769123 23.238722492697107 250.37331053174773 0.7853948013014985
2.0561003283730557 12.045976603407432 21.638883961013523 264.74616668749655 0.8094532039672362
2.060586073226956 11.981236348362627 20.18425527261718 280.1339609077301 0.8348825358400768
2.0639342218745673 11.914443380922252 18.860262162432633 296.6259127265194 0.8617889073383588
2.066123965057245 11.84561603199632 17.653886956967703 314.32116315374105 0.8902896667715626
2.067154235564042 11.774817445109084 16.55626200041298 333.3301011549389 0.9205149516918489
