M[M_sun], R[km], Lambda[1], P_c[MeV/fm^3], rho_c[fm^-3]
0.24162668629717493 15.618656898711224 2160425.4255784233 3.5677272577965504 0.1711233750220791
0.2536454045831597 15.277244408166965 1723372.9306254808 3.7848492377936687 0.17388854239910076
0.2660428429044883 14.981217126161106 1382970.7719485546 4.011463778638828 0.17666741391023655
0.27881997444382584 14.723429399668515 1116359.586679861 4.247826051662939 0.1794586489809521
0.2919762506362692 14.498310479434245 905675.0029233571 4.4945616465152245 0.18226882122183233
0.3055136457418193 14.301127980826081 738555.4406616886 4.751827650600952 0.1850936659143881
0.31943223393664744 14.128011862748457 605008.5987534849 5.0203039845777235 0.18793974980567513
0.3337334528577427 13.975785427004901 497578.7398193788 5.3002179123991375 0.1908037585652089
0.34841585147735377 13.84190200214665 410922.0221115691 5.592294440653282 0.19369191555092732
0.36348160281071634 13.723840796395748 340600.24963057373 5.896705437586941 0.19659936833728042
0.3789362687047565 13.61989250210198 283232.6486737945 6.214313158606354 0.1995337590002971
0.3947715083023409 13.528339911540385 236341.89860735342 6.545371034739652 0.20249119470506816
0.4109991023364639 13.447776999410122 197812.08205990386 6.890589522911009 0.20547552241864844
0.42760883739259015 13.376967098850162 166037.01656001306 7.250670339637082 0.20848975224854435
0.4446073877110927 13.314824260694547 139763.40564875767 7.625866877041715 0.21152934098480772
0.4619903091884226 13.260462999342938 117938.01116424435 8.017139388085006 0.21460062352227094
0.47975964494807405 13.213070345416945 99777.31860420028 8.42518802236166 0.21770516517018879
0.49791945161730555 13.17190753525438 84607.45452707476 8.85044623328273 0.22084032559543845
0.5164611901661915 13.136325901465902 71914.10167344198 9.293802264633172 0.22400972245611186
0.5353830352225649 13.1057732762723 61253.93811695378 9.756134386207753 0.22721617504339953
0.5546931520526764 13.079764118970386 52284.538534363775 10.238247210410425 0.23046096559493595
0.574378852015611 13.057789596599372 44712.06442197079 10.740617273322904 0.23374085939506414
0.5944390254390959 13.039496840901267 38312.35639824061 11.264494936072278 0.23706210898478064
0.6148800010970539 13.024464319798694 32888.578685721746 11.810813460310658 0.2404262681096558
0.635687829106028 13.012404347145536 28279.668776955412 12.38055239811224 0.24383497070154245
0.6568615059731744 13.00299091501728 24359.68275468398 12.97438618034077 0.247286000650461
0.6783964633292309 12.995961379160331 21017.465223552877 13.593671089611373 0.250784470862751
0.7002894860961892 12.991050607498618 18163.503184277048 14.23959156459164 0.2543328606696763
0.7225269505989326 12.987992604772765 15720.552874260835 14.913338006837343 0.25793315605603473
0.7451190956974344 12.986651325888358 13627.149325903161 15.615919772890704 0.2615850467359822
0.768043437141682 12.986765350135354 11830.062747430107 16.348644260876814 0.2652908361512059
0.7912912752837798 12.988152206268195 10284.3239704604 17.11310886187018 0.26905501790717046
0.8148698141164151 12.990684614501939 8951.287344322274 17.910769561695794 0.27288002643416936
0.8387574005062038 12.994150554586783 7803.277216059864 18.74296254421736 0.27676667795742327
0.8629425072084868 12.998414757762262 6810.207471094747 19.611091460794366 0.2807159783084163
0.8874274684159064 13.003373329597107 5951.846774691103 20.517215156999267 0.2847340340758791
0.9121871253199938 13.008879567125296 5208.2014943055965 21.46312900367211 0.2888238610770186
0.93721229909749 13.014766296261019 4562.929960732633 22.45027992580139 0.2929850773274316
0.9624983956720046 13.020978493627108 4002.0470478146426 23.48076919866247 0.2972220858477609
0.9880240935690224 13.027357060242824 3514.52931483568 24.556984612883454 0.3015406952988304
1.0137708373406848 13.03382234977587 3090.1772921219745 25.68082424375449 0.3059422035671084
1.0397383466875758 13.040283136235052 2719.722901044033 26.854339843926727 0.3104285351409639
1.065893593940475 13.04660930708627 2396.6229015273248 28.080587067574154 0.31500810441321264
1.0922290883907633 13.052734840074674 2114.335226200493 29.36156789203836 0.3196809863803197
1.1187317247196942 13.058565853482555 1867.149244818217 30.70014688624206 0.3244526054390355
1.145367122709571 13.06402378318391 1650.9199176614486 32.09961407568273 0.32933027199363085
1.1721335606639236 13.06903522346675 1461.1491974719258 33.56202918443796 0.3343124491303193
1.198993568958994 13.07349196755729 1294.5320956331927 35.0918810197007 0.33941233557591166
1.2259433571029308 13.077351932993558 1148.2496705976807 36.691125223704866 0.34462627403383705
1.2529419149997014 13.080519062334398 1019.4373733104613 38.36488150729467 0.34996911453936985
1.2799884197177136 13.082948900414678 906.0688305744518 40.11546725748852 0.3554378703720216
1.3070400757915146 13.084549228930548 806.187779966832 41.94821120444037 0.3610462621015062
1.3340749250520552 13.085236733002963 718.0350537710958 43.86675078198388 0.36679707522029237
1.361085661552393 13.085028640875551 640.1433868727822 45.87562394079814 0.37269721705046593
1.3880268449348563 13.083776862024173 571.3517294603437 47.980243563067354 0.3787570755014863
1.414872000857747 13.081449954540675 510.42976550846214 50.185459887532566 0.3849827656519414
1.441604706192562 13.07800432877077 456.5257999039911 52.49632236807445 0.3913803621739432
1.4682016200162766 13.07339695801319 408.70088501423425 54.91933800290895 0.39796201319305596
1.4946121626611455 13.067522729749719 366.2467182276389 57.46070194910224 0.40473678860308027
1.5208252511408993 13.060367999887792 328.59132389524734 60.12704794644133 0.4117144691137848
1.5468101931531946 13.051870411304671 295.05766009790756 62.925487803926195 0.41890560478987593
1.5725280913015847 13.04197819500667 265.24828428988434 65.86365466758794 0.4263215783711464
1.5979409780971905 13.030632806261153 238.72088245291653 68.94975045360802 0.4339746739334305
1.6230505034377538 13.017817221507661 215.05551206476153 72.19259787846052 0.441878151518557
1.647792440066887 13.003453274412244 193.927660217024 75.60169757192052 0.45004632843740794
1.6721407823729062 12.98750534243785 175.09470095348863 79.18685007769727 0.4584928276653573
1.6960774951440227 12.969943871498351 158.23494484461747 82.9585459502637 0.46723215117711625
1.7195567088851451 12.950714592254107 143.15746025319723 86.92939384310597 0.4762852692531876
1.742538710537429 12.929763010211119 129.673422696275 91.11082665100565 0.48566591814476406
1.7650182166420842 12.907095026356378 117.5759153703398 95.51725726789772 0.49539727524242116
1.7869294747052176 12.882613707545662 106.73430079758177 100.16204967156607 0.5054956304129364
1.808280023010221 12.856369094507693 97.00532193464176 105.06190352447314 0.5159873332306508
1.8289838015617779 12.828209379082962 88.2611193228182 110.23337805785128 0.5268949472635832
1.849063744815828 12.79822934527463 80.4011654765228 115.69431712783762 0.5382425824433077
1.8684359007415108 12.76627067964698 73.3219649883625 121.4645744698427 0.5500582089540397
1.8871116668809431 12.732429755213527 66.95423844523553 127.56559354697957 0.5623716744996398
1.9050295146698286 12.696596132577026 61.20420266708677 134.0201947791543 0.5752135848669303
1.9221668651773338 12.658757017015335 56.028666226075956 140.8539374705141 0.5886197212404384
1.9384758070869874 12.618858679469804 51.353584134557174 148.09452398134198 0.6026283667992041
1.9539709167612547 12.576978266769272 47.11053891766121 155.77026904394904 0.6172745841711651
1.9685748650524473 12.533025648130494 43.30471001275099 163.91506466607248 0.6326067431982955
1.982285239802154 12.487005162097384 39.8465764436507 172.56296863168149 0.648667271831375
1.9950656275525072 12.438900907720287 36.714960761874366 181.75284653528493 0.6655078090766601
2.006895839564749 12.38871809630354 33.876042196284345 191.52698918648255 0.683183635492925
2.017734990300512 12.336419692888812 31.303395002363253 201.93149069185114 0.701754062956858
2.027561797084602 12.282014638310041 28.96722786271651 213.0160925385553 0.7212809540684513
2.036364010585174 12.225519147651774 26.849035243186034 224.83689463026224 0.7418365034000398
2.0434612256117566 12.169387943046033 25.025020383222483 237.83319738086797 1.5308375614898044
