M[M_sun], R[km], Lambda[1], P_c[MeV/fm^3], rho_c[fm^-3]
0.24162668629717493 15.618656898711224 2160425.4255784233 3.5677272577965504 0.1711233750220791
0.2536440100579901 15.277297973376845 1723209.108155013 3.784820179199011 0.1738881801977367
0.26603983319082936 14.981254246705621 1383047.0399895941 4.011402691259814 0.17666667570531247
0.27881447019075123 14.72354134200696 1116373.396956712 4.247730868392822 0.1794575449984569
0.29196925460026796 14.498417437784868 905828.9104466643 4.4944298692324915 0.18226735385120518
0.30550457625091876 14.30125055673146 738696.7994802749 4.751654804348831 0.18509179884498317
0.3194209517107418 14.128153146009273 605078.6223168595 5.0200887956679905 0.18793751713768136
0.3337190418075774 13.976005725222262 497690.707662417 5.299954714907016 0.19080110860318686
0.3484002201360961 13.842033191765516 411009.4409153967 5.591982576968879 0.19368889818399
0.3634624851090921 13.723998827608433 340649.4884615156 5.8963379005652525 0.1965959163517936
0.37891587133353133 13.620038408170808 283296.78073238727 6.21388549986183 0.19952985926748168
0.39474832591714315 13.528477421802382 236408.87134178492 6.544883697822904 0.2024869214186682
0.4109731515218418 13.447884353922944 197880.2717981122 6.890033098912993 0.20547078367838706
0.4275811074884902 13.377061227142374 166086.97395725347 7.250039606353078 0.20848453435372885
0.4445760091815586 13.314937397872155 139804.64412606263 7.625163577321051 0.211523742266811
0.46195735952964967 13.260600746210788 117981.06059199788 8.016351253525219 0.21459452666427156
0.4797227849197856 13.213158959864158 99814.41559221936 8.424308906267186 0.2176985554461401
0.4978794140610781 13.171983622528975 83767.55321113834 8.849479376735273 0.22083332514092882
0.5164173392603272 13.13640546653764 71940.17796876405 9.29273201934048 0.2240021878625293
0.5353354595643416 13.105844919470584 61276.64958782669 9.754953494502589 0.22720809003370357
0.5546420674441228 13.079811711935173 52300.17181321029 10.236953368805102 0.2304523825560917
0.5743244445324741 13.057853258922865 44731.42040637229 10.739205336348245 0.2337317943223235
0.5943802979836511 13.0395287607791 38328.24436420213 11.262949063269899 0.2370524503435368
0.6148174972096654 13.024503419061002 32901.77324297952 11.809124517958056 0.24041599652221388
0.6356207896832462 13.012438685342229 28291.38246579033 12.378710682595678 0.2438240657673081
0.6567916634229821 13.003027631607145 24371.76089761449 12.972400149204555 0.24727464931089677
0.6783237407559665 12.995984906199743 21028.652603100476 13.591512537648114 0.25077245262373027
0.7002106030098075 12.991068443139724 18172.840958974444 14.237248916127253 0.25432015168742406
0.7224449666606765 12.988002630783937 15730.17617357516 14.91079894236075 0.2579197310650394
0.7450329557376529 12.986638750461239 13634.279825723488 15.613195957414112 0.26157112439804403
0.7679530361769292 12.986764281423492 11836.611489209243 16.345698803896678 0.26527615378690605
0.7911967922586634 12.988142271964422 10289.276921703053 17.109926978303303 0.26903954548486086
0.8147700259304771 12.99067482228997 8956.492600858543 17.907335486124367 0.2728637319911311
0.838654234976928 12.9941294911434 7807.776812850973 18.73929150906112 0.27674981145032496
0.8628358849288029 12.998396993069349 6815.119062623439 19.60713572768628 0.2806982314287107
0.8873132960276474 13.003351679291148 5955.558545420682 20.512955683881057 0.28471536840423334
0.912069306323255 13.008846136024417 5211.343517358539 21.458545444395288 0.28880423560353435
0.9370899919707544 13.014734199548595 4565.4159050187 22.445391375313122 0.2929647730718219
0.962367219438576 13.020939697260776 4004.4388374406108 23.475514300956764 0.29720074414679576
0.9878920257015118 13.027328751376748 3516.7171927664162 24.551338629403393 0.3015182664867383
1.0136340236257544 13.033791535349486 3091.926941033738 25.674809031341784 0.30591898970394327
1.039598853792757 13.040239549136105 2721.564610845995 26.84788185514518 0.3104041380222343
1.0657488462236875 13.046566677214477 2398.4309844161507 28.073656067555046 0.3149824636303122
1.0920798994411949 13.052699168596329 2115.875628218731 29.35418844800009 0.3196544249127837
1.1185779796575666 13.058534525965577 1868.7015103274791 30.692230882309943 0.3244246812222207
1.1452089391258398 13.063993070163402 1652.1789716018059 32.09118735089203 0.329301318597249
1.1719713224527433 13.069002126411611 1462.1305424033376 33.55299287956756 0.33428199585122403
1.1988272763457315 13.073466027902546 1295.4873743693047 35.08219247784485 0.33938029819456395
1.2257724715612763 13.077326826099762 1149.1299499286945 36.6808125636405 0.3445930069888349
1.2527676794645295 13.080490891951065 1020.2365573878807 38.353902871238446 0.34993454386691275
1.2798097927309577 13.082938472212906 906.739899913684 40.10369784197698 0.3554014597323366
1.3068534205103615 13.084517759431183 806.7749050640583 41.93567916518281 0.361008375848235
1.3338895646217968 13.085234330526731 718.6266553566104 43.85331559116536 0.3667571388850107
1.360898293318662 13.085036165077135 640.6475729695218 45.86131375347836 0.37265560496963207
1.3878287375352347 13.08377542434287 571.8345408839267 47.96499724637905 0.3787136795625733
1.4146855043451243 13.081484953936839 510.85758578176876 50.169110232204 0.3849369521159415
1.441408504682216 13.078034290824277 456.9061166708104 52.47889533255998 0.3913325140637664
1.4680032330405455 13.073438003571821 409.0365151503941 54.90075640925476 0.39791199488476564
1.494411422731357 13.067573873642777 366.5485999108677 57.440882367200494 0.4046844539872302
1.5206232110555327 13.0604276132504 328.855564556396 60.1059001341932 0.41165966073421617
1.546606618775182 13.051942172155826 295.305058242449 62.90291409153783 0.4188481528971578
1.5723230204829637 13.042064046764429 265.4722278999532 65.83954927977581 0.426261299881496
1.5977465901538956 13.030736875302914 238.93179633591026 68.92399876273606 0.43391137128288204
1.6228334373612743 13.0179177400525 215.24726930157587 72.16507558076901 0.4418116114009152
1.6475857568099654 13.003579736318404 194.10466854244177 75.57226977804095 0.4499763204131576
1.6719345307022133 12.987646550872277 175.23952032650897 79.15552400105554 0.45841974428694576
1.6958724084476993 12.970101349348624 158.37253843024777 82.92501589736389 0.46715509921320786
1.7193521590941268 12.950891765403634 143.2846442507898 86.89348717699937 0.47620395832087203
1.7423378996420393 12.92995334449535 129.7838897723447 91.07252842705253 0.48558071869353786
1.7648176258064898 12.907307935145804 117.68479971363398 95.47619847140848 0.49530718307494
1.7867444573076323 12.882873209421385 106.82513072059484 100.11819454918192 0.505400992961432
1.8080836823457809 12.856622724321879 97.09004665355705 105.0150246228135 0.5158877857847146
1.8287941518448496 12.828490302287369 88.33685780210072 110.18322727785763 0.5267900953231133
1.8488745766773511 12.798526887698651 80.46569799199293 115.64041868167668 0.538131246852463
1.8682617236718335 12.766621005728853 73.38468508559272 121.40683027857732 0.5499406629415087
1.8869296824455701 12.732775171469411 67.00999949401364 127.50386891745298 0.5622480903786643
1.9048541508449124 12.696963607193593 61.258865863035346 133.95398339243567 0.5750828630310946
1.9219976334679851 12.65914929584345 56.077828842833064 140.78282097738247 0.5884811592675825
1.938312247787772 12.619276964494913 51.39537398033763 148.01807641205943 0.6024813160961854
1.9538099703765996 12.577425285470666 47.16460765840004 155.6882744012061 0.6171191961153877
1.9684284160588925 12.53350047477821 43.34159105266447 163.8270259633662 0.6324422861699875
1.9821436451732026 12.48750480102709 39.88162249582183 172.46807506098585 0.6484920612285338
1.9949352110515615 12.439433688629746 36.74798876005459 181.65075403760636 0.6653218461765459
2.00677194011685 12.389278031666231 33.90502819133901 191.41703464234698 0.6829859688902261
2.017620549535361 12.337009308503136 31.329976174548523 201.8129425939327 0.7015436517768584
2.0274599759993537 12.282627045275593 28.99289670159961 212.88844210131916 0.7210576372655897
2.036270834866084 12.226170374596329 26.871658109746168 224.69896004689383 0.7415980801889309
2.0440167166925556 12.167578686707468 24.94308792338727 237.3056981015443 0.7632422609899494
2.050678262955769 12.106877979490946 23.18873219219051 250.77548476716527 0.7860726779541116
2.056254124249954 12.044137072369914 21.595377494297505 265.18140210117826 0.8101774609822471
2.060702237176266 11.979292693199527 20.143263466670007 280.6052050240715 0.8356563808941334
2.0640093245218916 11.912401251180254 18.82215550308323 297.1365677187064 0.8626162599254326
2.0661721710195686 11.843508573421234 17.619421489144816 314.87587754620824 0.8911776554099786
2.0671688379079884 11.772622585423932 16.52452740533094 333.93253142289046 0.9214664421782882
