M[M_sun], R[km], Lambda[1], P_c[MeV/fm^3], rho_c[fm^-3]
0.24162668629717493 15.618656898711224 2160425.4255784233 3.5677272577965504 0.1711233750220791
0.2536439832063055 15.277275411109844 1723175.5789221337 3.784819102335032 0.17388816677514668
0.26603987805499335 14.98126207123696 1382912.7172685547 4.011400427474285 0.17666664834880033
0.278814782450085 14.723521949220517 1116472.8246609147 4.247727341095743 0.1794575040871263
0.2919688339788247 14.498425949595413 905865.3336110682 4.494424985862196 0.18226729947374357
0.30550416024394356 14.301241540397672 738646.0081647638 4.751648399089252 0.18509172965595508
0.31942033183454827 14.128140029978427 605099.6456094884 5.020080821333694 0.18793743440088523
0.3337197768469707 13.97594575849984 497687.2703973804 5.299944961552339 0.190801010403089
0.3483996408790384 13.842038099668143 411012.3942683947 5.591971020239395 0.19368878636945308
0.3634607950946741 13.72402652260144 340654.4040036109 5.89632428081943 0.19659578843225858
0.37891546288133193 13.620006672673709 283305.3582081934 6.213869652278155 0.1995297147566003
0.39474734721639726 13.528485655037077 236398.78580888477 6.544865638852514 0.20248676306589436
0.4109721771346847 13.447904600964234 197873.6577568571 6.890012479924492 0.20547060807842857
0.42757955767832606 13.377098422453866 166082.12742063456 7.250016233857024 0.20848434099905885
0.44457481310342084 13.314956570761456 139810.04009016353 7.625137515914026 0.21152353480125366
0.4619559559334701 13.260578369076972 117981.18281165588 8.016322048629265 0.21459430074079022
0.479721646188643 13.21314152268268 99816.39797512323 8.424276330143135 0.21769831051922783
0.49787693348874357 13.171997547173696 84647.09363597719 8.849443549494238 0.22083306573639594
0.5164165371651569 13.136393126150153 71940.54116083503 9.292692361180112 0.2240019086666079
0.5353336803299928 13.105846885853525 61278.29801143987 9.754909736525903 0.22720779044343273
0.5546395637726331 13.079831783774255 52303.09331907161 10.236905225775686 0.23045206194229648
0.5743223614062154 13.057844487155442 44732.486502020685 10.739153017446382 0.23373145841876716
0.5943782070508641 13.03954942943133 38329.67594155238 11.262891781686898 0.23705209244716963
0.6148151904738391 13.02452227957211 32902.431483595086 11.809061935296391 0.2404156159152141
0.6356207420698975 13.012433717416412 28294.178381007056 12.378642439345802 0.24382366169396175
0.656789062991907 13.003028659863782 24372.217301851306 12.972326558750582 0.24727422869803906
0.6783211812456235 12.995989289066001 21029.217741426102 13.591432554978388 0.2507720073016539
0.7002079571006184 12.991069289716034 18173.602438052676 14.237162112380824 0.2543196807728632
0.7224419672964192 12.987998453069713 15730.33297980622 14.91070486112131 0.25791923362206226
0.7450288632527088 12.986645047004735 13634.788308859557 15.613095030895737 0.26157060852862934
0.7679495835284295 12.986752493301596 11837.113416428841 16.345589665329705 0.2652756097585226
0.7911932755440054 12.988131994005359 10289.262568040787 17.10980907993491 0.26903897218501915
0.8147661677308502 12.990672076381662 8956.791640079007 17.907208243886085 0.2728631282358087
0.8386493832919557 12.994133932645862 7807.921243585293 18.739155487325327 0.2767491865008285
0.8628303157289599 12.998401152615218 6815.185311676831 19.606989157823435 0.28069757386217287
0.8873092989218505 13.003359371521265 5955.615720638729 20.512797860442916 0.28471467679745655
0.9120647899800072 13.008844366411367 5211.406060824687 21.45837561362577 0.2888035084373601
0.9370847576864292 13.014734498270409 4565.479925802849 22.44521024466857 0.29296402075824457
0.9623620955369816 13.020936614150452 4004.6051333955043 23.47531959735772 0.297199953397628
0.9878873250894985 13.027327889957776 3516.811358228215 24.55112943638549 0.30151743546218673
1.0136297689892642 13.033787449180855 3092.043940734511 25.674586158666965 0.3059181295953683
1.039593802930465 13.040236307864749 2721.6969395916763 26.84764257813011 0.3104032340767579
1.0657434454485932 13.046564997297414 2398.5117047881736 28.073399266138807 0.3149815136102077
1.0920742172402529 13.052700497551722 2115.8939921844685 29.35391503233686 0.3196534407842741
1.1185715426027192 13.058533224215303 1868.6951162798239 30.691937588074648 0.32442364660780065
1.1452023955367951 13.063988858640023 1652.2039969222283 32.09087513534052 0.329300245855366
1.1719655792439256 13.069000701267564 1462.1696655409055 33.552658080431506 0.3342808675436163
1.1988209907445884 13.073460004627494 1295.5180966436749 35.08183351493435 0.339379111201534
1.2257671265769687 13.077331206961974 1149.1717834082738 36.68043047864196 0.3445917744417751
1.2527621306051064 13.080493656496763 1020.2427155382102 38.35349611354894 0.34993326302594296
1.2798031715468854 13.082930994617127 906.775809785374 40.103261788354615 0.3554001107281051
1.3068459832949242 13.084520747458855 806.8070999684655 41.93521485865551 0.3610069721792608
1.3338838342761004 13.085236370471645 718.6362185209255 43.85281782607614 0.3667556592697404
1.3608905995626182 13.08503504870067 640.6802198806776 45.860783572813325 0.3726540632762777
1.387821630379132 13.083775674785972 571.852149296247 47.964432385578 0.37871207178639243
1.4146786360212131 13.081486061303089 510.86210684381024 50.16850449737932 0.3849352547802094
1.4414012979854174 13.078034343818896 456.9240197288779 52.47824968530063 0.3913307413582953
1.4679956439509327 13.073438127935532 409.05348252963245 54.90006799070372 0.3979101417858356
1.4944035292970466 13.067575231925003 366.5583443107629 57.44014808692925 0.4046825150827612
1.520616200581422 13.060431271504687 328.8658899044366 60.10511664946875 0.4116576301918764
1.546599124858393 13.051944973488954 295.31309321071694 62.902077784520586 0.41884602442930957
1.5723155736579137 13.042067183382885 265.4894722259401 65.83865623241837 0.42625906670664265
1.5977390231440196 13.030741628039602 238.94554938330904 68.92304472912424 0.4339090260832351
1.6228257606447878 13.017922895090956 215.25748659803497 72.16405595661557 0.44180914627566
1.647577421284996 13.003586508487405 194.11145305134116 75.57117956700509 0.4499737268269394
1.6719272155115634 12.987653581987434 175.25011789056893 79.15436347020076 0.4584170367817389
1.6958639386365335 12.970109866412848 158.37721178536285 82.92377372392758 0.467152244702269
1.7193446393484 12.950899441260201 143.28857548224758 86.89215696662816 0.47620094604885715
1.7423306648064791 12.929960830336743 129.79037325269815 91.07110962605543 0.48557756238356115
1.7648103388686613 12.907315970736226 117.68646073467774 95.47467741202199 0.49530384553101
1.7867373496257684 12.882883303117548 106.8300641913466 100.11656990697831 0.5053974870540398
1.8080763037372005 12.856632055832623 97.09141390220434 105.01328797323681 0.5158840980056983
1.8287870259357168 12.828500686054658 88.33783568272187 110.18136943175828 0.526786211061121
1.8488669032769751 12.798538311463764 80.46981993374033 115.63842201727424 0.5381271224328036
1.868253694869781 12.766634402046787 73.38783782565713 121.40469116308383 0.5499363084862623
1.886924512180698 12.732788005348516 67.01492259963685 127.50157534110814 0.562243487189241
1.9048483015393052 12.696977203196225 61.26176202000015 133.95153064456107 0.5750780205452187
1.9219913885894075 12.659164498847211 56.07983139425696 140.78018654316642 0.5884760263879049
1.938306219170422 12.619292853842227 51.39688960995288 148.01524451537512 0.6024758688020174
1.953804574262278 12.577441336580234 47.16672047631378 155.68523704199515 0.6171134400156391
1.9684210445262937 12.533519601765612 43.34193344101929 163.82376473549678 0.6324361941692247
1.9821383521461513 12.487523352700867 39.88290797295009 172.46455993689852 0.6484855709362423
1.99492690942284 12.43945523363637 36.74484276592522 181.64697227478308 0.6653149576431262
2.006769077957422 12.389298096091341 33.90748914267153 191.41296168278504 0.6829786468819738
2.0176164452615657 12.33703110466053 31.330431840089332 201.8085513473069 0.7015358577472584
2.0274544890503265 12.28265133100708 28.994587125239374 212.88371372484627 0.7210493652538401
2.0362673102053797 12.22619144664467 26.872425044649734 224.6938507757863 0.741589248692187
2.044014891964279 12.167603524342447 24.944809837846822 237.3001830449249 0.7632328573117916
2.0506757396696593 12.10690418057611 23.189687469245218 250.76952408062664 0.786062648389036
2.0562510434768653 12.044164900221093 21.595285396507073 265.1749393103327 0.8101667065227999
2.0606999363276026 11.979321805529773 20.143004748907156 280.5982155639314 0.835644916552721
2.0640077130729004 11.91243127942969 18.822703906462262 297.128984674406 0.8626039740349276
2.0661722316991704 11.84353923013086 17.62025029186107 314.8676400265012 0.8911644687611231
2.067167815831055 11.772655173765177 16.524829884964703 333.9235850977598 0.9214523121723718
