M[M_sun], R[km], Lambda[1], P_c[MeV/fm^3], rho_c[fm^-3]
0.24162668629717493 15.618656898711224 2160425.4255784233 3.5677272577965504 0.1711233750220791
0.25364444672284886 15.277250292113242 1723063.4305194037 3.784829210448498 0.17388829276790474
0.266040309332448 14.981275346676812 1382995.5405645478 4.011421676805947 0.17666690513443298
0.27881696962944374 14.723493459727163 1116383.2687095492 4.247760450605104 0.1794578881075399
0.29197122022964295 14.4983774390578 905819.8230486591 4.494470824431561 0.182267809896852
0.3055065504362004 14.301222565999854 738580.1789380156 4.751708523223219 0.18509237911135057
0.3194249758560657 14.128102569386579 605064.4954403515 5.020155673987337 0.18793821102605726
0.3337225826106438 13.975955563220475 497667.3075875009 5.300036513473945 0.19080193217902747
0.3484050793596434 13.841993235740702 410985.4989750294 5.592079500078454 0.19368983594173775
0.36346727157656766 13.723969365302588 340662.75555746804 5.896452125822021 0.19659698917957782
0.37892265849072787 13.619966794448347 283284.5364483942 6.214018409641 0.19953107124463393
0.39475538398698534 13.528427639560933 236392.25013691705 6.545035154194076 0.20248824948643585
0.41098109109673897 13.447836437555853 197850.42931355326 6.890206025848597 0.20547225639673664
0.42759069711304354 13.37701113636886 166065.8588917661 7.250235626679735 0.20848615597965559
0.44458581974425426 13.314895636660943 139786.55587717824 7.625382149317966 0.2115254822404478
0.4619681449917081 13.260565892580248 117973.31593945633 8.01659618975945 0.2145964214440658
0.4797330790759243 13.213147154507194 99804.66259727944 8.424582116833632 0.2177006096076584
0.4978911023213782 13.17196501263023 84631.39857926285 8.84977985431301 0.22083550072697583
0.5164304799402709 13.13638419202533 71931.12121105858 9.29306462678689 0.22400452943968768
0.5353499270705222 13.105830603538296 61270.101245629405 9.755320487124028 0.22721060265945045
0.5546580494642401 13.079788213973403 52302.26291890413 10.237357138956101 0.23045507150778613
0.574341386149505 13.057823349417738 44725.75065774423 10.739644129672989 0.23373461151138952
0.5943985546784815 13.039509880682518 38320.96727494989 11.263429478859878 0.23705545198883674
0.6148376041836185 13.024490899930349 32898.03463335844 11.809649394059416 0.2404191886446466
0.6356419662360787 13.012424097427324 28287.913912254844 12.379283034533113 0.24382745470559988
0.6568135973146995 13.00301461430942 24367.998942926137 12.973017348635528 0.24727817696974969
0.678346111779467 12.995977571035642 21024.728103122874 13.59218334932824 0.250776187523444
0.700235639358131 12.991055162819055 18170.465547422587 14.237976937072535 0.2543241012365833
0.7224707015172466 12.98800252370157 15727.761905079027 14.911588000712047 0.2579239031139805
0.7450596575331897 12.986638440512563 13632.202244307031 15.614042428152969 0.26157545099497487
0.7679806984861751 12.986767314163508 11834.427279469213 16.34661415053559 0.26528071656032415
0.7912254485407578 12.988149249601303 10287.031154042099 17.110915795082175 0.2690443537660151
0.8148012986784782 12.990664472400056 8955.07719189888 17.908402671888197 0.27286879571127304
0.8386859312629292 12.994126551488263 7806.463571769718 18.74043233030575 0.27675505293366726
0.8628675934007026 12.998408900155175 6813.216367066195 19.60836501857623 0.2807037464816607
0.8873497130240244 13.003355758251018 5954.359958563252 20.51427936135977 0.28472116896418453
0.912106024360295 13.008857459537785 5210.319692649883 21.459969830601185 0.2888103344127843
0.937127490009276 13.014740585494893 4564.560312964788 22.446910536596135 0.2929710828029123
0.962411996861457 13.020952032620633 4003.960654327761 23.47714730266695 0.2972073762519529
0.98793360748548 13.027343406273607 3515.9746042766683 24.553093158441047 0.30152523639769085
1.013677018711533 13.033797654182862 3091.5900674856466 25.676678295930095 0.3059262035559896
1.0396421330827577 13.040252716408126 2720.939248876949 26.84988870860084 0.3104117195532166
1.0657938784531162 13.046584764308383 2397.7557074950614 28.07580990451139 0.3149904316097738
1.0921269319704066 13.052716883080807 2115.261170847665 29.356481634589656 0.3196626789764824
1.118625612172516 13.058544208091861 1868.2931040484527 30.694690798295444 0.3244333587352581
1.1452574456489633 13.064004240030412 1651.8076820940407 32.09380596729922 0.32931031590530074
1.1720221676986324 13.069010454523838 1461.7999381915822 33.55580091408569 0.3342914592170706
1.198878966065848 13.073468668186985 1295.1865394426654 35.08520318463034 0.33939025378569915
1.2258252513928234 13.077334306342053 1148.8528018820282 36.68401720548079 0.34460334466734377
1.2528208655101876 13.080498193099766 1019.9480653000386 38.357314454078214 0.3499452866142185
1.2798656597124776 13.082941529619179 906.5195867084308 40.10735514417079 0.35541277420349854
1.3069092719696913 13.084519175134783 806.5852803865331 41.939573438191026 0.3610201488255186
1.3339488958316026 13.085238735880015 718.4710849605817 43.857490498691085 0.3667695488692803
1.3609574153339687 13.085028607365341 640.5117901014936 45.865760547283415 0.37266853564196584
1.3878872935532747 13.083771809168033 571.6516132709475 47.9697349210696 0.37872716451409727
1.414745286413036 13.08148255317609 510.7130475623832 50.17419074091764 0.38495118826124075
1.4414691412676948 13.078026573205724 456.78307765977496 52.48431060972073 0.3913473823859208
1.4680642563571145 13.073427121047434 408.92461142786544 54.90653043447623 0.39792753752222604
1.4944737609867293 13.067557039560043 366.45260230720163 57.44704106254388 0.4047007163360795
1.5206861402586063 13.060411212630145 328.77132744994134 60.11247153808647 0.4116766917157028
1.5466698904976988 13.051920781658135 295.22159648578486 62.90992855005036 0.4188660052517464
1.5723860822895934 13.042039539258166 265.4091790136042 65.84703965717918 0.42628003049227503
1.5978107340037977 13.03070902728126 238.8691505654445 68.93200067352113 0.4339310415315141
1.62289846212088 13.017880112611259 215.1863397292778 72.1736276455517 0.4418322875596829
1.6476497543654751 13.003540256579061 194.06008001490895 75.5814139060944 0.4499980740770963
1.6719981188762063 12.987605599795547 175.19517322492638 79.16525795190275 0.4584424534829087
1.6959357988540562 12.970051386565917 158.3348224476591 82.9354346468579 0.46717904146920075
1.7194164679357702 12.950835858846196 143.24987939829387 86.90464436140485 0.47622922385411126
1.7423951635558155 12.929886464808037 129.76088184056047 91.08442869033975 0.48560719239902245
1.7648795563613455 12.90724449690397 117.653332995427 95.48895646050157 0.4953351769517308
1.7868068810957487 12.882802686622526 106.80219055911422 100.13182137305436 0.5054303990561657
1.8081448174446475 12.85654264476925 97.06351342433781 105.02959094765708 0.5159187174060522
1.828854088919933 12.828404595261905 88.31248846108352 110.19881018363276 0.5268226750339151
1.8489328810311982 12.798434224818116 80.44663729796245 115.65716598408031 0.5381658410001792
1.8683095339058022 12.766492691485292 73.37060782962443 121.42477244964353 0.5499771866267273
1.8869867848800832 12.732669070810926 66.99345235032469 127.52306849695658 0.5622865639788864
1.9049097253794314 12.696848301230517 61.243216810444984 133.97455629557555 0.5751234803297225
1.922049978262257 12.659028619395897 56.06211190806309 140.80491786487298 0.5885242124074356
1.9383630693706728 12.619136149255086 51.381003325509624 148.04182961932767 0.6025270065721616
1.9538583130680316 12.577289224702788 47.154226726706966 155.71375103421715 0.6171674768851906
1.9684740584439215 12.533353222996512 43.33182925792704 163.85438041935234 0.632493384521101
1.9821868550719526 12.487347700169789 39.87031129108328 172.497559224976 0.6485465005136097
1.994975934712931 12.439268000798956 36.73649695889594 181.68247479804475 0.6653796259815177
2.006810686048776 12.38910510519586 33.896018253582184 191.45119800321646 0.6830473847737891
2.017655940869302 12.336826554473133 31.321363241363443 201.84977580252064 0.7016090270888056
2.027490605095341 12.28243665672426 28.985201557474404 212.92810321857326 0.7211270220173764
2.0362994352199135 12.225967230748905 26.864147656091493 224.7418161987708 0.7416721580677105
2.0440426084371275 12.16736685432977 24.937409716385353 237.351958085301 0.7633211385117691
2.0507001358710455 12.106656234075125 23.18284214540517 250.8254828226868 0.7861568056377707
2.056271732862401 12.043904168464039 21.58964401298574 265.2356119769491 0.8102676693650571
2.0607154147583255 11.979051636785501 20.138121651881928 280.66383278270456 0.835752544063783
2.064019519237225 11.912152092041845 18.817800497184578 297.20017469512817 0.8627193146244048
2.066178862851973 11.843244871148359 17.61506732184088 314.9449745449247 0.89128826611459
2.0671699287872514 11.77234741218944 16.520753932686713 334.0075742057296 0.9215849662594074
