M[M_sun], R[km], Lambda[1], P_c[MeV/fm^3], rho_c[fm^-3]
0.24162668629717493 15.618656898711224 2160425.4255784233 3.5677272577965504 0.1711233750220791
0.2536438940112638 15.27727941396683 1723143.3032189752 3.784817038836633 0.1738881410546346
0.26603967184401467 14.981273383776749 1383039.888122025 4.011396089586506 0.17666659592798656
0.27881462583687855 14.723531809512197 1116474.0634006672 4.247720582058715 0.1794574256924824
0.29196817151981064 14.498453311442734 905899.0829417667 4.494415628311204 0.1822671952752415
0.30550455021652123 14.301220104782281 738686.92365276 4.751636125289449 0.1850915970754923
0.3194204847999088 14.128146493160337 605116.5619294628 5.020065540870865 0.18793727586018566
0.33371901579677504 13.975919008073605 497687.63104529004 5.2999262721312235 0.19080082223162972
0.3483985309372037 13.84204750400772 411018.0626309946 5.591948875194866 0.19368857211005538
0.36345976317901607 13.724036194154948 340660.6140512025 5.896298182629875 0.1965955433125393
0.3789142120726844 13.620010337423622 279402.7678197962 6.213839285116512 0.19952943784465058
0.39474583577072325 13.528470641441185 236405.4793673031 6.544831034245406 0.20248645963023854
0.4109698125507816 13.447914462320242 197873.54499453268 6.889972969830131 0.20547027159388523
0.42757903862791274 13.377058988543876 166085.1193401935 7.249971447516134 0.20848397049313844
0.44457257219922297 13.314944600511128 139803.2168129213 7.625087577109292 0.21152313725625743
0.4619537266290098 13.260579316741948 117987.63693304482 8.016266086307127 0.2145938678269849
0.4797176552179486 13.213166808908674 99817.4958084392 8.424213907916865 0.21769784119135094
0.4978748812689785 13.171993216236947 84647.9341250773 8.849374897522457 0.22083256866678752
0.5164129975881234 13.136423494761033 71945.24108250906 9.29261636845874 0.22400137367311185
0.53532957892996 13.105873544072297 61280.91570917765 9.754825887803747 0.22720721637069713
0.5546360255428195 13.079831348924419 52302.872562250785 10.236812974492679 0.23045144758473898
0.5743178700212834 13.057849523121849 44732.92986610565 10.739052764433165 0.23373081476336782
0.5943741305054732 13.03955272282421 38330.35102615204 11.262782019282481 0.23705140664968052
0.6148102937241586 13.024511851430974 32904.98053084484 11.808942015076335 0.2404148866001937
0.6356144849109681 13.01245018329352 28294.173159051017 12.378511672432051 0.24382288741336214
0.6567832555750972 13.003024848359296 24372.47916122081 12.97218554564557 0.24727342272495595
0.6783155684565345 12.99598311739349 21030.037068125202 13.591279293264687 0.2507711539814933
0.7002022317119754 12.991069145670707 18174.053780526418 14.236995780293391 0.254318778413171
0.722436520294722 12.988005021717386 15731.041712017806 14.910524584095201 0.2579182804294693
0.7450226574449644 12.986656915356336 13634.997293756815 15.612901637129792 0.26156962002798095
0.7679427781320576 12.986747423120322 11837.455970763194 16.34538053587137 0.26527456730062426
0.7911865010941228 12.988135493595985 10289.885855611017 17.10958316520594 0.2690378736381933
0.8147590290484242 12.99066994743593 8956.941492995778 17.90696442472235 0.2728619713313107
0.8386449343225069 12.994109315387384 7758.684878291404 18.73889484516027 0.27674798898493996
0.8628207996615153 12.998404679652547 6815.024550722412 19.606708303685004 0.2806963138467792
0.8872972088184449 13.003347003181585 5955.963379696584 20.512495442587323 0.2847133515555227
0.9120565099674117 13.008841914169764 5211.724260655943 21.458050187745076 0.28880211505797804
0.9370747881418061 13.014739250464759 4565.693178724695 22.44486316636434 0.29296257919256524
0.9623531832149853 13.020928882906528 4004.9771964059673 23.47494651106489 0.297198438183338
0.9878785723245683 13.027323150811393 3516.9835769623824 24.550728586026043 0.30151584307400126
1.0136201295041627 13.033784930559403 3092.1975787728993 25.674159095872557 0.305916481477797
1.0395831848628831 13.040242024186025 2721.7629578788196 26.847184082005295 0.3104015019609595
1.0657332697193553 13.04656754501616 2398.602776208374 28.07290719048951 0.31497969320841
1.092064270711834 13.05270129753112 2115.8979928782246 29.35339112115692 0.3196515550257094
1.1185617766177953 13.05853394472252 1868.8421287810802 30.69137558645004 0.32442166411065304
1.1451916500503398 13.063986500346944 1652.3142052849194 32.09027687751554 0.3292981903004054
1.1719538445176965 13.068999461125001 1462.246961612212 33.55201654898651 0.33427870551650196
1.198808762410263 13.073464908677769 1295.585495560333 35.081145682012675 0.33937683672453395
1.225754470149251 13.07732551890147 1149.2204991862354 36.67969834026503 0.3445894126767037
1.2527490882075663 13.080491780503836 1020.3108090277567 38.352713474191944 0.3499307898080803
1.27978957633528 13.082937369411018 906.7498535788576 40.10242623798031 0.3553975258143864
1.3068331107599638 13.084525714297943 806.8429138542106 41.934325171492766 0.3610042825201808
1.3338704412289668 13.085238763006485 718.6934785660019 43.85186402740248 0.3667528240868139
1.3608781609549259 13.085033959061711 640.7144360281355 45.85976766113144 0.37265110914310795
1.3878081857353868 13.083776054422437 571.8887454783181 47.96335002169715 0.37870899102939287
1.4146642748043319 13.081487974333925 510.88102478740666 50.16734381302714 0.3849320024147445
1.441386696984988 13.078037427230939 456.93988159587565 52.477012523006906 0.3913273445741614
1.4679818303014855 13.073442897628496 409.08455292646227 54.89874887254115 0.3979065909569802
1.4943899863940915 13.067578216426792 366.5838336978285 57.4387410912559 0.4046787998389971
1.520600808755514 13.06043511929582 328.87510991677794 60.10361537120119 0.4116537393577721
1.5465841718119118 13.051951359073406 295.3307779604602 62.900475291443286 0.418841945957024
1.5723002985242194 13.042072708405938 265.4997039436691 65.83694501708808 0.4262547876020549
1.5977245182169106 13.03074925444191 238.95983923167464 68.92121665587352 0.43390453232464105
1.6228112516393511 13.017931485825075 215.26847705773352 72.16210220309988 0.4418044227242242
1.6475636132274403 13.003595208062753 194.12645272628347 75.56909055966817 0.44996875712799084
1.6719130659248111 12.987661841453122 175.26015559934294 79.15213972074288 0.45841184879969504
1.6958499220177223 12.970118575184276 158.38615121444118 82.92139353669292 0.467146775038936
1.7193300953046562 12.950912018173822 143.3009241532967 86.88960808934489 0.476195174095882
1.742315932124915 12.929974692193735 129.7939076968164 91.0683909977614 0.48557151443629804
1.7647960691867055 12.90733195689099 117.6972534525591 95.47176284386109 0.4952974503176735
1.786722989889445 12.882900809601825 106.83410749696108 100.11345686117387 0.5053907692362495
1.8080620526584679 12.856649473032954 97.10035195611164 105.0099603074611 0.5158770317004485
1.8287741724481945 12.828518342308854 88.3429783665198 110.17780953866027 0.5267787682716123
1.848854242686559 12.7985598789023 80.4779492708179 115.63459613183116 0.5381192194736897
1.8682413748948445 12.76665664575982 73.38965891059468 121.40059232447916 0.54992796475292
1.8869116556205947 12.732812262300502 67.01903505275294 127.49718053748971 0.5622346668534456
1.904838082671514 12.69700142160937 61.26626412798013 133.94683084974108 0.5750687416909707
1.9219791562896489 12.659192958375112 56.082799704853414 140.7751386167533 0.5884661911076228
1.9382941911538893 12.619310784712962 51.39938726596023 148.00981822890301 0.6024654310700138
1.95379286967868 12.577473768500461 47.168453265981135 155.6794170665528 0.617102410579588
1.9684110436007063 12.533553188517853 43.34556717416357 163.81751580332477 0.6324245211119952
1.9821280393858174 12.487560238839508 39.88554112163315 172.4578245127877 0.6484731347120577
1.9949191033019615 12.439491801379123 36.74957777094136 181.6397259429284 0.6653017583491768
2.0067585059462996 12.389338310914683 33.90844621723693 191.40515738809225 0.6829646170078062
2.0176077554553555 12.337073526845373 31.33156328615379 201.80013718262202 0.7015209234349316
2.0274464309078737 12.28269531674403 28.995139779731243 212.87465358581628 0.721033515082658
2.036259851035505 12.226238022343423 26.873801407039696 224.6840608060432 0.7415723264964199
2.0440078357441633 12.167651813947511 24.94587035962465 237.28961555163224 0.7632148387649812
2.0506707616353133 12.106955112573646 23.191275360739883 250.7581027191756 0.7860434305880017
2.056245363553265 12.044218902608742 21.596337897899026 265.1625558723491 0.8101460997625326
2.060696105405626 11.979377976837295 20.144727998982216 280.5848229809433 0.8356229495995241
2.0640055162454574 11.912488900197006 18.823892707678947 297.11445473373567 0.8625804329275507
2.0661706755880593 11.84359884963547 17.621076671329327 314.85185605710694 0.8911392017305908
2.067168252059166 11.772717032635683 16.525841285088347 333.90644300014594 0.9214252375984917
