M[M_sun], R[km], Lambda[1], P_c[MeV/fm^3], rho_c[fm^-3]
0.24162668629717493 15.618656898711224 2160425.4255784233 3.5677272577965504 0.1711233750220791
0.2536358980988295 15.27747182403299 1723388.9272110444 3.7846709159918666 0.1738863197038666
0.2660222171151354 14.98167374311222 1383378.258083184 4.011088918572268 0.17666288394755944
0.27878842555162175 14.724015027968994 1116888.3140761005 4.2472419794152785 0.17945187462305734
0.29193361729855083 14.4989837063605 906398.0556267647 4.493753044051517 0.1822598172457321
0.3054590587709683 14.301824532333761 739140.8186219922 4.75076707194812 0.18508220964079272
0.31936435609367875 14.128786671191683 605511.2165836518 5.0189836261746095 0.1879260505776313
0.3336514566922982 13.976611127978316 498128.0930372614 5.298603024465819 0.19078749932330405
0.34832007903738715 13.842661528371012 411407.2556998335 5.590381000397202 0.19367340249008047
0.36337001652055684 13.724665824148492 341032.79143802077 5.894450470820266 0.19657818921220596
0.3788112073749388 13.620657784419086 283656.33292536624 6.21168939051945 0.19950983339456696
0.39462939289216903 13.529095906623976 236731.09086196823 6.5423811986109985 0.20246497788129061
0.41084057596822443 13.448483977176805 198144.6720028295 6.887175918610128 0.20544645073195866
0.42743331999630346 13.377640862214355 166338.59233772132 7.2468009506699165 0.20845774178525842
0.4444131636217701 13.315489493278713 140035.58067274006 7.621552406405172 0.21149499502434532
0.4617785238647547 13.261096852309878 118176.3590318936 8.012304605650106 0.2145632225713833
0.47952790633033904 13.213665025503982 100002.47279956074 8.419795246947517 0.2176646190380362
0.4976691885219081 13.172420198173427 84801.70392422237 8.844515355783573 0.22079738350827555
0.516186886223466 13.136807500218497 72088.24295839207 9.28723733740757 0.2239635049591681
0.5350892576270712 13.106209946349509 61406.295995965374 9.74889092109255 0.22716658244703133
0.5543788763929115 13.080152633585472 52412.14488370653 10.230283412246445 0.23040796324736956
0.5740397267847568 13.058122622951487 44828.68509564032 10.731956981198337 0.23368525763700168
0.5940831578985194 13.039783253638888 38416.357745179506 11.255013353789248 0.2370028678870947
0.6144979122552116 13.024726555440878 32978.136673161505 11.800454605834553 0.24036326899107402
0.6352782247038538 13.012611192356921 28361.758915905008 12.369256798134835 0.24376808861590918
0.6564257759018428 13.003165496471839 24434.187580327296 12.962205704017148 0.24721638204263455
0.677942341783095 12.996098492488779 21083.938399794504 13.580432838202935 0.25071076382564866
0.6998088259040344 12.991126869323473 18219.460948084383 14.225224596435545 0.2542549191662494
0.7220177889265111 12.988059463319034 15772.242782843052 14.897766823789318 0.257850825341658
0.744586394538257 12.98666032574224 13672.189227813507 15.599215899610586 0.2614996676158913
0.7674854681693526 12.986742626994616 11870.653316693883 16.330581586150718 0.2652007982479716
0.7907071730055412 12.988089533764482 10319.162749252511 17.093596784749465 0.26896013728347606
0.8142606787234576 12.990586186565407 8984.036521677308 17.88971147665836 0.27278010732639196
0.8381186698561621 12.994043691339769 7832.075452862882 18.720451831787596 0.27666325288116395
0.8622764635793791 12.998296443206241 6835.938069840427 19.586835558572304 0.280607157372543
0.8867273438504006 13.003219108920732 5974.543131474407 20.491097390607415 0.2846195819739263
0.9114644084724286 13.008707212682014 5228.188709786324 21.435024712040086 0.28870352663888743
0.936462230549715 13.014587472426168 4580.79434896848 22.420306147346977 0.29286058331621345
0.9617166027029564 13.020769754919334 4018.001955155398 23.44854996636983 0.29709123397215376
0.9872173630246467 13.027160040033866 3528.7118805108057 24.52236836610198 0.3014031813834715
1.0129368215723975 13.033625424363551 3102.8596617132375 25.64394493217647 0.30579987920117435
1.0388763812290913 13.040066342813086 2731.2029602195676 26.81474684232976 0.31027895991042437
1.0650077322171925 13.046404612345441 2406.8563610586352 28.038095158467033 0.3148509083645272
1.0913126531960307 13.052530429228959 2123.370088142386 29.31632761665155 0.3195181491665978
1.1177905371479702 13.058367126008594 1875.528491746827 30.651618415652585 0.3242814181144646
1.1444026648837855 13.063840304737207 1658.2163764570278 32.04773623352429 0.329151358850328
1.1711390301258493 13.06885619974196 1467.693940263384 33.50663536302971 0.3341257662408315
1.1979721526337288 13.073327337868616 1300.5087304080093 35.0324904472753 0.33921594705372143
1.2248994740932009 13.077213558738132 1153.5275725080676 36.62791016853636 0.3444223520513437
1.2518802142723922 13.080411834054832 1024.2147790588508 38.29719696857619 0.34975492568871763
1.2788978453996585 13.08286954940009 910.3662683790451 40.04332602979395 0.3552146895143617
1.3059222403093946 13.084481212019083 810.050149209224 41.87139715191882 0.3608140415834556
1.3329413696262171 13.085226349570833 721.5488415126459 43.784403236274436 0.3665522957274293
1.3599336650533373 13.085057324715322 643.3464874879996 45.78791535597328 0.3724421724001059
1.386849699301414 13.083844120223041 574.158267518082 47.88679954591818 0.37849110366429467
1.4136834333326527 13.081570425635624 512.9898708963937 50.0852564781405 0.3847019846561809
1.4404089348278772 13.078201829192343 458.81528208349675 52.38951854524644 0.3910871188923918
1.4669782854730007 13.073625487724918 410.77871457905246 54.80546116274719 0.3976554772196436
1.4933811621254514 13.067827885795213 368.12515214297594 57.33924122148916 0.40441606536320485
1.5195852901577782 13.060743066060649 330.27795884555155 59.99745077048735 0.4113785945974347
1.5455586944206787 13.052312096133189 296.5839540015122 62.78715616186468 0.41855353976297616
1.5712700480579256 13.042497530812692 266.64006435860995 65.71594093909704 0.42595220200917056
1.5966876655768405 13.031243000197037 239.95892406846482 68.79195284791686 0.4335867768147474
1.6217752892770245 13.018484050118698 216.18231611023833 72.02395539635405 0.44147042790752167
1.6465149137130273 13.004227749856003 194.9704873796568 75.42138444383001 0.44961736777879796
1.6708798517136068 12.98838440389213 176.0285190496335 78.99441035976223 0.45804294557151326
1.6948102384538783 12.970917012391997 159.08115979126944 82.75310841662308 0.46676005632314127
1.7183011749790855 12.951799355710229 143.9336445378251 86.7094017763603 0.4757870954601648
1.7413023570035226 12.930973792307455 130.37580899984616 90.87618844993668 0.4851439345146027
1.763787884544416 12.90841606485898 118.22566680096054 95.2657144167719 0.49484533406026177
1.785722297547182 12.884070083680156 107.3160463058493 99.89338320133774 0.5049158598259486
1.807062554213356 12.857892809200951 97.53838408039175 104.77466331220138 0.5153772819603879
1.8278123832120652 12.829922738695846 88.7376128770577 109.92523611326955 0.5262491931271988
1.847890755517554 12.800021006733825 80.83913292807937 115.3641552072184 0.5375605818454283
1.8673093778697418 12.76826620633599 73.72089567600233 121.11086662101583 0.5493381893932942
1.8860044717630378 12.734535293284738 67.31716027160356 127.18654511843249 0.5616112240460012
1.903942156782236 12.698814708706568 61.545611785951806 133.61426977058522 0.5744115739293628
1.9211104844834077 12.661121394767706 56.333571810609904 140.41836272835832 0.587771056002016
1.9374804260609242 12.621445697944267 51.6329217856732 147.6263150351209 0.6017277435963002
1.9529995382395444 12.579682955550888 47.382620581866135 155.26810403838567 0.6163229312181968
1.9676630464540215 12.535938464273949 43.538400187850854 163.3747277156173 0.6315956044839056
1.9814223854255693 12.490082546674996 40.06270386642708 171.98185094165262 0.6475943015548304
1.9942643674222589 12.442187015050283 36.91073503779511 181.12766770832192 0.6643690371747517
2.006130048114456 12.392131184565972 34.05788166625618 190.85369309458474 0.6819732430335482
2.0170259655861433 12.340013648090936 31.46969291750029 201.20560318812898 0.700465684240649
2.0269181584545435 12.285796784364763 29.123415864897552 212.23369662081186 0.7199109692298868
2.0357805836756415 12.229486491944325 26.98848436082596 223.9923725298815 0.740376726844312
2.043591271248894 12.171078212514393 25.05151556973572 236.54240314655692 0.7619398056484721
2.0503128797639416 12.110545021143562 23.288682696905525 249.9496324035043 0.7846805757450188
2.055939309021477 12.047930668028807 21.686733855344087 264.2877524367155 0.8086903760206299
2.0604566949281273 11.983273323482297 20.227648499078057 279.6373309945582 0.8340664952784359
2.0638392685065354 11.916569460996765 18.89987601976576 296.0877969638046 0.8609165375641508
2.066072236634126 11.84784192806761 17.690992434112367 313.7369944090813 0.8893545275085115
2.067139654695204 11.777129303523445 16.589521591937558 332.69571600613403 0.9195129910236398
