M[M_sun], R[km], Lambda[1], P_c[MeV/fm^3], rho_c[fm^-3]
0.24162668629717493 15.618656898711224 2160425.4255784233 3.5677272577965504 0.1711233750220791
0.25364465994185875 15.277264397904197 1723194.386798451 3.7848319021090777 0.17388832631815535
0.2660405082115957 14.981265108184983 1383013.41839119 4.011427335243177 0.1766669735133075
0.2788167803627622 14.723468554848296 1116354.8931002105 4.247769267283084 0.17945799036771803
0.291972117885283 14.49837624175988 905862.4321683949 4.494483030738019 0.18226794581690736
0.30550837107218315 14.301202441494937 738665.4750266114 4.75172453365494 0.1850925520545695
0.3194254660520895 14.128101118399833 605060.7602575459 5.020175606513865 0.18793841783371323
0.33372283027611943 13.975966858616925 497659.58037580916 5.300060892905964 0.1908021776394551
0.3484065265269352 13.841981023427538 410977.89660725195 5.592108387318841 0.1936901154337351
0.36347049913946244 13.723926987667316 340646.3145671004 5.896486169911795 0.19659730892887348
0.3789248876201842 13.619956173861532 283282.89166655403 6.214058022608873 0.1995314324672038
0.3947569227255997 13.528431379593586 236387.11031632253 6.545080294944959 0.20248864530983893
0.41098364891458006 13.447850438395289 197845.92825493385 6.890257565885129 0.2054726953333157
0.4275921740154047 13.377049095826555 166067.80366578948 7.250294049702649 0.20848663929835162
0.44458889867272355 13.314890891099042 139781.98292268746 7.625447293882808 0.21152600083307174
0.46197141856267104 13.26054845568579 117968.9662861608 8.016669192225223 0.2145969861771585
0.4797369899405834 13.213143575657243 99805.57360707133 8.424663546528324 0.21770122184512586
0.49789514545695235 13.171959633571808 84633.05169511549 8.849869411017972 0.2208361491557844
0.5164348649786329 13.136372192291109 71929.57412980634 9.293163759916197 0.22400522734309822
0.5353546698966938 13.105819087303058 61266.7436322912 9.75542986890458 0.22721135154501926
0.5546626270092717 13.079801648478316 52298.90627458912 10.237477482465637 0.23045587294861347
0.574346442902526 13.057819175826163 44723.44494576716 10.739774912031903 0.23373545117464506
0.5944047083919862 13.039503946921924 38323.20856223341 11.263572666999162 0.23705634663092215
0.6148426906610166 13.024501352772727 32618.345898224085 11.809805833966765 0.2404201400602975
0.6356481683449844 13.012431486917817 28287.465826676413 12.379453624979597 0.24382846478429185
0.6568200910646259 13.00300548988727 24366.046488899672 12.973201306236145 0.24727922839595945
0.6783532572702162 12.995982307383345 21023.86908363069 13.592383286538913 0.25077730072026666
0.700242357638263 12.991059715741148 18168.924886388435 14.23819392605424 0.25432527841239916
0.7224785158858162 12.988001374947356 15726.210508009017 14.911823182519601 0.25792514660884946
0.7450673424129293 12.986639216648378 13631.575875817416 15.614294722320755 0.26157674055540725
0.7679898343248065 12.986762960856415 11833.969291147045 16.34688697395531 0.265282076516645
0.7912353860051695 12.988141206256437 10286.941646099749 17.111210517168182 0.2690457868997181
0.8148101772126091 12.990670310497947 8954.424463148003 17.908720752852492 0.27287030498270476
0.8386942393088364 12.994145713995177 7805.901643337022 18.74077235926874 0.2767566151908165
0.8628774778520787 12.99841010493529 6812.757624539224 19.608731417153862 0.28070539028100305
0.8873607917821765 13.003355679111158 5954.251491967925 20.514673893242616 0.2847228978640683
0.9121173192378303 13.008850708764141 5210.097570137384 21.460394380262446 0.28881215221148976
0.9371385057641931 13.014749414505616 4564.1979673306505 22.44736333541302 0.29297296347141305
0.9624236749698 13.0209619010664 4003.581803932924 23.477634033503897 0.2972093530105036
0.9879451680525742 13.027347919950687 3515.6288687652423 24.553616112588276 0.3015273138462598
1.0136896400398665 13.033803857587195 3091.415474285852 25.677235448965487 0.3059283537168548
1.0396544400309558 13.040255302130422 2720.784725432843 26.850486872534194 0.31041397930884573
1.0658074900190675 13.046582612919146 2385.331316259822 28.076451879688793 0.3149928065551072
1.0921403393766596 13.052714068837526 2115.1643244624174 29.357165145564675 0.31966513919631456
1.1186401205575187 13.058546220082738 1858.8422388302529 30.69542400636784 0.3244359451742442
1.1452731758243417 13.064001153158204 1651.71945902009 32.09458647923641 0.32931299766743966
1.1720367976974246 13.069011868236915 1461.7045908398675 33.55663788620051 0.334294279899393
1.1988939274658275 13.073470642767388 1295.07196944264 35.086100567760816 0.3393932211884305
1.2258415871005628 13.07733553173937 1148.778978892992 36.68497239526105 0.3446064259617147
1.252838209025079 13.080503761648608 1019.8887329036218 38.35833132734305 0.3499484886506454
1.2798808757626847 13.082938005383395 906.4476643073759 40.10844526008631 0.35541614665795696
1.306926521394002 13.084524343741773 806.577354156338 41.94073418898927 0.36102365795103464
1.333964466705191 13.085235685691147 718.3956599926895 43.85873489985531 0.3667732478730973
1.3609741641056652 13.085028872989561 640.4434382591708 45.86708599111791 0.37267238985258866
1.3879060662843674 13.083769771228052 571.6614090224814 47.971147069597585 0.3787311839446593
1.4147573996176033 13.081459377543075 510.6805306629231 50.175705080719375 0.3849554316082489
1.4414873363290563 13.078025083494996 456.7516327989172 52.485924736565366 0.3913518141734751
1.4680828436602509 13.073423970887449 408.9082974451259 54.90825149641076 0.3979321703114276
1.4944917622433855 13.067552994668672 366.4200627007415 57.4488767866593 0.40470556365913923
1.5207050333269791 13.06040548409355 328.7482607197137 60.11443028236565 0.4116817681556992
1.5466888126715237 13.051913797110618 295.20561834086914 62.91201936038937 0.41887132653028597
1.5724050708819197 13.042030028126248 265.38414350900837 65.84927233015962 0.4262856135659096
1.597819173861169 13.03069221418432 238.84690246603742 68.93438582557741 0.4339369046978543
1.6229166659701721 13.01786980420098 215.16947340332996 72.17617678926217 0.4418384505742786
1.6476693035057721 13.003528720512186 194.0434321728223 75.5841395344091 0.4500045582822642
1.6720174556157332 12.987593236007152 175.17852122187676 79.16815939682614 0.4584492225207203
1.695955669662528 12.970035464748404 158.32452865759086 82.93854022043486 0.4671861780682357
1.7194350793390882 12.950820051000473 143.237227667927 86.90797005250883 0.4762367549081906
1.742411113640699 12.929844699989586 129.751411391165 91.0879758831822 0.4856150835974221
1.7648993859905986 12.907221094820226 117.64631074174137 95.49275933140042 0.49534352129962267
1.7868257853809228 12.882781611654426 106.79657745664073 100.13588323343056 0.5054391643746388
1.80816341996882 12.856518477127883 97.05609102931435 105.03393286312996 0.5159279374726599
1.8288719761779635 12.828378714738893 88.30444233207159 110.20345513185923 0.5268323863850645
1.84895134611341 12.798405440225313 80.43795640990946 115.66215802969448 0.5381761528437956
1.8683265098350286 12.766462316908903 73.36426581708896 121.43012067629242 0.5499880736562781
1.8870035212575553 12.732637698311299 66.98859475084822 127.52878259938406 0.5622980003024881
1.904925807645387 12.69681549049386 61.23838032961457 133.98068872573972 0.5751355876509692
1.9220676725657002 12.658990759639426 56.057750627069154 140.81150458754604 0.5885370458480067
1.9383775289398966 12.61909822642062 51.37627661390554 148.04891008491722 0.6025406261999983
1.9538718606076455 12.577247998682541 47.14887196955398 155.72134524721298 0.6171818686790091
1.968487346716495 12.53330875471359 43.326307805075366 163.86253440714157 0.6325086162380557
1.9822006137705086 12.487302930920567 39.867888014693825 172.50634807812364 0.6485627281699936
1.9949853573136955 12.439221884940729 36.73221140598072 181.69193038095858 0.6653968494569044
2.0068211747682883 12.389052943547266 33.892733694558586 191.46138172869888 0.6830656921792243
2.0176681285914317 12.336770674761327 31.318924524922696 201.86075541666065 0.7016285148208544
2.0275005993539836 12.282381325684726 28.983565363833424 212.93992584127196 0.7211477049884628
2.0363082268587247 12.225907286194724 26.862120939880278 224.75459127789563 0.7416942400961093
2.044049656798097 12.167304577506235 24.9353461365377 237.3657478667063 0.7633446513558161
2.0507067896808038 12.106589795805677 23.180051104726804 250.8403869503924 0.7861818836078588
2.056277487752724 12.043835141024546 21.58791837652256 265.25177168748735 0.8102945600622522
2.060720687584196 11.97897835665549 20.1362918209965 280.681309506372 0.8357812099582693
2.0640231051145017 11.91207707343318 18.81622879326885 297.2191357816244 0.8627500349819973
2.066181104202961 11.84316653967394 17.614035444338665 314.96557227958124 0.8913212390365125
2.067169851592162 11.772265918743159 16.51937527388924 334.02994446345105 0.9216202982945548
