M[M_sun], R[km], Lambda[1], P_c[MeV/fm^3], rho_c[fm^-3]
0.24162668629717493 15.618656898711224 2160425.4255784233 3.5677272577965504 0.1711233750220791
0.25364204564386517 15.27735325784995 1723136.102040405 3.7848040826838485 0.1738879795624404
0.26603800654977444 14.981290102887286 1383084.7493783962 4.011368853229755 0.17666626679268904
0.27881164871288305 14.723606015955827 1116452.9578244358 4.247678144113652 0.1794569334762723
0.29196487961002215 14.49849263859155 905883.0326974082 4.494356875240185 0.18226654104615983
0.3054995771688216 14.30130818717692 738704.5608698506 4.751559062231514 0.18509076464738955
0.3194149544982118 14.128214307759613 605128.8642142903 5.019969600231583 0.18793628043902344
0.3337114179190772 13.976091085605576 497724.411230838 5.299808928152083 0.19079964077246866
0.3483918726634182 13.842099902500163 411054.4699534697 5.591809834970939 0.19368722685764023
0.3634535246593219 13.724045270393548 340689.16737027635 5.896134322547096 0.19659400430396537
0.3789050831387475 13.620069493127545 283341.4280291134 6.213648622351732 0.19952769922980867
0.3947357432966801 13.528527887756876 236436.86035245645 6.544613766828951 0.20248455448851013
0.41095914688905294 13.447943408323814 197905.16218265018 6.889724903591016 0.20546815895769596
0.42756495245390813 13.377154052679995 166111.95055161722 7.249690254777504 0.20848164425767526
0.44455847862053144 13.314989577261171 139828.82831898853 7.624774035126233 0.21152064126046544
0.4619390755895372 13.26061773144275 118006.84973225195 8.015914726381427 0.2145911497738973
0.47970079522098513 13.21321182760855 99833.00588493585 8.423821990377062 0.2176948945193423
0.4978558883183523 13.172040943567549 84661.92992168706 8.84894386748434 0.22082944782514657
0.5163920805971723 13.136458301984657 71953.83544259884 9.292139250811747 0.2239980147351322
0.5353093840014038 13.105878702602078 61292.005666175886 9.754299447785463 0.227203612083671
0.5546135390701665 13.0798423239169 52312.19054467555 10.236233780792766 0.23044759038064175
0.5742936404601382 13.05788765700828 44339.92128095404 10.738423333674133 0.23372677362292157
0.5943491230822661 13.039545491710662 38335.841119233846 11.262092886173274 0.23704710093354345
0.6147830590098379 13.024540918692228 32910.30329272779 11.808189108832906 0.24041030767403732
0.6355827793114173 13.012444790536984 28302.76966371352 12.377690668316635 0.24381802618707382
0.6567526243226519 13.003045187410304 24378.303597634145 12.971300213820156 0.24726836253128928
0.6782828892071964 12.995997279649433 21034.430036629972 13.590317062449085 0.25076579653810904
0.7001680409185619 12.991071551824833 18041.967879154945 14.235951491532882 0.2543131130956787
0.7223996947027878 12.988003982917743 15735.04580928765 14.909392746977906 0.25791229597998094
0.7449844739380986 12.986656698091066 13638.773616349306 15.611687451261469 0.2615634139152234
0.767903259443866 12.986750419996522 11839.94515726252 16.344067559542026 0.2652680224429283
0.7911432642414952 12.988130993495444 10293.26701056486 17.10816480934338 0.2690309766539293
0.814716299244682 12.990655139774915 8959.636573541646 17.90543366342713 0.27285470797841954
0.8385963200923027 12.994123404798367 7809.910996295549 18.73725846776658 0.27674047067750035
0.8627750349237613 12.998386773555222 6817.27307979372 19.6049450346013 0.2806884031704362
0.8872464948767267 13.003333728806133 5921.312839408242 20.510596795891512 0.2847050313913118
0.9120040702169099 13.008825675194492 5213.21241627395 21.456007096446633 0.28879336713269077
0.9370224863842342 13.014713491397538 4567.05398963168 22.4426841408967 0.29295352876132164
0.9622979281497291 13.02091280733002 4006.2917798520657 23.47260420804223 0.297188925394797
0.9878191620344381 13.027316786721792 3517.985448983369 24.548211981339897 0.30150584579827155
1.0135598594786426 13.033777610306046 3093.4569740438687 25.67147793050179 0.3059061343442679
1.0395195478678025 13.040228562821891 2722.5935396855966 26.844305580529593 0.3103906275007148
1.06566843284209 13.046546489182035 2399.3603659814353 28.06981787989264 0.314968264505177
1.091997369297198 13.052679697396767 2116.5616628747803 29.350101949908876 0.3196397160287779
1.11849313717516 13.058518456065556 1869.4288544808685 30.687847288248744 0.32440921781011994
1.145122589251527 13.06397205889909 1652.8413111264272 32.08652096731038 0.32928528536288276
1.1718819943273202 13.06898637536232 1462.7950540956176 33.54798897403144 0.33426513217364306
1.1987353817823247 13.073450517609215 1295.984448706094 35.07682743483508 0.3393625574517971
1.2256785852203405 13.077319569490742 1149.628988054143 36.67510195125367 0.3445745854372588
1.2526719321832427 13.080480983910576 1020.6350751118872 38.34778606415348 0.3499151808532741
1.2797105980714287 13.082932560676863 907.1144571076737 40.09718065078821 0.35538129772005145
1.3067526785380952 13.084518717751113 807.1465760666955 41.92873972598148 0.36098739687220893
1.3337873642558844 13.08523272994936 718.8659331455697 43.84587610739675 0.3667350248918327
1.3607957015480159 13.085032939547192 640.9555689445898 45.853389812329766 0.372632563225158
1.3877236868415386 13.083784801906695 572.0859966459695 47.956555005021976 0.37868965021845624
1.4145774565661238 13.08149897418178 511.0644776872496 50.1600571264501 0.3849115843159462
1.4412992980073045 13.07805344656681 457.0811300616429 52.46924573294713 0.39130601987862207
1.4678922291589978 13.07346144481881 409.2216783979348 54.890467591945345 0.39788429923897217
1.4943005978037693 13.067598956677081 366.72566158758815 57.429908147842724 0.4046554760018624
1.5205113878224406 13.060463555661231 329.0041810821692 60.09419055810915 0.41162931325036906
1.546493331528984 13.051983438501386 295.43879249856826 62.890415092999376 0.418816341952163
1.572208778565944 13.042113102391626 265.60170660041933 65.82620230692697 0.4262279241328458
1.5976311283174414 13.030792841214433 239.0436622281515 68.90974036429986 0.43387632137419546
1.6227132068102554 13.017952135982007 215.3476234708548 72.14983695020403 0.4417747692636104
1.647471111891721 13.003653235800195 194.198787707351 75.55597625027444 0.4499375584967302
1.6718205936055208 12.987727640345136 175.32731262343017 79.13817956615426 0.4583792799187543
1.695758164475672 12.97019059026191 158.45212482669484 82.90645135009778 0.46711243793765905
1.7192235945032064 12.95095800800031 143.36258228695908 86.87360696172992 0.4761589394145387
1.7422260837560228 12.930064261958503 129.84711173111688 91.05132426842454 0.48553354724556075
1.7647073250688745 12.907427154240365 117.74463188412331 95.45346612385399 0.49525730322851885
1.7866354614447815 12.88300403621351 106.87974777885393 100.09391421967047 0.5053485970637186
1.807975605310317 12.856762488036606 97.13735587048885 104.98907041804968 0.5158326719764965
1.8286889470027423 12.828640966638647 88.3801964696489 110.15544204327088 0.5267319714342942
1.8487696415708599 12.798690371564511 80.50934549035065 115.6105787620454 0.5380696078754695
1.8666852583374751 12.7674046392336 73.8359011055243 121.54609091126778 0.7699986563643999
1.8773588844253435 12.732701926310183 69.25921229026501 128.5344122739097 1.0984848296600875
1.8816466471223883 12.690969950570533 66.05293111459342 136.6456399727599 1.4147646824883569
