M[M_sun], R[km], Lambda[1], P_c[MeV/fm^3], rho_c[fm^-3]
0.24162668629717493 15.618656898711224 2160425.4255784233 3.5677272577965504 0.1711233750220791
0.25364516514609653 15.277243692127945 1723146.5883741667 3.784843840980441 0.1738884751304274
0.2660422211383919 14.98123844915605 1382905.560905402 4.011452433333211 0.1766672768089137
0.2788193049523135 14.72343001926285 1116389.021251945 4.247808373904738 0.1794584439455968
0.29197476328512156 14.498315916475995 905813.4117280532 4.494537172291293 0.18226854869566866
0.3055118523127503 14.301141047856143 738544.005690678 4.751795548741658 0.1850933191530404
0.3194299030557872 14.128042721795035 605031.7339275423 5.0202640184710345 0.18793933514189273
0.33373037679088985 13.9758603315485 497622.7355929922 5.300169029664058 0.1908032663971778
0.34841297260663906 13.84192617508163 410939.3636614202 5.592236519096324 0.1936913551439301
0.3634782320447229 13.723868476093536 340629.62488965475 5.896637175703765 0.19659872720722787
0.3789328166290634 13.619903330007947 279329.6387014522 6.21423373012324 0.19953303470816922
0.3947672556166338 13.528364828062024 236362.0550867142 6.545280521979008 0.20249040103043406
0.4109942468810401 13.44780296541727 197826.74154771905 6.890486178247228 0.20547464229212478
0.42760428828600333 13.376971334747457 166045.87104493286 7.25055319304802 0.20848878312483513
0.44460141599858993 13.31485054169665 139762.81403531044 7.625736252175048 0.21152830112687754
0.461982562716758 13.260521339695268 117946.26832900781 8.016993006160263 0.21459949113973836
0.479753279763269 13.21307471662681 99788.29556501702 8.425024741617406 0.21770393752725428
0.49791262107493156 13.171913394476153 84620.12240669935 8.85026665565077 0.22083902537665542
0.5164537105714331 13.136334926726011 71920.04604035853 9.293603483500556 0.22400832302454568
0.5353742648686493 13.105789958965945 61257.64845802764 9.755915053430371 0.22721467337510595
0.5546833381284314 13.079756995013147 52287.82179004316 10.238008242823472 0.23045938871078153
0.5743683412624543 13.057815165786227 44715.78782182542 10.740355025554353 0.23373917568315586
0.5944290957174047 13.039482440755927 38316.45297669206 11.26420781050971 0.2370603150190698
0.6148689311018307 13.02446766042207 32891.04546872576 11.810499760295487 0.24042436029016664
0.6356743302540813 13.01241248948178 28281.654054612398 12.380210321116115 0.24383294523826526
0.6568486867472947 13.00301014368087 24360.645156279246 12.97401729726562 0.24728389226607106
0.6783840145595064 12.995958842885845 21020.270133553702 13.593270161242712 0.25078223860100946
0.7002748522412497 12.991041416469427 18165.366780243225 14.239156440623727 0.2543305001009142
0.7225131608439137 12.987984682617656 15723.854309947395 14.912866398778515 0.2579306624864537
0.7451028939372107 12.986638124678612 13532.13052446253 15.615413847471604 0.26158246078083336
0.7680263713386738 12.986758119849922 11831.494591769622 16.348097165421656 0.2652881090175782
0.7912750760608118 12.988138435515953 10285.347785742526 17.112517849844817 0.26905214401582456
0.814851299402765 12.990676398925842 8952.141964080536 17.910131704441934 0.2728769998471088
0.8387383541786324 12.99415056423949 7804.189534374361 18.74228067118365 0.276763545103644
0.8629209327925084 12.998429768026242 6811.082280360654 19.610356704053295 0.280712681918306
0.8874079192592483 13.003366904476223 5952.690877235539 20.516423979163317 0.2847305670119279
0.9121661511933112 13.008868123101546 5208.752617231661 21.46227762507882 0.28882021572043026
0.9371891390861183 13.014759792549087 4562.868206374945 22.449371893470968 0.29298130587808624
0.9624753002300293 13.0209716086689 4002.5419952638454 23.479793114798298 0.2972181216811657
0.9879998113598012 13.027351300144698 3514.941379788456 24.555935881793022 0.3015365291880641
1.013744112488759 13.0338176504154 3090.6583964185656 25.679706925581794 0.30593789162109664
1.0397118926406634 13.040275378507475 2720.086204687095 26.85314027591132 0.31042400338900733
1.0658666933154655 13.04660005993122 2396.9324011206822 28.07929963289293 0.3150033416325073
1.0922034291841565 13.052732120141094 2114.692881697605 29.360197154408258 0.3196760525664885
1.118703322295693 13.058562967715307 1867.4292702435407 30.698676476278205 0.3244474184726078
1.1453369217356644 13.064014285863164 1651.205436628984 32.09804879342388 0.32932489383796354
1.172103703045077 13.06902869302906 1461.2376528753678 33.56035066448766 0.33430679234502414
1.1989617419997676 13.073486532591785 1294.6924050393384 35.09008133736203 0.33940638451431265
1.22591073135397 13.07734904391977 1148.4170640188186 36.68920960262111 0.34462009453675263
1.252910107855153 13.080511570985495 1019.5929126110643 38.36284217129011 0.3499626928657956
1.2799545416547204 13.082948907058285 906.1669236828367 40.11328102087746 0.35543110688632146
1.3070065989759947 13.08455043936362 806.2548949044904 41.9458832978321 0.3610392244871531
1.3340409694503568 13.085241798503485 718.1410048297776 43.86425509814334 0.3667896567572456
1.3610506710269297 13.085029869358594 640.2478233917888 45.87296571028425 0.37268948727722484
1.387990335244865 13.083780434566085 571.4339009318834 47.97741142854101 0.3787490143323914
1.4148346860267746 13.08145685057328 510.50182390690986 50.182422784303725 0.3849742553539985
1.4415684848699941 13.078009152859714 456.589642697003 52.49308511872292 0.3913714739001164
1.4681640376819352 13.073409198145743 408.75045624618485 54.91588626896223 0.39795272174605223
1.4945750511686697 13.067533835789536 366.30224677548057 57.45702023044159 0.40472706683736753
1.5207877323936598 13.060378827603675 328.6460502440483 60.12311947727494 0.41170428777556084
1.5467720027205212 13.051883468447123 295.0965732133334 62.921294438380784 0.41889493234117553
1.5724901141470993 13.041993503762729 265.29639452297886 65.85917675376189 0.42631038079638334
1.5979028086490048 13.03065179765145 238.76113481602005 68.94496669478876 0.43396291452647157
1.6230117703110654 13.017837498541226 215.08769736210607 72.18748518004939 0.44186579064819814
1.647754353843475 13.003476698653678 193.96063553574805 75.59623087242976 0.45003332328887097
1.6721016898244885 12.987532170933681 175.1152781845544 79.18103071781641 0.4584792511653331
1.6960393638045523 12.969969025994994 158.25373851604587 82.95231713347451 0.46721783737427597
1.7195188711093154 12.950747436261484 143.1853337065539 86.92272349402185 0.4762701641943863
1.742500479246882 12.929798895084058 129.6929457429208 91.10371199355875 0.48565009065075593
1.764981194155257 12.907134435230244 117.5943008129595 95.50962973923006 0.49538053874137994
1.7868934927381113 12.882655763485731 106.75662684838622 100.15390262940268 0.5054780494493972
1.8082437226533123 12.8564163001299 97.01960686005748 105.0531947080818 0.5159688400407895
1.8289477262476452 12.828260601092813 88.27186084163594 110.22406137017504 0.5268754685479634
1.849028301297007 12.79828255838917 80.41485809207377 115.68430416481779 0.5382218991169166
1.868400138127689 12.766331431338747 73.3351004468008 121.45384700877506 0.5500363717744818
1.8870757443924477 12.732498440736457 66.96023429044446 127.55413214010137 0.5623487354012157
1.904997067668821 12.696664104781895 61.21580793469741 134.00789419300847 0.5751892996905803
1.9221360978118405 12.658830118013077 56.036489809953416 140.84072554955225 0.5885939793941651
1.9384447286332496 12.6189237522466 51.358581688531594 148.0803215758682 0.6026010477656616
1.9539370300055865 12.577063522959346 47.13279295141278 155.7550360210528 0.6172457160679296
1.9685473466353611 12.53311689678229 43.31101058575193 163.89870867977154 0.6325761900799576
1.9822587954368387 12.487099072051127 39.85277101190355 172.54533901989424 0.6486347206807916
1.9950408903044596 12.438997601143111 36.720950606333695 181.73387936828018 0.6654732601189662
2.0068732451160716 12.388821546870322 33.88111274445216 191.50656124509095 0.6831469119376891
2.017712879190765 12.336529427774478 31.30715539049992 201.90946604783892 0.7017149713862884
2.0275441079642214 12.282130649041795 28.972381763903737 212.99237665223143 0.7212394645442041
2.036346442342613 12.22564209651065 26.85257477301682 224.8112678922022 0.741792206973217
2.0440838090567834 12.167025427940107 24.926850953179713 237.42692646593548 0.7634489664874636
2.050735511051911 12.106297152282398 23.173080978340867 250.90650965909614 0.7862931429410964
2.0563006397520547 12.04352870523214 21.579998829296244 265.3233661496816 0.8104135395274248
2.0607397415757243 11.978658401884738 20.12951880442562 280.75884636220746 0.8359083884483847
2.0640364279140995 11.911740006703033 18.81011740337219 297.3032585501793 0.8628863289402677
2.06618559024705 11.842814623992622 17.609293588162892 315.0569566772175 0.8914675274832006
2.067172150656309 11.771908263420492 16.51373327497024 334.1291933870902 0.9217770540414948
