M[M_sun], R[km], Lambda[1], P_c[MeV/fm^3], rho_c[fm^-3]
0.24162668629717493 15.618656898711224 2160425.4255784233 3.5677272577965504 0.1711233750220791
0.25364340748465236 15.277310560302295 1723231.6494387935 3.784809009484445 0.17388804097263308
0.266038137902334 14.981311827360356 1382975.0426436644 4.01137921030867 0.1766663919518754
0.27881311330410447 14.723560963259025 1116490.282147426 4.247694281826599 0.17945712064942346
0.29196644304261304 14.498465526099656 905961.334737402 4.494379217011213 0.18226678982696548
0.3055011648313226 14.30128731210255 738666.2340608658 4.751588366618356 0.18509108119069573
0.31941730876557567 14.128165690316235 605173.3193054259 5.020006083053107 0.18793665896237782
0.333714932460754 13.975970787649146 497710.5331027697 5.299853549841971 0.19080009003884504
0.34839418857197546 13.842045594100744 411036.84551809356 5.591862706892422 0.19368773840802514
0.3634538682131101 13.724089417604503 340679.33129704284 5.896196632469569 0.19659458953194342
0.3789090369925979 13.620034979303497 279411.41983667744 6.213721124243306 0.19952836035976187
0.3947396483316533 13.528507838716799 236431.49231988605 6.544696385368268 0.20248527894148777
0.4109633908403862 13.447936674276443 197891.38924874557 6.8898192336261745 0.20546896231185943
0.4275702129702607 13.377130769249789 166104.28053033073 7.249797181402859 0.2084825288342439
0.4445639459550865 13.31499187215736 139821.07996766132 7.62489326276554 0.21152159038913745
0.46194416239516567 13.260607019654982 117998.2892784139 8.016048334517532 0.21459218334084762
0.47970764235983276 13.2132064585385 99821.84677896337 8.423971020759605 0.21769601501947838
0.4978635908742095 13.172016748904715 84658.27860850743 8.84910777058076 0.22083063455359506
0.5163995479208934 13.136439293220494 71950.17675519285 9.292320678909038 0.22399929200024785
0.5353162803241512 13.105880013529386 61286.06562397553 9.754499630884341 0.22720498264312902
0.5546216401780697 13.079835101199162 52310.954102007694 10.236454023628157 0.23044905711200844
0.5743028107935295 13.05786656921635 44737.47657252199 10.738662679274311 0.23372831029581473
0.5943586113623954 13.039551455136023 38335.88181978336 11.26235493369393 0.2370487382111946
0.6147935454869032 13.024519737218471 32907.70153567586 11.8084754061584 0.24041204883945286
0.6355940181620906 13.012457278201653 28300.696709635577 12.378002859892831 0.24381987469656202
0.6567646141516357 13.003040814887848 24376.10070420864 12.971636866025024 0.24727028669724158
0.6782950744789666 12.995980651670399 21032.409904660646 13.590682955451964 0.2507678337323205
0.7001812036880296 12.991055406344062 18040.30994917039 14.236348586975593 0.2543152673578357
0.7224135992933061 12.98800271937013 15733.767149880618 14.909823132532434 0.2579145715906428
0.7449992759180687 12.986646935438134 13541.079834121614 15.612149149776016 0.26156577381177304
0.7679171422114853 12.98675493718521 11838.324071762518 16.344566822855835 0.2652705111453281
0.7911608899384323 12.98812909981358 10291.686004735911 17.108704142872046 0.2690335992502455
0.8147334677445252 12.990662704561576 8958.806035120388 17.90601573868052 0.2728574698838765
0.8386133019323221 12.994128071132478 7809.542226316463 18.737880703124652 0.27674332952701747
0.862791631713523 12.998388752603262 6816.427598576539 19.605615519894528 0.280691411215094
0.8872657354170604 13.003342153411692 5956.734988840764 20.51131875777099 0.2847081951402096
0.9120244853285142 13.008829220708465 5212.661075432278 21.45678398250079 0.2887966935337986
0.9370424991864938 13.014719792289949 4540.249753693838 22.443512715094933 0.2929569701868225
0.9623186259865861 13.020925464552219 4005.780209349664 23.473494867357772 0.2971925426269181
0.9878417839877282 13.027318106856116 3517.5522986483807 24.549168917507316 0.3015096472513858
1.0135833353417114 13.033769305044125 3093.1589924079485 25.67249743960993 0.3059100688262626
1.0395435308644703 13.040238968238688 2722.275830162951 26.845400124944398 0.3103947624924198
1.0656933934377937 13.04655783475359 2399.0361562292737 28.070992582481043 0.3149726102408514
1.0920222379407918 13.05268231537149 2116.313531774669 29.351352647651407 0.3196442177727187
1.1185191095251232 13.058524169488408 1869.165396603932 30.68918891148744 0.3244139504730295
1.1451487583615023 13.063989141824965 1652.4758515732656 32.087949137648764 0.32929019241549634
1.171908793356357 13.068997510694135 1462.6178738542858 33.54952044171089 0.3342702933776237
1.198763566211575 13.073455137042826 1295.8393897648107 35.07846942703773 0.3393679870748662
1.2257070636979683 13.077325956291943 1149.4368709167497 36.67684970350863 0.34458022341548705
1.2527010741203648 13.080490672705924 1020.51161739415 38.34965968267468 0.34992111606601123
1.2797402168185474 13.082935331692525 906.9709691236319 40.09917525192936 0.355387468349629
1.3067839690809486 13.084523218349117 807.0292657517755 41.93086355353108 0.3609938175246498
1.3338192976829613 13.085234148956525 718.8253570361089 43.848152969708714 0.36674179290413034
1.360825721475995 13.08503490112032 640.8437962226157 45.855814939166564 0.3726396151645708
1.3877557773445857 13.083780337066626 572.0079990961455 47.95913875338728 0.378697004400356
1.414610409853098 13.081494743904258 511.0114497019307 50.16282782384016 0.3849193481153703
1.4413328869293929 13.078044386451992 457.04303793567993 52.4721989815053 0.39131412839267615
1.467926254768007 13.073454146051159 409.1641305932004 54.893616466441415 0.3978927754428028
1.4943350738472483 13.067589415051563 366.6728897028011 57.43326678202759 0.4046643446465552
1.5205449482018678 13.06045127542468 328.94821479806507 60.09777423951838 0.4116386010087729
1.5465278828964901 13.051971206908702 295.39657035165004 62.89424036721668 0.41882607757916884
1.572243872047193 13.042097780402555 265.5643551516456 65.83028709235876 0.42623813864166404
1.5976673096917031 13.03077669489632 239.00922649090637 68.91410407864429 0.4338870482303701
1.6227536976903634 13.017963302341414 215.31109700033562 72.15450064993877 0.4417860445987032
1.6475056838672673 13.00363029034353 194.16543941474765 75.56096278465667 0.4499494213438531
1.6718552159332662 12.987704504837168 175.30392883772322 79.14348771433997 0.45839166376774243
1.6957928624322713 12.970163699796665 158.4253435350113 82.9121328924819 0.46712549410551046
1.7192580063803782 12.950924293724212 143.33939310373512 86.87969114028401 0.4761727170854909
1.7422602935556712 12.930030069409051 129.82755612107 91.05781361583382 0.48554798365490354
1.7647404501090536 12.90739025249241 117.72370927224878 95.46042314293905 0.4952725684818184
1.7866685653774335 12.882965160501927 106.86441302285004 100.10134496775325 0.5053646322957074
1.8080079718225963 12.856719640180891 97.12130068335794 104.99701342077195 0.5158495389594264
1.828720316103211 12.828596625888757 88.36337543995413 110.16395915857846 0.5267498108111698
1.8488011314189605 12.798641602493015 80.49619902025469 115.61971089937565 0.5380884717199355
1.8681898401712076 12.766746303325048 73.41102662895861 121.38464515880419 0.54989550216759
1.8868624013541524 12.732906772693774 67.03430596672 127.48008191362614 0.5622003500517837
1.9047872833901762 12.697104339648652 61.28055079360214 133.92854565137844 0.5750326410318991
1.9219325485009735 12.659301854805843 56.09622775911005 140.75549901296083 0.5884279256908711
1.9382505267524919 12.619424210795296 51.41268023183587 147.98870662061464 0.602424821841103
1.953759969856657 12.577633087058562 47.180758802933205 155.65677381799654 0.6170594993569528
1.9683692336824474 12.533684289712737 43.35329305396575 163.79320371125252 0.6323791059219567
1.9820897895113008 12.487699590961638 39.895325714941876 172.4316197489556 0.6484247504808113
1.994884315290893 12.439637152464707 36.75967186825236 181.61153352145536 0.6652504054625537
2.006717606809105 12.389480378832019 33.91839440383787 191.374794251451 0.6829100328329152
2.0175771010732664 12.337237906232726 31.34007370286307 201.7674013983013 0.7014628206468811
2.0274183372124215 12.282866174441777 29.002406143389464 212.83940469676452 0.720971849260136
2.0362338493112633 12.22641716198403 26.879836200530715 224.64597259321528 0.7415064901137951
2.043984707678088 12.167840024978135 24.951015204205323 237.2485024773637 0.763144737196642
2.0506510410240746 12.107152878241607 23.19700089838891 250.7136061451494 0.785968462785647
2.0562247479230615 12.044401375397133 21.60130854552512 265.1143781349836 0.8100659292084889
2.060684044701119 11.97959219277606 20.149324108395263 280.5327193286604 0.8355374874827614
2.063996746766425 11.912713551798683 18.82784278051242 297.0579264025757 0.8624888469022621
2.0661656598662246 11.843831483633643 17.624976131313947 314.79044918200015 0.8910409014013475
2.06716666269286 11.772957076196494 16.52908757561272 333.83975261928714 0.9213199054691152
