M[M_sun], R[km], Lambda[1], P_c[MeV/fm^3], rho_c[fm^-3]
0.24162668629717493 15.618656898711224 2160425.4255784233 3.5677272577965504 0.1711233750220791
0.25364362992969075 15.27727143933635 1723177.558813298 3.784812622100235 0.17388808600214611
0.2660392154163569 14.981281121026948 1383010.5105878625 4.011386804731427 0.17666648372599247
0.27881381563851704 14.723541538420406 1116492.8225262924 4.247706114970383 0.1794572578960592
0.2919673164951454 14.498483652111457 905937.7168565802 4.494395599368994 0.1822669722483215
0.30550348917024056 14.301212876459465 738646.6969808025 4.751609854426239 0.18509131330003095
0.31941834811484776 14.128174877362136 605135.0212073424 5.020032834576569 0.18793693651975887
0.3337146596383168 13.976022934975795 497715.4266812399 5.299886269349712 0.19080041946999654
0.3483961558614688 13.842067555996898 411030.3303775587 5.591901476057174 0.19368811351035917
0.36345738023672136 13.724040946926472 340685.46045805764 5.896242322262924 0.1965950186601516
0.37891118557439935 13.620033849743344 283324.81053461804 6.2137742875453625 0.19952884514506386
0.3947426633696123 13.52849232070227 236419.92066874728 6.544756966962209 0.2024858101602249
0.4109659860377714 13.447911727806675 197875.4064817371 6.889888402992152 0.20546955138720588
0.42757349872178047 13.377109159715708 166099.38073563942 7.249875587578356 0.20848317746844
0.4445680059444342 13.314958185435383 139820.20412447408 7.624980689025985 0.2115222863583855
0.46194872196036174 13.260594847482597 117995.28478469494 8.016146305725776 0.2145929412273497
0.4797124999551684 13.213177420360655 99828.06543746506 8.424080300831848 0.2176968366528509
0.4978699902679919 13.172021514979606 84654.13393906108 8.849227956569731 0.22083150475150673
0.5164050879122972 13.136434072288047 71946.1454477378 9.292453715718175 0.22400022858767804
0.5353223377971668 13.105870284370122 61283.83572312665 9.754646420478782 0.22720598764239283
0.554628001274762 13.079849693970537 52306.79201911542 10.236615522777551 0.2304501326333424
0.5743098279799227 13.057879025172483 44334.10362218046 10.738838186258016 0.23372943710501537
0.5943640633551137 13.039549402456686 38332.29615195928 11.262547087765364 0.2370499387933102
0.6148012545190621 13.024515723111822 32906.95572305998 11.808685342395284 0.24041332560204398
0.6356016568261772 13.012439980753273 28296.4865327345 12.378231784184164 0.24382123017427787
0.6567729568526554 13.003025305397024 24374.51285024208 12.971883727119298 0.2472716976540263
0.6783033799839597 12.995998830820241 21031.03935595562 13.590951258662258 0.2507693275727127
0.7001906004873552 12.99106737372304 18175.618298711503 14.236639770800396 0.25431684704429647
0.7224227520482607 12.988001797222061 15731.817074227905 14.910138727892218 0.2579162402622745
0.7450096041582509 12.986656017708738 13636.294658035753 15.612487706839882 0.26156750429090975
0.7679284246810959 12.986755954135674 11837.69443384234 16.34493292615026 0.2652723360784289
0.7911726831552408 12.988131763826077 10290.802419156606 17.109099629663316 0.2690355223685884
0.814745689607137 12.990655983310074 8958.019268437438 17.906442568037843 0.27285949515865726
0.8386271721373585 12.99411454088337 7808.791090380579 18.73833698194443 0.2767454258921094
0.8628053576089498 12.998400654594976 6815.920150353499 19.606107180561786 0.2806936169864338
0.8872798090696355 13.003336123423116 5956.489559993328 20.511848166461707 0.2847105150911785
0.912037358975493 13.008849385815289 5212.083644774081 21.45735366741368 0.2887991327596222
0.9370567818403049 13.014727131421122 4566.134240445933 22.444120303222167 0.2929594937619948
0.96233503620603 13.020928879672935 4005.152630538549 23.47414798300295 0.2971951951236127
0.9878585305966545 13.027319074128279 3517.3474803114723 24.54987063458395 0.3015124348402105
1.013598699551924 13.033788353631213 3092.491361825206 25.67324504198966 0.3059129539678261
1.039561433293203 13.040234561008374 2721.9479627936303 26.846202751577565 0.3103977946713113
1.0657116655051662 13.046555243633051 2398.843577149195 28.071853990124815 0.31497579696229444
1.0920412424929216 13.052692990704612 2116.266278274109 29.352269783485028 0.31964751889859544
1.1185374434470765 13.058535309886457 1868.9272724548039 30.690172724353424 0.3244174209366637
1.14516692255321 13.063981173802862 1652.4826082493523 32.088996416770854 0.329293790763407
1.1719295283810474 13.068999250048817 1462.4981158537178 33.55064347056545 0.3342740781006527
1.1987838233863148 13.073456091907573 1295.7141953134903 35.07967350558849 0.3393719686362071
1.225728713953882 13.077324251803402 1149.35541645274 36.678131337837414 0.34458435776943896
1.2527227517008424 13.080486210510442 1020.3976177916787 38.35103361739167 0.3499254683899982
1.2797627056037686 13.082936127267148 906.8928562474647 40.10063790570475 0.355391993311769
1.3068064552572725 13.084520697832945 806.9580035333989 41.93242097185023 0.3609985258361764
1.3338423440495104 13.085240481786597 718.7692306337641 43.84982261220737 0.36674675594511186
1.3608496843738707 13.08503643373902 640.7804624268579 45.85759330765505 0.3726447864185622
1.387779361310475 13.083777355651495 571.9609907991676 47.961033443098664 0.37870239729889377
1.41463386547195 13.081490561982074 510.897555309446 50.16485960862051 0.38492504140023215
1.4413575978043145 13.078041150494789 456.9930488210051 52.47436463622185 0.3913200744691271
1.467950866786651 13.073447285344233 409.1248333322939 54.89592557944335 0.3978989911597191
1.494359713085145 13.06758539737148 366.6341568886172 57.43572971828712 0.4046708481552389
1.5205720207617501 13.060444261452645 328.9247625246539 60.10040221015962 0.4116454118699017
1.546553190999508 13.05196154009155 295.363698781409 62.89704550598182 0.4188332168803445
1.5722689332785433 13.04208759420259 265.53255917603497 65.8332825397829 0.4262456291266943
1.5976930157246763 13.03076265503798 238.98805495765475 68.91730407480748 0.4338949144415592
1.6227801763943344 13.017947009106777 215.29833003241274 72.15792063676741 0.44179431303357236
1.6475318102982033 13.003614719804654 194.1528571271481 75.56461951886665 0.44995812062788015
1.671880870030842 12.98768575757793 175.27938582823109 79.14738030049656 0.45840074512671164
1.6958184298058827 12.970144316070611 158.40928719680082 82.91629930442218 0.4671350685080146
1.7192830160357684 12.950905622618716 143.32137117886208 86.88415282304173 0.4761828206017475
1.742286007702025 12.930005783441086 129.81654124068692 91.06257242664674 0.485558570257307
1.7647655429385731 12.907364300379195 117.71153950084133 95.46552491944817 0.4952837629186507
1.7866932222862308 12.882936115077852 106.85114154245407 100.10679415204481 0.5053763913990024
1.8080323272616183 12.856688606616059 97.11073428066165 105.00283826634806 0.5158619080312167
1.8287444668101205 12.828560782648752 88.3541132632814 110.17019048298422 0.5267628388529216
1.8488250384971785 12.798603916369107 80.48740024858947 115.62640779947445 0.538102305204617
1.8682121344033134 12.766705170963556 73.39886942376984 121.39181981806495 0.5499101071446256
1.8868845431460843 12.73286448641615 67.0271962947107 127.48777460827674 0.5622157892285664
1.9048090661857613 12.69705852674817 61.27386500917092 133.93677218002267 0.5750488827537573
1.9219536440247178 12.659253097124662 56.089869615735815 140.76433488039788 0.5884451413207491
1.9382688704745865 12.619374033898167 51.40697613644315 147.9982047330198 0.6024430919328749
1.9537692714104995 12.577541911194617 47.17564462895536 155.66696100487954 0.6170788050958479
1.9683887340784385 12.533624616952288 43.351546394017205 163.80414169835876 0.6323995381727722
1.9821072486277205 12.487636365618833 39.89070362906835 172.44340923281345 0.6484465184737194
1.9949000424405592 12.439571690640902 36.75537094019725 181.62421723489433 0.6652735090224524
2.0067390852896354 12.389423903637823 33.911517598610416 191.38845454892603 0.6829345901135166
2.017591307792241 12.337162264459948 31.337400490200462 201.78212912562532 0.7014889609101108
2.0274309199326925 12.28278901244037 28.999145095478625 212.85526304335818 0.7209995924887269
2.0362459410811624 12.226335905715045 26.877520231891133 224.6631083183207 0.7415361096225837
2.043995608134347 12.167754940710608 24.949168443221758 237.26699905103675 0.7631762755538788
2.0506603597373845 12.107063490167869 23.194479941695615 250.73363733183825 0.786002230838577
2.0562371763864546 12.04433222010121 21.598883468203223 265.1360530052043 0.8101019974518195
2.06068977330278 11.979495970033545 20.146991516784304 280.55616041227506 0.8355759363157539
2.0640007391672976 11.912613832326397 18.8263227799541 297.0833580811607 0.8625300507784465
2.0661676534793396 11.843727028105109 17.623379714580178 314.8180756381453 0.8910851259239302
2.067167178926546 11.77284824081554 16.52755867561608 333.86975603554635 0.9213672934684407
