M[M_sun], R[km], Lambda[1], P_c[MeV/fm^3], rho_c[fm^-3]
0.24162668629717493 15.618656898711224 2160425.4255784233 3.5677272577965504 0.1711233750220791
0.25363973464085304 15.277421709712838 1723300.9018260036 3.7847586768064736 0.17388741360008345
0.26603278144382414 14.981435707378536 1383163.3170702686 4.011273402275512 0.1766651133242383
0.2788038192535753 14.723731957052523 1116601.6621938809 4.2475294201273455 0.1794552085021534
0.2919548124578558 14.498634527853458 906119.3093719688 4.494150976935352 0.182264248320749
0.305485701584428 14.301466987800481 738870.0011641269 4.751288999968619 0.18508784745952872
0.31939707582340787 14.128431803521527 605269.7785750768 5.019633386084002 0.18793279208747554
0.33369154743793145 13.976240799518363 497870.9991561276 5.2993977123773295 0.19079550051194724
0.3483679584627839 13.842293809670583 411180.40523987036 5.5913225923262475 0.19368251265101702
0.36342495882556075 13.724270592585263 340812.1864964014 5.895560108670812 0.1965886111657227
0.3788721587093375 13.620290861850444 283450.79720355605 6.21298049059901 0.19952160667270685
0.39470036511046347 13.528707989052316 236528.88151491247 6.543852412345427 0.20247787843822918
0.4109189146507847 13.448140523184415 197994.65257061936 6.888855631436067 0.2054607558712485
0.4275195247130841 13.37733875490069 166207.0795331808 7.248704910431557 0.20847349275642338
0.4445093657427285 13.315171377031811 139897.4635683583 7.6236753433167 0.21151189496720504
0.46188356295424426 13.260787762579442 118063.857639759 8.014683527242376 0.214581625453175
0.4796411405357006 13.213362575261726 99882.80177742594 8.422448686374047 0.2176845691930834
0.4977923052400867 13.172169692640333 84711.58474413663 8.847433523299104 0.22081851228792504
0.5163231400219999 13.136572700033172 71998.23509271354 9.290467429586974 0.2239862450094839
0.5352337790429406 13.106001711708853 61328.94938823433 9.752454817960396 0.22719098277146915
0.554533980377977 13.079958599677857 52348.65969764685 10.234204322423345 0.2304340749795957
0.5742059966042851 13.057951854066397 44770.74320511536 10.736217865298544 0.23371261383278172
0.5942584900568106 13.03964833022545 38362.86948236384 11.25967824828045 0.23703201423229306
0.614685304915229 13.024593330744628 32935.06062971366 11.805551041827421 0.24039426382512635
0.6354791984706396 13.012497928086848 28323.125043785563 12.374814023193245 0.2438009933578426
0.6566425611393468 13.003094539647474 24396.553783352414 12.968198200262858 0.2472506326938363
0.6781664681499349 12.996024364072225 21050.869189868677 13.586945641933148 0.25074702537193394
0.7000454001675446 12.991093112987793 18192.73884615755 14.23229259344331 0.2542932633949702
0.7222706570968848 12.988021800829443 15747.142443401068 14.905427139895053 0.257891328320487
0.744849141540639 12.986655605440067 13650.31004678827 15.607433351727643 0.2615416697802622
0.7677595696777952 12.986758582955716 11849.870372164996 16.339467373361376 0.26524509166858434
0.7909956640801739 12.988112330633754 10232.902008789053 17.10319545749133 0.2690068123786365
0.814559707659009 12.99064157079477 8968.109349025823 17.90007053711617 0.27282926032755594
0.8384330016597917 12.994093914144601 7817.096236659339 18.731525351285764 0.2767141299736652
0.8626045217223428 12.998358455601027 6823.457777620106 19.598767404792742 0.28066068804151245
0.8870695743900896 13.003304910770204 5963.440216386797 20.50394493105242 0.284675881888199
0.9118203213223148 13.008790637894679 5218.136983451474 21.44884924006897 0.2887627192645037
0.9368304711850004 13.014670024684223 4571.55999242326 22.435050104518734 0.29292182132036876
0.9620994261716653 13.020869865626963 4010.150208141303 23.46439821954542 0.2971555984372747
0.987612500686539 13.027267117449545 3521.5398050626723 24.539395430817184 0.30147082182845786
1.013351224113665 13.033729433984341 3096.674585028517 25.662084938307707 0.3058698849784028
1.0393007152514437 13.040170192189237 2725.4884154451515 26.834221353088818 0.3103525311053058
1.065445224590434 13.046505395340711 2401.8729771308344 28.058995232073674 0.3149282268248467
1.0917641920955745 13.052633047440104 2118.930387471208 29.338579229728825 0.31959824131111597
1.1182525668878585 13.05846793312211 1871.49135809015 30.675486973976355 0.3243656160005957
1.144874299408178 13.06392709161279 1654.6158360621887 32.073333594743445 0.3292398844830424
1.1716281953539178 13.068944600101352 1464.3708966222857 33.53387985236796 0.3342175829789258
1.1984751830048541 13.07341182351472 1297.5207371619879 35.061700205167575 0.3393125358042879
1.2254124316696668 13.077285454279812 1150.8854323860176 36.659000498833066 0.3445226446442012
1.2524012188809275 13.08045184645932 1021.959613802776 38.330525204300294 0.3498605022332159
1.2794341534343079 13.08290070152825 908.2521935633512 40.07880536520063 0.3553244507252298
1.3064701476946663 13.08450743418877 808.1209557812431 41.90917408810802 0.3609282469847363
1.333498631671556 13.08522914522387 719.8464190346311 43.824900843003036 0.3666726755584466
1.3605010289690433 13.085044267147385 641.7965396234687 45.831048856650455 0.37256759876083195
1.387425107059843 13.083799422913666 572.7985817094127 47.93275297186924 0.3786219019486401
1.414273985895797 13.08153099658158 511.7148898039915 50.134533130752985 0.38484006326720044
1.440999769997665 13.078113469479222 457.6596577058892 52.44204027842402 0.3912313238935045
1.4675820590345572 13.073519518811269 409.7488999152694 54.86146026685864 0.3978062167366924
1.4939866077185153 13.067679821921761 367.19588766855026 57.398968789454344 0.40457377904962943
1.5201947242733918 13.060559351335034 329.43047990848305 60.061178379896035 0.4115437562209865
1.5461746264451128 13.052097865219737 295.83097940466774 62.855177724807774 0.4187266600486204
1.5718889017102506 13.042247378970634 265.9718974360746 65.78857473837046 0.4261338317656339
1.5973046858491684 13.030934810098564 239.35671139640618 68.86954378053115 0.43377751037540685
1.6223971354775708 13.01815549115812 215.6440626369637 72.10687744785216 0.44167090691998023
1.6471478458490694 13.00384989996953 194.4661335993954 75.5100434198254 0.4498282853816226
1.6715028379184491 12.987954079765757 175.56631746147139 79.0892469044191 0.4582650510013069
1.6954375495393263 12.970441314127015 158.67373601916304 82.85411752086912 0.46699217495051243
1.7189020051492858 12.95122694770179 143.55803643416533 86.81756496274076 0.47603203186001636
1.7419167753242897 12.930389731841244 130.03669446567528 90.99155076752356 0.4854005732078909
1.764396160743571 12.907772637948948 117.90853416943446 95.38938560346965 0.49511669625831073
1.7863240586254712 12.883371515467857 107.03010749833518 100.02547089238732 0.5052008993327712
1.8076670344836367 12.857151421825382 97.27038138522897 104.91590954380878 0.5156773147066948
1.828395353269094 12.829097861704033 88.50221820849367 110.07686732630148 0.5265671878040951
1.8484733670763849 12.799151216283079 80.61956080960046 115.52646700607079 0.5378958620123615
1.8678692225996478 12.767300132956285 73.52396782962875 121.28475040731531 0.5496921530609011
1.8865496229304384 12.73350526281402 67.13703011601905 127.3729757344979 0.5619853888048885
1.904483963279928 12.69773853897252 61.37694431840427 133.81400812547142 0.5748065083921725
1.9216396917407048 12.659982303491644 56.182764871876564 140.63247931589896 0.5881882365389681
1.9379714686527907 12.62017988845314 51.48900312008744 147.85646844161226 0.6021704551245324
1.95347198919536 12.578343479815926 47.25491222099102 155.5149437271377 0.6167907171373831
1.9681121835889896 12.534500298243529 43.42375435524009 163.64052163531622 0.6320932860640512
1.9818469254765672 12.488567987872244 39.95572038285316 172.2674864402335 0.6481216962722207
1.9946510955780372 12.440548860022638 36.815070212120176 181.43495322179808 0.6649287619983034
2.0065043525377506 12.390445732580005 33.96964022849364 191.1846209058749 0.6825681559287867
2.0173786072958966 12.33825429385794 31.38806669493901 201.56237081484355 0.701098911585843
2.027237486349702 12.283939052876908 29.04652071220322 212.6186374906854 0.7205856302411829
2.036072007885669 12.227543228457394 26.920050947779835 224.40742663731223 0.741094157750043
2.043841975965351 12.169023904071302 24.98788360975986 236.9910162205991 0.7627056994757679
2.0505285318411097 12.108392762697223 23.230664640097245 250.43476180649566 0.7854983942603448
2.056122835721281 12.045691220413227 21.632365412216537 264.8126580065183 0.8095638493851526
2.060604081028164 11.980939210887408 20.178589325265328 280.2059973390741 0.8350009029547701
2.0639461697952135 11.914133403078761 18.85409135847123 296.7039228528728 0.8619152977209927
2.0661324599467257 11.845295270722623 17.64937276474149 314.4059021569349 0.8904253172487968
2.0671566340435676 11.77448246836791 16.551527437875844 333.4221273267427 0.9206602996792144
