M[M_sun], R[km], Lambda[1], P_c[MeV/fm^3], rho_c[fm^-3]
0.24162668629717493 15.618656898711224 2160425.4255784233 3.5677272577965504 0.1711233750220791
0.2536446899106298 15.27727736360486 1723172.2276777083 3.7848327900365404 0.17388833738574283
0.26604035309854823 14.981277142645341 1382997.0861004167 4.011429201854885 0.17666699607020842
0.27881660315392354 14.72348601299768 1116409.6288664404 4.247772175740736 0.17945802410144385
0.2919723786301696 14.498390783312091 905866.4372042284 4.494487057373434 0.18226799065442725
0.3055087789191128 14.301179128143389 725400.2198591148 4.751729815204512 0.1850926091053849
0.31942562410002934 14.128111561448705 605089.1326296523 5.020182181895 0.18793848605583036
0.3337261744934293 13.975873347271795 497661.58759233396 5.300068935246067 0.1908022586124753
0.34840700393521173 13.841976994415674 410975.38929245446 5.592117916710138 0.19369020763321734
0.36347055617357954 13.723932196709363 340635.50720621966 5.8964974004636135 0.19659741440859277
0.3789252254821626 13.619948686809032 283272.27480300475 6.2140710902444285 0.19953155162830563
0.3947580220204757 13.528413277429381 236388.71910952812 6.545095186109125 0.20248877588523168
0.41098441648369916 13.447819728865955 197838.62587769653 6.890274568074617 0.20547284013109607
0.42759220778787427 13.377037593907199 166066.9342641869 7.250313322484737 0.20848679873713863
0.44458977297931784 13.314884233564763 139781.16281088386 7.625468784000956 0.2115261719082303
0.46197236735471314 13.260527495375088 117968.05296856014 8.016693274549366 0.21459717247340548
0.4797383080437228 13.213154509127257 99803.96778245067 8.424690408873515 0.21770142381240884
0.49789683232609794 13.17195634516505 84631.83386945714 8.84989895434799 0.22083636306211663
0.5164362299063933 13.136369867903387 71928.74406302994 9.29319646237467 0.22400545757044463
0.5353561354955338 13.10581540537302 61266.42578528111 9.755465952252226 0.22721159859071727
0.5546641163522288 13.079792631273762 52299.05703282232 10.237517181939632 0.23045613733162346
0.574348208410274 13.057817366634401 44320.6732787037 10.73981805514285 0.2337357281667814
0.5944058207145277 13.039507729163892 37988.575715421975 11.263619902614893 0.23705664175990404
0.61484497068992 13.024491860131338 32895.72147327552 11.809857441170623 0.24042045391820166
0.6356503438935436 13.012419162314977 28286.429411941313 12.37950990026786 0.24382879799444945
0.6568222719581598 13.00302056489806 24366.11042931827 12.97326199118128 0.2472795752462208
0.6783554851523442 12.995982763137388 21024.018915584347 13.59244924296258 0.25077766794796286
0.7002446678380128 12.991058915115975 18168.947597102917 14.238265507653024 0.2543256667460661
0.7224810335808525 12.987995378601184 15726.1469326846 14.911900765717883 0.257925556820464
0.7450699608785866 12.986639235437893 13631.235834482815 15.61437795068663 0.26157716596360603
0.7679917979930025 12.986762461143798 11833.827537402336 16.346976974688502 0.265282525147727
0.7912392832141021 12.988143475959756 10286.579143289167 17.11130774202796 0.2690462596712881
0.8148131538951423 12.990668164207433 8954.13738588721 17.90882568355176 0.2728708028713699
0.8386981406915365 12.994143699552897 7805.903737146755 18.740884530373794 0.27675713055900536
0.8628806262765386 12.998417369452518 6812.733721449107 19.608852287318157 0.2807059325492014
0.8873639439619734 13.003366255783511 5954.002812815351 20.514804044295413 0.2847234682061619
0.9121207345616194 13.008852558148654 5209.8595135495425 21.46053443387893 0.28881275188051786
0.9371418411370208 13.014749078789269 4564.229733963138 22.447512708141517 0.29297358388068734
0.9624276903005246 13.02097003280396 4003.560342236213 23.47779460007899 0.297210005119074
0.9879497869584277 13.027348716680532 3515.596659048164 24.553788628892747 0.30152799917164014
1.0136927161475346 13.033804397695809 3091.315899966023 25.677419247159946 0.30592906302948475
1.0396591052561053 13.040263107883657 2720.754051994124 26.850684199855337 0.31041472477593235
1.0658120142696694 13.046585846164035 2397.5827506706873 28.076663659955873 0.31499359002240424
1.092145394998084 13.052717931865944 2115.119100591598 29.357390628125252 0.31966595079508564
1.118645906767089 13.05854898960457 1867.9542563041985 30.6956658835871 0.32443679841180834
1.1452773725047916 13.064001689284225 1651.6735528357021 32.09484396160369 0.3293138823514926
1.172042191134689 13.06901601464052 1461.6208888317572 33.556913994335254 0.334295210412275
1.1988988512971264 13.073472315886834 1295.056543103428 35.08639660502834 0.3393942001034183
1.2258460833546505 13.077341739571084 1148.7102992426144 36.685287502496564 0.3446074424488789
1.2528429114735378 13.080497021489133 1019.862421643827 38.35866678349702 0.34994954496991515
1.2798869891484934 13.082944196699188 906.4255614917225 40.10880487848037 0.35541725919712747
1.3069319586763548 13.084525062336096 806.5494341430123 41.94111710933359 0.3610248155772477
1.333969651375293 13.085236396097102 718.3917563535406 43.859145415912565 0.36677446813912273
1.3609795137160339 13.085032890506213 640.4357026725309 45.86752324262062 0.3726736613205624
1.3879121304729776 13.083770571383642 571.6373565247949 47.971612924429344 0.37873250991789176
1.4147620492509816 13.081463177644407 510.6848897103879 50.176204647863806 0.384956831450441
1.4414930739814718 13.07802382253805 456.733568730334 52.48645722287441 0.39135327618137433
1.4680889081006714 13.073422730693437 408.89732149222357 54.90881926000942 0.39793369862892514
1.494498741509155 13.067551945719247 366.4238124928323 57.44948237669988 0.4047071627504972
1.5207114260744325 13.060402683297283 328.7314171638424 60.115076456133416 0.411683442831865
1.5466951010162127 13.051911958461762 295.1942341285227 62.912709102113986 0.41887308197781203
1.572411355665876 13.042027372423528 265.37758941083365 65.85000887172355 0.42628745537876006
1.5978255626326245 13.030688853749664 238.83849986584494 68.93517266933564 0.4339388389124156
1.6229234986836591 13.017865987503606 215.16614501395372 72.1770177332106 0.44184048370791756
1.6476754215859166 13.003525465357587 194.0344481073366 75.58503869997256 0.45000669737583093
1.6720239815572946 12.987589812899467 175.17739234354144 79.16911656362068 0.4584514555799012
1.695962054068804 12.970029176876539 158.31776495788455 82.93956472862592 0.4671885323850749
1.719441324707951 12.95081467366134 143.23335836116934 86.90906717684271 0.4762392393550114
1.7424169008104209 12.929839284262247 129.74578442119636 91.08914608029691 0.4856176868552683
1.7649046006479838 12.907216146300806 117.6398566094509 95.49401387612788 0.49534627405088094
1.7868321890864645 12.882775278415334 106.79334109308496 100.13722321819718 0.5054420560036316
1.8081695539793068 12.856511760701665 97.05598605900215 105.03536523752187 0.5159309791226835
1.8288778554112273 12.828371165002132 88.30154576222114 110.20498747625646 0.5268355901095835
1.8489564599135664 12.798395600947822 80.43769986188596 115.66380488117193 0.5381795546706633
1.8683315737332646 12.766452310656744 73.36151659612814 121.43188503155353 0.5499916652370256
1.8870094723993056 12.73262707528881 66.98816280677829 127.53066765671834 0.5623017730954957
1.9049310974997993 12.696803762230834 61.2363944636452 133.98271178927396 0.5751395818065415
1.9220702853206175 12.658979560597 56.055975868191354 140.81367752221465 0.5885412795510665
1.9383827534183427 12.619084597549245 51.37374757275332 148.05124590559856 0.6025451192672931
1.9538777658747497 12.577234844329556 47.14878651522996 155.72385055344222 0.6171866164850982
1.9684918409235317 12.53329573147026 43.32554319693054 163.8652243835897 0.632513641136416
1.9822057850476034 12.487287750135746 39.86765253153368 172.50924749766048 0.6485680816311524
1.9949908480316683 12.439201557589605 36.73171466805882 181.69504975580304 0.6654025314414361
2.0068255168418623 12.389035691478442 33.891845557809496 191.46474131934082 0.6830717317556135
2.017669798212368 12.336753022100053 31.31755213537759 201.86437757301942 0.701634943791095
2.027503617561834 12.282363216989998 28.982695494115585 212.9438261084768 0.7211545282725921
2.036310462473262 12.225885382568553 26.860391442863175 224.75880576374894 0.7417015249352393
2.044052265363085 12.167284364681471 24.934920860001572 237.3702971065627 0.7633524082276715
2.050709645180945 12.106567732098073 23.181150027806236 250.84530381769707 0.7861901568227445
2.0562792116671025 12.043811843591925 21.587537062538967 265.25710277763 0.8103034313059794
2.060721549246071 11.978955036991781 20.13576612679966 280.68707508561636 0.8357906668501569
2.0640236536507057 11.912051881526644 18.814314982031675 297.22539106050505 0.8627601696546118
2.066180918507203 11.843141151698621 17.613630677536232 314.9723674987464 0.8913321168458792
2.0671712503249795 11.77223847593156 16.518844974369806 334.0373244495001 0.9216319543930102
