M[M_sun], R[km], Lambda[1], P_c[MeV/fm^3], rho_c[fm^-3]
0.24162668629717493 15.618656898711224 2160425.4255784233 3.5677272577965504 0.1711233750220791
0.25364502941689154 15.277268619672723 1723269.6097670346 3.7848392000990487 0.17388841728407967
0.2660417575789077 14.981226151678655 1382961.3713754613 4.011442677183319 0.17666715891159993
0.27881785800237213 14.72347441165289 1116467.3060278199 4.247793172326999 0.1794582676302033
0.29197370580130555 14.49835027231478 905842.9926832828 4.494516126287949 0.1822683143435369
0.3055107917567418 14.301150986257129 738600.9486257221 4.751767943591542 0.18509302096473393
0.31942828615944124 14.128079593335869 605013.7311637008 5.020229650726433 0.18793897856327776
0.33372617855777176 13.975953795491547 497635.73354973615 5.300126994385879 0.19080284317167567
0.34841047051119955 13.841947561288697 410957.4529099244 5.592186711228981 0.19369087323911188
0.36347483114069773 13.72390528357795 340617.85152505204 5.896578476090291 0.19659817588803596
0.3789284299763248 13.619956029317931 283258.1580832304 6.214165428266887 0.19953241187748008
0.394763462814033 13.528372395846182 236370.72682688394 6.545202688691191 0.20248971853764752
0.41099015254114096 13.447796651660278 197834.76732207995 6.890397310760374 0.20547388545931494
0.4276011680866111 13.376987919137825 166054.35686253005 7.250452457263921 0.20848794976350965
0.4445969332509787 13.314864987856415 139769.57978842012 7.625623926421685 0.21152740694165556
0.4619801444598765 13.260533191776267 117960.02341888772 8.016867130944973 0.21459851739318236
0.47974558458063415 13.21310772618445 99776.59492816175 8.424884335173354 0.21770288186707965
0.4979061450694679 13.171926003756564 84623.53626454492 8.85011223559983 0.22083790730950803
0.5164458328562866 13.136355086087162 71921.2407632429 9.293432550499558 0.22400711964556222
0.5353660773827708 13.105803590224465 61261.13611801539 9.75572644825638 0.2272133820842503
0.5546747561114733 13.079791637482609 52292.78316065528 10.23780275387728 0.2304580327433581
0.5743601086153919 13.057806183500219 44718.5837420216 10.740129518265855 0.23373772785651029
0.5944194951726418 13.039504984512254 38318.90665101186 11.263960911154062 0.23705877238742776
0.6148596140347599 13.024468243009379 32893.33674959806 11.81023000998465 0.2404227197582083
0.6356646982196497 13.012413687042676 28283.14532441549 12.379916169931894 0.2438312035472766
0.6568375339778532 13.002999483608136 24364.344276316282 12.973700096018144 0.24728207927381496
0.6783712425263246 12.99597968786533 21022.38860126058 13.592925404900637 0.25078031909006254
0.7002620560090865 12.99104697099903 18166.393420143366 14.238782280239361 0.25432847026256805
0.7224996316558363 12.988003792780642 15724.388738929098 14.912460866588189 0.25792851828489693
0.7450891899959471 12.986639757216832 13629.719962800227 15.614978806608297 0.26158023714051415
0.7680115168801744 12.986756740754727 11832.45419549506 16.347626723540845 0.2652857639827933
0.7912586252835806 12.988144566204824 10286.441070764848 17.112009645346603 0.26904967278944225
0.8148370961251682 12.990675798494488 8953.315125314166 17.909583219132383 0.2728743973235335
0.8387216326878666 12.994139271021554 7805.07456845887 18.74169433802373 0.27676085120615107
0.8629049088843397 12.99841816028678 6811.706037743959 19.60972489793023 0.28070984740269106
0.8873890913643582 13.003375498011751 5953.230298225834 20.51574365848646 0.2847275857412365
0.9121468029505125 13.008870125216726 5209.317109680529 21.461545539946133 0.2888170811438945
0.9371688785185003 13.014764899837955 4563.579862141669 22.448591093825815 0.2929780628808802
0.9624545559485393 13.020968813227618 4002.9729220784216 23.478953800301277 0.29721471297560864
0.9879778761603055 13.027352926576375 3515.121175963234 24.555034100909776 0.30153294684071047
1.0137228689181577 13.033804986055934 3090.593560876321 25.6787461694405 0.3059341838781162
1.0396896476413244 13.040266337074392 2720.3383795480686 26.85210879673604 0.3104201066464211
1.0658432661651518 13.046600713461608 2397.187668284568 28.07819260117472 0.31499924624080733
1.0921779763830766 13.052727083539473 2114.719166372487 29.35901849424102 0.31967181011358753
1.1186788165905521 13.058555971312414 1867.6150040145062 30.697412112724386 0.32444295834824294
1.1453124049306094 13.06401119622675 1651.3541197683085 32.09670285375473 0.32932026932183006
1.1720778108012966 13.069018813662984 1461.4032799651457 33.558907357604774 0.33430192825201765
1.1989354688752856 13.073485337793327 1294.8386582329372 35.088533849450116 0.3394012673913129
1.2258841212212392 13.077341265959175 1148.5293246198223 36.68756242514604 0.34461478099719567
1.252881986631359 13.08050167538227 1019.6995013279333 38.36108861811528 0.34995717109495517
1.2799262235925641 13.082940088437518 906.2828702861576 40.11140115647905 0.35542529121389493
1.3069713587478844 13.084529386909319 806.4021065359607 41.94388161962725 0.3610331731106869
1.3340109014361812 13.085237285998979 718.2775151938556 43.86210915871659 0.3667832779154712
1.3610209741436814 13.085033204968042 640.3220805238345 45.87068000698373 0.3726828407625163
1.3879538294663003 13.08376679253272 571.5408462739971 47.97497619617695 0.3787420828749732
1.4148046256986242 13.081461361754183 510.5728786394184 50.179811313173005 0.3849669377241002
1.4415364269782267 13.078015028735773 456.66968830302216 52.49030155534849 0.3913638312780013
1.4681326016089082 13.073413011827707 408.8128219883945 54.91291828503033 0.39794473246708784
1.4945430292934694 13.067539506406375 366.34213027798415 57.453854498881334 0.4047187075618837
1.5207555440462557 13.06039089153568 328.6956478792009 60.1197415828217 0.41169553335126563
1.5467395376803867 13.051896863088178 295.14265051345905 62.91768877921459 0.4188857556519349
1.5724567614135794 13.042009579871365 265.3336347043143 65.85532643322497 0.4263007525958979
1.5978706734991965 13.030666859018837 238.7914807372621 68.9408534020704 0.4339528032552215
1.6229685302505001 13.01784476195918 215.12717461862243 72.18308905858183 0.4418551622318174
1.6477213194572895 13.003496204080811 193.98649670067633 75.59153037459005 0.4500221409159042
1.6720695881234342 12.9875545583984 175.14335209034044 79.1760269961392 0.45846757753990647
1.6960063606763152 12.969993528781739 158.28301481750566 82.94696135517329 0.4672055298113383
1.7194851513554592 12.950777743173198 143.20264123389995 86.91698808123516 0.4762571763063012
1.7424672819876277 12.929822376557262 129.70919386932624 91.09759455925382 0.4856364816111741
1.7649494395140894 12.9071684894894 117.60566101194135 95.50307133466015 0.49536614813733293
1.78687575042594 12.882726647489058 106.7662617734684 100.1468975434422 0.5054629327778015
1.8082123417589504 12.8564557026381 97.03397743202873 105.04570660591577 0.5159529390401443
1.8289254210922663 12.828321619217565 88.2865934173076 110.21605061873879 0.5268587201976322
1.8489981660335983 12.798329731835251 80.42306331306978 115.6756947573733 0.5382041150520144
1.8683710041505968 12.76638327747244 73.34570697697407 121.44462327774157 0.5500175956382181
1.8870472245255336 12.732552743820147 66.97119994697968 127.54427736437914 0.5623290118478471
1.9049687417280363 12.696723472694323 61.224825992823526 133.99731789718905 0.575168418798722
1.9221073311949837 12.658893281663904 56.044483374923786 140.829365697268 0.5885718460819819
1.9384186810837365 12.618992174505854 51.364939560128505 148.06811011773505 0.6025775584183845
1.953911869451362 12.57713308253468 47.14041261544755 155.74193845196834 0.6172208948634293
1.9685251348234603 12.53319338871751 43.31925347810035 163.88464560499764 0.6325499201394076
1.9822357599451785 12.487179248861066 39.858231844831806 172.53018090883242 0.6486067328860695
1.9948360066268187 12.439594466507527 36.76259771827438 181.80537199590498 0.9018902123659432
1.9959100720675247 12.400587828120734 35.49379039321272 194.599265510373 2.0837295245992222
