M[M_sun], R[km], Lambda[1], P_c[MeV/fm^3], rho_c[fm^-3]
0.24162668629717493 15.618656898711224 2160425.4255784233 3.5677272577965504 0.1711233750220791
0.25364180881221693 15.277385800561275 1723125.003669334 3.7847996099910763 0.1738879238124827
0.26603800190793486 14.98128338168377 1383047.6635039318 4.0113594507890555 0.17666615316974213
0.27881181861782073 14.723563699292546 1116479.5004956007 4.24766349387957 0.1794567635556344
0.2919646384498234 14.498490673200248 905943.6443608373 4.4943365928350065 0.18226631519687087
0.3054984279079068 14.301317594728534 738771.1157099563 4.751532459038441 0.1850904772821314
0.3194132952029438 14.128234082113169 605202.9206966485 5.019936480343893 0.18793593680740553
0.33371063877856105 13.976012374575683 497729.73536631017 5.2997684196916 0.19079923291948728
0.34838924127942095 13.842125368286656 411067.4549477162 5.5917618368589475 0.1936867624627029
0.36344985352674647 13.724094474353802 340704.1145170698 5.896077756533196 0.1965934730239922
0.37890228268354453 13.620082579222988 283353.3257161209 6.21358280399853 0.19952709904567795
0.3947315165497151 13.52854391972997 236445.85340441612 6.544538764533342 0.20248389681970078
0.4109547967225872 13.447957990621402 197905.62676983787 6.889639269564896 0.2054674296623946
0.42756159054573445 13.377127770899822 166112.98287252238 7.249593185554305 0.20848084122886845
0.44455454574613756 13.31499478095828 139839.45162753903 7.6246657990509155 0.21151977963171034
0.461932585051968 13.260646408939811 118011.40356515994 8.015793435728314 0.21459021149263618
0.479695184503945 13.213259751082912 99840.23709285333 8.423686699476852 0.21769387732090592
0.4978496038457289 13.172053368279851 84667.28410911906 8.84879507522116 0.22082837050558712
0.5163853893275795 13.136467925841911 71958.48819384017 9.291974549488948 0.22399685522755178
0.5353015854701066 13.105895024994638 61293.79918948093 9.754117720850823 0.2272023678848828
0.554605693448664 13.079858517900611 52316.50485662619 10.236033843855001 0.2304462588786319
0.5742855075549707 13.057893789678452 44742.614765079365 10.738206055481394 0.23372537862961984
0.5943388465067724 13.039561720773989 38340.434657666854 11.261854999503651 0.23704561461332677
0.6147743494396348 13.024525440613681 32913.93033532795 11.807929208579727 0.24040872704686397
0.6355715842527798 13.012457899797802 28303.365347534036 12.377407261721338 0.24381634811559347
0.656740771328151 13.003065635526509 24380.472591297163 12.970994602316578 0.24726661578125672
0.678270512687634 12.995999027806487 21035.989861466816 13.589984906754584 0.2507639471841919
0.7001557215634442 12.991076600868368 18179.82178291214 14.235591010960512 0.2543111574709804
0.7223860635559888 12.988007093456622 15735.356988591238 14.909002046439735 0.2579102301989599
0.7449707908986449 12.986657058433504 13639.921905299123 15.611268325579834 0.26156127162275594
0.7678876777085684 12.986765403117937 11840.480426246953 16.34361433354554 0.26526576322500883
0.7911290494053683 12.988131794121271 10292.960342274942 17.107675208747732 0.2690285958920253
0.8147010015744304 12.99065062438935 8960.453092198693 17.904905263180932 0.27285220075703376
0.8385783564580552 12.99411555981414 7810.425708817538 18.73669361138899 0.2767378754547099
0.8627573906018526 12.998379810270022 6817.729033923861 19.60433637852581 0.2806856725144848
0.8872290325680694 13.003327944850065 5958.475642997347 20.50994141115448 0.28470215939377513
0.9119866072760757 13.008825689302466 5213.701097476181 21.455301853536223 0.28879034748677757
0.937003563328321 13.014709023492813 4567.45772105052 22.441931977354137 0.2929504047021828
0.9622784270221911 13.020912264395823 4006.6397094450235 23.471795686065295 0.2971856417468134
0.987799458496912 13.027310193293864 3518.3236705672707 24.547343295946295 0.3015023949235871
1.0135393136212727 13.03376255849775 3093.7848357992116 25.67055244392906 0.3059025627133451
1.0394980398622373 13.040223804071127 2722.8858014992525 26.84331198019874 0.31038687385758196
1.0656486372489016 13.046558832159041 2399.4492612690556 28.068751515626154 0.31496431956006454
1.091974150108866 13.052682032875394 2116.8896959478157 29.348966600671197 0.3196356294686302
1.1184697419471397 13.058513222344908 1869.599226637505 30.686629401272487 0.3244049216348941
1.1450967794399862 13.063965338976773 1652.9779312291387 32.085224517046925 0.32928083088747273
1.1718569896611375 13.068986628495018 1462.9522930141593 33.54659875579874 0.33426044699486135
1.1987091497068463 13.073441933413632 1296.1613249567774 35.07533688837031 0.33935762861872615
1.2256013363460059 13.077283249578251 1149.873557128044 36.5670896974371 0.35366796573168674
1.2489008902509984 13.077123783922183 1035.4519860522287 38.44229813847772 0.49904403310065765
1.2677210270246893 13.069165964056827 947.230741674264 40.41054951888076 0.6203680654473693
1.2830806476277719 13.0534476499648 875.5881746574131 42.58877530033328 0.7364807790874346
1.295643428841075 13.03016665361371 815.2470737069004 44.97930969621388 0.8483033530539801
1.3059921355690347 12.999856368063883 763.1044192148391 47.58791840852379 0.9558586928846577
1.3145267242360223 12.962838480439352 716.5715843039217 50.41948945381655 1.0597315471464401
1.3216090751105585 12.919656892266444 674.3438487817403 53.48047589104909 1.1605275270754551
1.3275508972768373 12.870760718224089 635.285710552536 56.777974934553825 1.2585768031761682
1.3325790298010327 12.816566532641529 598.5351013453757 60.319714636459615 1.3539546769583375
1.3369027976242542 12.757433855042775 563.686458327142 64.11390843109847 1.4466730280180082
1.3406975457630905 12.693786595083008 530.4650532989156 68.17151544524336 1.5397181655702181
1.3440666636529166 12.625992032116542 498.60470947119666 72.50629175308937 1.6337445902506742
1.3471083102820098 12.554359118514059 468.0297995257044 77.13141624367601 1.7292167344329294
1.3499206937218882 12.479271278347676 438.6053218063864 82.06418799586797 1.8269784359718886
1.3525496260500731 12.401028998749785 410.39448542936964 87.32202805152502 1.928211563798284
1.3550303298975377 12.319883831059823 383.4273113150164 92.92697339385369 2.0352265237652993
1.357411912618575 12.23630639666873 357.68608615846875 98.90327811777716 2.1532539942122035
1.3596188382684529 12.150561805226106 333.3368354847905 105.28578265231161 2.2984548808264083
1.3615300425313654 12.063503662275563 310.68867169776354 112.13901709205622 2.4883809817610874
1.3632324187715399 11.973317800768664 289.0592695743031 119.42860387522795 2.5420842126381578
1.3651404982125122 11.879934357597513 267.9734547350917 127.12452126412559 2.5981416240830146
1.367366543962213 11.784206359462893 247.65088164105188 135.25585618502075 2.6568539664447983
1.3699378682085066 11.68691494101305 228.16769868014862 143.8504493234244 2.718442518631893
1.3728580068528857 11.58858696552153 209.65761661868646 152.9441631850612 2.783117041095062
1.376106764377475 11.489632904479272 192.22785386923198 162.57354942195255 2.851071628680569
1.3796258113005249 11.390331667058286 175.89882169302595 172.77829531514217 2.9225142897992176
1.3833712183690547 11.291017591502008 160.72712698791062 183.6026041043883 2.997677788674485
1.387272708644511 11.191805720827372 146.7093329282505 195.09129108956557 3.07678215723019
1.3912785839545199 11.092943827386222 133.8033055118082 207.29965601627816 3.1601226421986244
1.395312846176612 10.994462856793902 121.9809062416829 220.2825505804906 3.2479673529472444
1.3993027102908635 10.896447975984843 111.18552627584965 234.10146083141515 3.340618976291521
1.4031736448019192 10.79892362997783 101.370323737024 248.82498351497154 3.438416367756991
1.4068822631896478 10.701979780814984 92.45936072706635 264.52943111958723 3.541736898782196
1.410342808074881 10.605590699457101 84.39685486961773 281.29422587173747 3.6509480083759103
1.4134930855282903 10.509701335561267 77.1079913611144 299.2115363517416 3.766494054718274
1.4162804066145496 10.4143334152739 70.52700978092977 318.3808766457821 3.8888392453617877
1.4186527482571047 10.319455448523007 64.5939440453745 338.90983369420593 4.018466955497137
1.4205461179766572 10.224996584508919 59.24947420979941 360.92199858694437 4.155950544858763
1.421911685091167 10.130970303549988 54.43993606760752 384.55039515685763 4.301879292930147
1.422707779880377 10.037321679521357 50.10935957087711 409.9441436588262 4.456914405072306
1.4228911676728186 9.943983504395039 46.21395905751114 437.26662673357913 4.621757761716859
