M[M_sun], R[km], Lambda[1], P_c[MeV/fm^3], rho_c[fm^-3]
0.24162668629717493 15.618656898711224 2160425.4255784233 3.5677272577965504 0.1711233750220791
0.25364474015051824 15.277271957115858 1723184.651108975 3.7848337419630966 0.17388834925104812
0.26604074933989613 14.981256370815421 1382964.8943354257 4.0114312030069765 0.17666702025295042
0.27881660547583265 14.723502195326008 1116445.6555912443 4.247775293833267 0.17945806026661834
0.2919725068549432 14.498377220011502 905846.3862604086 4.494491374240801 0.18226803872374728
0.3055091640483215 14.301166824688599 738593.5159388668 4.751735477439643 0.18509267026833084
0.3194262015420069 14.128088918739488 605006.3449574191 5.020189231221179 0.18793855919531027
0.33372631189350227 13.975857708854807 497658.740761801 5.3000775572704955 0.19080234542195476
0.34840751576248224 13.841972674773265 410972.70168989094 5.592128132974056 0.19369030647838117
0.3634716058999616 13.723921273772334 340626.60272396944 5.896509440510465 0.19659752749126075
0.37892584535840945 13.619941440934284 283277.6129534381 6.214085099795859 0.19953167937854607
0.3947592916002817 13.52839398823608 236395.18633357072 6.545111150633737 0.2024889158725455
0.41098527483291264 13.447818336196988 197835.3817350942 6.8902927957935765 0.20547299536599967
0.42759374155994884 13.37702320581909 166062.77970542395 7.250333984468415 0.20848696966843439
0.444591141154941 13.314899560268154 139785.2204249445 7.625491823154795 0.21152635531470898
0.4619735767111938 13.260535551122826 117962.67581718753 8.016719092766486 0.21459737219818803
0.47973941522499086 13.21311896408765 99808.6162009322 8.424719207508627 0.2177016403378851
0.4978975374614823 13.171953729233056 84630.22962759274 8.849930627226819 0.2208365923872921
0.5164375988576567 13.136376626098192 71925.49832735032 9.293231522109211 0.22400570439316153
0.5353577451711196 13.105813218461881 61266.33033474955 9.755504636590286 0.22721186344417246
0.5546655568503022 13.079798777302958 52297.46363892467 10.23755974307713 0.23045642077219605
0.5743499257786768 13.057815016102685 44722.713605502475 10.739864308157095 0.23373602512546024
0.5944086804658764 13.039522213020566 37987.91954019473 11.263670543150287 0.23705695816288558
0.6148466050187699 13.024493480406715 32895.60018903136 11.809912768430534 0.24042079040025344
0.6356522511435125 13.012419880915127 28286.883687662663 12.379570232123962 0.2438291552238462
0.6568246104827138 13.003015984238239 24366.320476689518 12.973327050577332 0.24727994709904977
0.6783576488571885 12.995980534675478 21023.86925987937 13.592519953849852 0.2507780616472386
0.7002472256818044 12.991047796096735 18168.618593262232 14.238342249227836 0.2543260830728548
0.7224837134545795 12.988003616678844 15725.931635874407 14.911983941542864 0.25792599660240406
0.7450727921084086 12.986639187624917 13631.009400218483 15.614467178635257 0.2615776220376922
0.7679952331837884 12.98676481790095 11833.626457400089 16.347073463223715 0.26528300611887484
0.7912417559752243 12.988137081293875 10286.239446002184 17.111411975478923 0.2690467665232637
0.8148185377236623 12.990663040695317 8954.33401004497 17.90893817836106 0.27287133665119623
0.838700983976671 12.994134474765579 7805.602206971804 18.741004787554544 0.27675768307852816
0.8628833981763978 12.998408914368275 6812.329889854169 19.60898187068465 0.2807065139080429
0.8873675858321011 13.003358036759348 5953.922444465416 20.51494357762532 0.2847240796628485
0.9121252323011471 13.008866217585112 5209.867705657902 21.46068458366877 0.28881339477843654
0.9371462326465759 13.0147517885977 4564.137055463415 22.447672848876955 0.292974249014132
0.9624318136419636 13.020968905768894 4003.5085392886485 23.477966741656083 0.29721070423716683
0.987953148635356 13.02734406319081 3515.5801452074356 24.55397358169261 0.30152873390131274
1.0136966930405995 13.033806872794122 3091.103812872469 25.677616295195566 0.3059298234758035
1.039662254668864 13.0402590917333 2720.701780720478 26.850895752384158 0.3104155239832921
1.0658173209136452 13.046581612260825 2397.5414510155365 28.07689070740434 0.3149944299696439
1.0921498326452677 13.052717703671345 2115.080319955177 29.35763236572187 0.3196668209020058
1.118650149367673 13.058548648455968 1867.8171211845722 30.695925197814347 0.3244377131595481
1.1452829079318925 13.064011016579563 1651.6348725760208 32.09512000602914 0.32931483081294916
1.17204692849969 13.069019115838502 1461.645285571562 33.55721000736523 0.33429620800670623
1.1989054820324068 13.073470293098723 1295.0430426245805 35.08671398400341 0.33939524958964723
1.2258517777163624 13.077341026879512 1148.730160671485 36.6856253263071 0.3446085322161977
1.252849250404321 13.080501867802559 1019.8324178444789 38.359026423307576 0.3499506774412012
1.2798926068023608 13.082938081231537 906.4490123481811 40.10919042256076 0.35541845194171023
1.3069373370324773 13.084520430888324 806.5435054790547 41.94152763536655 0.36102605665963977
1.333975976031157 13.085240663104754 718.358021916657 43.85958552725421 0.3667757763776389
1.3609859930969452 13.085031632234456 640.4200681997812 45.867992016976494 0.37267502445271106
1.3879185511962555 13.08377136098173 571.6091115862191 47.972112364364605 0.3787339314851702
1.4147681881859513 13.081463510362477 510.655034712099 50.176740230742624 0.38495833221268994
1.4414995408667108 13.078022264275575 456.7297788017129 52.487028098360476 0.3913548435915705
1.4680953362942066 13.073419091171194 408.8858058599414 54.909427956260494 0.39793533712976137
1.494505335856712 13.067550856210778 366.4031824897639 57.450131626676885 0.40470887712814174
1.520718176790873 13.060400383455777 328.739958830597 60.11576921593862 0.4116852382441709
1.5467017988923966 13.05190966591439 295.18864163664495 62.91344857115967 0.41887496398532365
1.5724180059143313 13.042024559897218 265.37313780446516 65.85079851493445 0.42628942997881575
1.597831216024631 13.03068767859462 238.82521984202458 68.93601624161371 0.4339409125766809
1.6229293575339376 13.017863974338473 215.15974996825696 72.17791930641897 0.44184266342372547
1.6476825833014173 13.003520860372468 194.0292245204574 75.58600269272706 0.45000899069174893
1.6720311116477562 12.987583485766017 175.1720327095138 79.17014273963936 0.45845384963681257
1.695967725310172 12.970024051670539 158.3095448860655 82.94066310159444 0.4671910564429576
1.719448012991448 12.950808908636382 143.229353913796 86.91024340187276 0.4762419029259907
1.7424242273572044 12.929831161833663 129.73206043095746 91.09040064694652 0.4856204778042743
1.76491171284696 12.90720724584177 117.63677377954495 95.49535887227947 0.49534922527276054
1.7868387101606396 12.88276684488914 106.79158125357007 100.13865981504529 0.5054451561173048
1.8081756454534839 12.856504106295354 97.05266124023662 105.03690088579992 0.5159342400750208
1.8288840942236522 12.828360891601568 88.2976587694468 110.20663030298472 0.5268390248232676
1.8489627685454835 12.798386808337263 80.4340984039011 115.66557047176029 0.5381832017715603
1.8683380829438476 12.766442441630272 73.35822390255586 121.43377659879975 0.5499955157747569
1.8870139740475755 12.732616790594614 66.98187455318295 127.53268862953264 0.5623058179125755
1.9049367637279455 12.696791261301113 61.23446412188517 133.9848807196885 0.5751438639486267
1.922074991769175 12.658968037181957 56.05238256147729 140.81600713081605 0.5885458185145274
1.9383865831811111 12.619072404624385 51.37235436757966 148.05375014585715 0.6025499362980242
1.9538822787449983 12.57721969173069 47.14781166661242 155.7265365008076 0.6171917066242227
1.9684964555062685 12.533278737725398 43.325907756701945 163.86810831781133 0.6325190283495091
1.9822090541123136 12.487272683670462 39.86522471160823 172.51235597822307 0.648573821100637
1.9949954100125007 12.439185524642154 36.73271655518824 181.69839405303156 0.6654086231252091
2.0068297464971767 12.389017648516113 33.89227472867691 191.46834315491077 0.6830782068186151
2.017673997344305 12.336733911965945 31.316982550254274 201.86826090874249 0.701641836328944
2.027507727502553 12.282342290595299 28.981457779636788 212.94800761057473 0.7211618435603411
2.036313541295968 12.225864281448127 26.859437152032637 224.76332414424053 0.7417093350634865
2.044054713097982 12.16726230996044 24.933546086518128 237.37517438182778 0.7633607244300326
2.050711485662796 12.106544821247702 23.180057447445755 250.85057523213487 0.7861990266054117
2.056280912937207 12.043787892585286 21.58696553485413 265.26281828737245 0.8103129422462549
2.060722579053962 11.978929576068161 20.135193160468077 280.69325641852885 0.8358008056748261
2.0640253395161476 11.912025056807982 18.815328525663897 297.2320974093187 0.862771035141341
2.0661816876362784 11.84311331687693 17.61314441591643 314.97965272785115 0.8913437790647817
2.067170517454437 11.772211585798628 16.518965834782513 334.04523661869865 0.9216444510322397
