M[M_sun], R[km], Lambda[1], P_c[MeV/fm^3], rho_c[fm^-3]
0.24162668629717493 15.618656898711224 2160425.4255784233 3.5677272577965504 0.1711233750220791
0.2536459374457863 15.277241571582424 1723265.5053217048 3.784865365577366 0.17388874342414426
0.26604514081734665 14.981154608893348 1382906.2814395872 4.0114976829756035 0.1766678236241375
0.2788228261050303 14.72337345924071 1116256.71304927 4.247878880121121 0.17945926171145624
0.29198020363658705 14.498262543315418 905774.0566240111 4.4946347859037905 0.18226963564589876
0.30551928766862374 14.301019643027756 738503.8941911628 4.751923584977045 0.1850947021887434
0.3194384754417737 14.127942906431644 604954.4719513708 5.020423421194688 0.18794098900667444
0.3337398941784089 13.975767712361183 497568.7789440024 5.300363996441564 0.19080522938911887
0.3484245274518674 13.841829027262769 410883.61522363883 5.5924675374489565 0.19369359031004277
0.36349070550704105 13.723820977725458 340549.3067600261 5.896909436878623 0.19660128434179874
0.3789470679027612 13.619838532653517 283201.10413473484 6.214550529926154 0.19953592354092
0.3947842486649112 13.5282576977674 236320.79214122437 6.545641532224572 0.2024935666025867
0.4110135351050102 13.447707451636008 197787.2505004426 6.890898369655181 0.2054781526871243
0.4276233592290467 13.37692548226487 166006.6332357086 7.2510204348398934 0.20849264849643548
0.44462454448749084 13.314774788304247 139738.1500901201 7.6262572536192685 0.21153244863337636
0.4620097272807195 13.260401310628463 117912.61532465993 8.017576856659863 0.21460400769537563
0.47978111373133847 13.213023278469043 99756.66404263937 8.425675995468932 0.2177088340457816
0.49794192875234655 13.171862801087416 84597.30970960537 8.850982912136184 0.22084421137964266
0.5164871187783334 13.136271206474207 71182.83172176122 9.294396336372131 0.2240139047581902
0.5354090914034824 13.105742209076077 61243.30050082842 9.756789880258323 0.22722066290264295
0.5547213395294442 13.079715764641497 52269.59810876686 10.238961386812747 0.23046567825687747
0.5744095615022521 13.057769427588513 44702.25447501672 10.741401027320414 0.23374589133850476
0.5944713521896149 13.039446636449707 38302.45808337343 11.265353042773588 0.23706747045097898
0.6149151635070458 13.024436226582864 32878.578814534354 11.811750990884526 0.24043196985978013
0.6357241487745933 13.012383518355078 28271.60139855738 12.381574740185076 0.24384102406481653
0.6569007682753785 13.002989235669798 24352.583914090836 12.975488639031989 0.24729230185225554
0.6784383727240025 12.995943661826924 21014.97443718636 13.594869324168206 0.2507911423117372
0.7003328652636518 12.991046063644227 18158.721407930036 14.24089200219349 0.25433991560713426
0.722573229568588 12.987986543461057 15718.048600711227 14.914747487723988 0.25794060851279027
0.7451669491213987 12.98665891266153 13526.735728631107 15.617431821253101 0.2615927753242294
0.768093831115757 12.986767192089017 11826.45822960382 16.350279358737158 0.26529898670394303
0.7913453354755382 12.9881436572365 10280.672337236058 17.11487521863716 0.2690636071019897
0.8149253668102396 12.990693394898084 8948.516181111583 17.91267593118458 0.2728890720210817
0.8388169449686418 12.99415215503159 7800.730774665739 18.745000469689106 0.276776041170515
0.8630014513571762 12.99843621954527 6808.141405936064 19.613287448172798 0.2807258303188466
0.887489855171 13.003388764109857 5949.737064543741 20.51957977972539 0.28474439621930553
0.9122526053460539 13.008882820271948 5206.561349485126 21.465673559408188 0.28883475612781023
0.9372798406414085 13.014787057879422 4561.350716777497 22.452993812837388 0.2929963492691262
0.9625688381588419 13.020997393739467 4000.627376326948 23.48368648527163 0.297233933815491
0.9880967418059345 13.02738084420237 3512.976571442097 24.560119036063465 0.30155314687414403
1.0138457028568415 13.03384602585609 3072.4973527401344 25.68416366789184 0.30595509104799123
1.0398166938873976 13.040304046255303 2718.792201693868 26.85792510792977 0.31044207962277054
1.0659755063449385 13.046624127496797 2395.9118252563703 28.08443496091818 0.31502233944388447
1.0923124598904568 13.052754735370414 2113.5910167336915 29.36566477370089 0.31969573263880663
1.118816985986748 13.058587546627676 1866.4053257450244 30.70454168616185 0.3244681083805285
1.1454550880621779 13.064044034751864 1650.2281393328003 32.10429244629533 0.3293463464142548
1.1722239551165383 13.069044992831127 1460.4944171501197 33.567046022552205 0.33432935639202194
1.199085770757818 13.073495767368428 1294.0738373829054 35.09726001387884 0.33943012245141013
1.22603620563594 13.07736642815046 1147.7006848953672 36.696850759924914 0.34464474372738896
1.2530381483843713 13.08051835014117 1019.0536811103314 38.37097682999017 0.34998830812620046
1.2800867193124355 13.08295792349311 905.6456735010789 40.122001673483126 0.35545808567210163
1.307142191141783 13.084558963097543 805.8282378061826 41.955169078604094 0.36106729680921645
1.334176694840378 13.085242440764048 717.7293473271526 43.87421015512017 0.3668192483349571
1.361190087268334 13.0850240638365 639.8678495751102 45.8835691777369 0.372720320720205
1.3881311807288543 13.083772300638085 571.0989337799843 47.988708613857085 0.3787811697686117
1.4149802228186539 13.081436234621398 510.2163483407183 50.194537613574354 0.38500820244069656
1.4417130685095827 13.07799133669827 456.3152325506822 52.50599835345753 0.39140692880452665
1.4683112712211888 13.073374915414703 408.5149156412644 54.92965510976795 0.3979897849892292
1.4947238674446024 13.067495468051371 366.0671972423688 57.47170651234406 0.4047658467130199
1.520937541651383 13.060333553023915 328.4438439103856 60.13879008476044 0.41174490098855226
1.546923573333047 13.051830524340657 294.9324026098057 62.938021761862906 0.4189375047093187
1.5726419894673702 13.041931351058262 265.12715486845684 65.87703919208575 0.42635504802231755
1.5980556107389663 13.030578568433812 238.59442918972388 68.96404920895098 0.43400982304722086
1.623165118445064 13.017752622268665 214.95466234084256 72.20787990394459 0.4419150985709039
1.6479062183945592 13.003381512827215 193.8331987811335 75.61803778715633 0.45008520142221836
1.6678603437090294 12.988169817657322 177.96743142066495 79.72536867756287 1.5239564595445125
