M[M_sun], R[km], Lambda[1], P_c[MeV/fm^3], rho_c[fm^-3]
0.24162668629717493 15.618656898711224 2160425.4255784233 3.5677272577965504 0.1711233750220791
0.25364439019646184 15.277285252213119 1723221.0735131926 3.7848271997579945 0.1738882677056176
0.2660407694634912 14.981255524482256 1383029.058945809 4.011417449914906 0.17666685405494928
0.278816364590777 14.723483659053255 1116468.6094813454 4.247753864492369 0.17945781171855724
0.29197153943104126 14.49837886790214 905809.1349367893 4.494461706253058 0.18226770836381817
0.30550758760849106 14.301164647725447 738598.6502551708 4.75169656335213 0.18509224992191706
0.3194245448901567 14.128097336710645 605096.0865166079 5.020140784304013 0.18793805653984588
0.3337241974624177 13.975864207931982 497648.52518141293 5.300018301947976 0.19080174881917933
0.3484039983578844 13.842002357304683 410991.17958275165 5.59205792121946 0.19368962716034085
0.3634667888025713 13.723966401771937 340631.73623117566 5.89642669480077 0.19659675032604443
0.37892155847777365 13.619975573814212 283289.76619922346 6.213988818677234 0.19953080141067422
0.3947525103631507 13.528461353849886 236393.54761385487 6.545001433990176 0.2024879538058014
0.4109794092404491 13.447869771617187 197857.76564836028 6.890167525399456 0.20547192851075566
0.4275879840921047 13.3770538118886 166066.858414772 7.250191984668012 0.2084857949404771
0.4445837701701674 13.314922071199332 139794.1189377452 7.62533348634661 0.2115250948519056
0.4619655817326343 13.260549623099566 117973.30767196091 8.016541656979932 0.21459599958892836
0.4797312108221751 13.213131808327782 99805.00107323375 8.424521288967513 0.21770015226714098
0.49788917554619305 13.171963439090751 84637.59806924676 8.849712955626355 0.22083501635190084
0.5164265452138924 13.136397789091879 71934.36996542194 9.292990574585135 0.2240040081075707
0.5353463370991197 13.105834279393736 61270.560515676814 9.7552387792662 0.22721004324420527
0.5546543841175581 13.07981118402715 52303.10741714407 10.237267242786986 0.23045447283436843
0.5743372397277864 13.057830773333224 44726.968850687015 10.739546435783327 0.2337339842863561
0.5943946573786266 13.039536257523844 38322.36374060723 11.263322517981713 0.23705478369533436
0.6148326453696702 13.024499694879696 32899.19545749465 11.809532534257848 0.2404184779420768
0.6356377481046642 13.012425243750728 28289.96303294428 12.379155604445916 0.24382670018259792
0.6568087162145646 13.003008539313676 24368.529068922853 12.97287993344583 0.2472773915608751
0.6783411758995659 12.995972503823097 21026.019625424862 13.592033997578113 0.25077535597291306
0.7002302997287205 12.991059867226886 18170.90669569662 14.237814847883223 0.2543232218948205
0.7224647861081348 12.987999905122674 15728.410509902222 14.911412321743464 0.2579229742330509
0.7450527839939997 12.986648766302485 13632.575981622722 15.613853966499793 0.26157448770401537
0.767973206663581 12.986759791076278 11834.74961888817 16.346410353851127 0.2652797006849661
0.7912208832824379 12.98814347656701 10219.242707592917 17.11069564044972 0.26904328322858806
0.8147969588731487 12.990666264291809 8955.836162756314 17.90816506856866 0.2728676683005113
0.8386791064585082 12.994132452123482 7806.7725648942915 18.74017833220285 0.27675388594380657
0.8628595090754488 12.998400787310546 6813.391027822849 19.608091322848654 0.28070251858154194
0.8873407911728044 13.003364195522895 5954.559707426542 20.513984650581452 0.2847198774958583
0.9120985414609434 13.008845968611896 5210.51059861264 21.459652697126185 0.2888089765390821
0.937118470424182 13.014747419229668 4564.70825068013 22.446572301549008 0.29296967796708834
0.96240339697059 13.020964264269335 4004.098133749134 23.476783721101825 0.2972058996391863
0.9879246940010943 13.02733845125007 3516.168840365428 24.552702518836316 0.3015236845719866
1.0136670672534158 13.033799283749087 3091.690351823644 25.67626211048096 0.30592459741618855
1.0396319363307491 13.040247902577244 2721.074897391172 26.84944188893697 0.3104100315489851
1.0657838652559233 13.046579403768199 2397.936376498236 28.07533035886836 0.3149886575619178
1.0921166968073162 13.05270883910806 2115.502770338675 29.35597106266496 0.3196608412310462
1.1186154578793506 13.058540353578836 1868.3994481900604 30.694143103859517 0.32443142670764563
1.1452469779629582 13.063997835079787 1651.8875808305754 32.09322293802806 0.32930831267415117
1.1720106275724052 13.069014515291016 1461.865157246465 33.55517571052203 0.3342893522165999
1.1988676184972626 13.073465979941457 1295.2151037112083 35.08453285564512 0.33938803718947164
1.2258134332342878 13.07733310575119 1148.910997967715 36.68330369645289 0.3446010429976686
1.252810006962771 13.080500485250745 1020.0430449469783 38.35655486915141 0.3499428947541028
1.2798539192582024 13.082939614786618 906.5810742549178 40.10654084907781 0.3554102550465193
1.3068965168766857 13.08452627263786 806.641572910806 41.93870638084438 0.36101752757980105
1.3339349241998468 13.085239321356179 718.4922545824687 43.856560957031796 0.36676678579074534
1.3609424838531867 13.085035139187356 640.5242177165646 45.864770469164824 0.37266565662928897
1.3878748316120566 13.083771702505214 571.7339517691041 47.96868007718722 0.378724162087897
1.4147325714599868 13.081478193521571 510.74190757095715 50.173059563442585 0.3849480185772973
1.4414558841504501 13.078026686517966 456.8081633981153 52.483104894517815 0.391344071943716
1.4680502708579217 13.07342885826429 408.945286080115 54.90524484226007 0.39792407693918885
1.4944598748603304 13.067560984494454 366.46771063634515 57.44566982151472 0.40469709550427513
1.5206723090745828 13.060413683657638 328.7879100982405 60.111008405203435 0.4116728997422603
1.5466559680953582 13.05192728632687 295.2451732926496 62.908366768440025 0.41886203039338094
1.5723718852878013 13.04204408841986 265.4277922132938 65.84537190925028 0.4262758600832754
1.597797196901494 13.030713568308965 238.88957067696563 68.93021902929998 0.4339266619044793
1.6228831849926586 13.0178906921598 215.19522321927897 72.17172350569972 0.4418276839582257
1.6476351061301049 13.003550884051267 194.0646399309604 75.57937793899522 0.4499932305596164
1.6719847794882445 12.987616989495537 175.19916386307776 79.16309065647998 0.45843739720748283
1.6959216405358228 12.970062601210744 158.34121977776144 82.93311487547476 0.4671737106413186
1.7194016709933133 12.950849912569463 143.2530738333273 86.90216017121205 0.4762235983855694
1.74238429383763 12.929905957375976 129.75800933178422 91.08177904735972 0.4856012979186904
1.7648662477601906 12.907259250726627 117.66134880985192 95.48611583690212 0.49532894398927313
1.7867933374117908 12.882822244452251 106.80972179180874 100.12878729533507 0.5054238516480772
1.8081313173005251 12.856560713396693 97.06719133576979 105.02634768095234 0.5159118303224065
1.82884073966562 12.828423955166155 88.3162178028628 110.19534056491713 0.5268154209841263
1.8489205744799355 12.798455093489318 80.45270080678092 115.65343709969765 0.5381581384117837
1.868295808958725 12.766514678211362 73.37477429892833 121.42077751458301 0.5499690544029245
1.8869741384609222 12.73269207048134 66.99867282059027 127.51880026970237 0.5622780214599687
1.9048971652925382 12.696875027726506 61.24675180574341 133.96997559777446 0.5751144366099691
1.9220378796727158 12.659055593835348 56.06579737134223 140.7999978330771 0.5885146263145037
1.9383520009717394 12.619165027833537 51.38358044560515 148.03654078658985 0.6025168332392545
1.953846970604372 12.577319434531937 47.15590251312442 155.70807845833042 0.6171567267860524
1.9684626359234316 12.533387921983524 43.330449610028296 163.84828972082957 0.6324820070456433
1.9821772811773881 12.487383682254228 39.87342056817979 172.49099431633405 0.6485343791275947
1.9949666299238666 12.439306892933859 36.74028529647819 181.67541187858956 0.6653667607757972
2.0068022113160366 12.389142947038213 33.8980842490972 191.44359120182406 0.6830337099356961
2.0176482354484944 12.336867125317173 31.323333777562315 201.84157451764244 0.7015944706171368
2.0274820949039127 12.282481416881703 28.987777563897733 212.91927225478148 0.7211115727745625
2.0362926169672035 12.226012210650818 26.86568509760487 224.7322738067365 0.7416556638159071
2.0440365734772468 12.1674142452001 24.93844194277075 237.34165777176793 0.7633035755309923
2.05069474177181 12.10670579712212 23.184092979163243 250.81435016111482 0.7861380736086699
2.0562669062058854 12.043956310904713 21.5904727780449 265.22354147494843 0.8102475833484467
2.0607131082691716 11.979107819027666 20.13906595535675 280.65077855608774 0.8357311320937867
2.064017317028376 11.912208316271812 18.8189440281279 297.1860117474821 0.8626963681114854
2.066177612818211 11.843303838814895 17.616048213440962 314.9295891317249 0.891263637094135
2.067169666465581 11.772407029199284 16.521746952502806 333.9908648394889 0.9215585751501649
