M[M_sun], R[km], Lambda[1], P_c[MeV/fm^3], rho_c[fm^-3]
0.24162668629717493 15.618656898711224 2160425.4255784233 3.5677272577965504 0.1711233750220791
0.25364215365203363 15.277343693446722 1723175.8532307663 3.784806838903005 0.17388801391738254
0.26603780628199575 14.981327772263164 1383072.8081103647 4.011374647328201 0.17666633681094931
0.2788121451845382 14.723598458527556 1094008.7259974917 4.247687172089743 0.17945703818719008
0.2919661798086632 14.498500715878372 905971.8697431278 4.494369373968961 0.18226668022240555
0.3055007191344545 14.30126615183158 738678.6809649755 4.751575456072469 0.18509094173215998
0.31941599394756987 14.12818766341961 605142.0128741205 5.019990009918279 0.1879364921974003
0.33371327219249564 13.976028455785901 497695.4164992457 5.299833890979186 0.19079989210671677
0.34839290490557107 13.842092648997776 411038.4678667355 5.5918394132359435 0.19368751303549087
0.3634549235594529 13.724079572989702 340690.7540107745 5.896169180722588 0.19659433169932639
0.3789085261168366 13.620037402773443 283339.2065467244 6.213689182227779 0.19952806908704096
0.394737687070896 13.528521546150975 236434.96190792762 6.544659986265657 0.20248495977053066
0.4109618062658948 13.447938133126039 197897.93929442007 6.889777674791724 0.20546860837938577
0.42756793629390255 13.377130818084103 166104.46067378487 7.2497500728871715 0.2084821391175665
0.4445612239383312 13.314995389101384 139818.6951144036 7.624840734787754 0.2115211722326589
0.4619419188910888 13.260613210637803 118001.50913847664 8.015989470915265 0.2145917279832949
0.4797040007402012 13.213207291167453 99828.35937427971 8.423905362564492 0.21769552136163958
0.497859867921005 13.172035345449594 84659.89224817754 8.849035559897905 0.22083011171739794
0.51639637520955 13.13644872128897 71951.04188306633 9.292240747212622 0.2239987292761219
0.5353135913107017 13.105882274272773 61289.6409439913 9.754411436266581 0.2272043788160917
0.5546185577075294 13.079842938667937 52309.97080327043 10.236356991254969 0.23044841091425547
0.5742988057037762 13.057872753659364 44739.23975403074 10.738557230757628 0.23372763328367374
0.5943527046827347 13.03955260120785 38337.909060357815 11.262239483339796 0.23704801687529276
0.6147890774426467 13.024521855194196 32632.800245707815 11.80834927200605 0.24041128173335638
0.6355879155003784 13.012474436593688 28069.943263382596 12.377865317438456 0.2438190602974836
0.6567592548176029 13.00302937787052 24376.453043676513 12.971488546881043 0.2472694389658357
0.6782891650752291 12.995985058712751 21033.46358367558 13.590521753595782 0.2507669362035738
0.7001754511211192 12.991069367331233 18040.89573614847 14.23617363815324 0.25431431825193607
0.7224071543206521 12.988008580206813 15733.934378137259 14.909633516963304 0.25791356902165263
0.7449923966727802 12.986656352644017 13637.856017327267 15.611945738539616 0.2615647341084606
0.7679107658101452 12.986759070701737 11757.395490495488 16.344346861542334 0.26526941469334847
0.7911528745238958 12.988132654679973 10291.501564650052 17.108466527651068 0.26903244380788915
0.8147251114805131 12.990657975990437 8958.37851952645 17.905759292543628 0.27285625306529376
0.8386058310826388 12.994114783204756 7809.899741410317 18.737606563467597 0.276742069997137
0.8627835888668757 12.99839514367366 6816.814593684781 19.60532012252422 0.2806900859533908
0.8872564773969703 13.003331948403032 5956.918249107385 20.511000681093932 0.2847068012788922
0.9120152167575402 13.008836477869172 5212.910597555296 21.456441707582258 0.2887952280117158
0.9370334157125353 13.014722776000168 4566.792324411264 22.443147667651928 0.2929554539875707
0.9623088816164845 13.02091929521234 4006.0747061036577 23.473102466711993 0.297190948971302
0.9878318550926445 13.02731957705743 3517.8043493456207 24.54874731686611 0.30150797243218147
1.013572244099149 13.033775770414529 3093.28012364434 25.672048270830995 0.30590833539743967
1.039531994326366 13.040227572739456 2722.3063979424264 26.844917897372284 0.31039294072348683
1.0656822851997567 13.046551768476887 2399.1135973260125 28.07047503908147 0.3149706956227712
1.0920106573797392 13.052681681330258 2116.4395877033326 29.350801622558954 0.319642234420717
1.1185079891886796 13.05852085362928 1869.2676649734922 30.688597826695492 0.32441186538312455
1.145136704534246 13.063980360332533 1652.7333064517036 32.0873199221852 0.32928803049313876
1.1718975716413897 13.068989565215546 1462.7017269442242 33.54884571574856 0.33426801948156354
1.1987502325575092 13.073449428390543 1295.8968216856033 35.07774600641359 0.33936559491898194
1.2256951466379895 13.077318683280481 1149.540037036766 36.676079687351525 0.34457773946256015
1.2526881754596206 13.080484735133174 1020.5379749586971 38.3488342125636 0.3499185011576604
1.2797272428794593 13.08293251532847 907.0691103235101 40.0982964795028 0.3553847497213201
1.3067696085761862 13.08452021165779 807.0722026814979 41.92992784672673 0.3609909887412213
1.3338057055389219 13.085234022639716 718.8674022134365 43.847149838990234 0.366738811080854
1.3608115417170756 13.085034840272348 640.8720021283807 45.85474648621173 0.3726365082485165
1.3877417787866813 13.083780301650066 572.0385293313765 47.95800041508091 0.37869376432207247
1.4145962554780653 13.081495662301606 511.05080820393624 50.16160711956538 0.384915927567468
1.4413186161353195 13.07804636576223 457.07205266099214 52.470897848880426 0.39131055596998054
1.467910777603179 13.073454959904096 409.1838232725124 54.89222914493899 0.39788904102282263
1.4943201934295394 13.067593255443176 366.6936017996092 57.431787044546084 0.40466043732434037
1.5205301166208691 13.060456302515293 328.97715084251985 60.096195350612696 0.4116345090326657
1.5465126778104805 13.05197648471265 295.4168937566457 62.89255503716056 0.41882178828018635
1.572229360936342 13.042101854195524 265.5897161797643 65.8284874265757 0.4262336383558307
1.5976518317055917 13.030783617394414 239.0253974033708 68.912181521986 0.43388232221323575
1.622732448734449 13.01794316429151 215.3361499236815 72.1524459252281 0.44178107693119584
1.6474909014205106 13.003640792995183 194.18463649431888 75.55876582483565 0.4499441948285031
1.671839936056809 12.98771503191233 175.31064320651706 79.1411490573181 0.45838620770766636
1.6957775108698099 12.970175540157166 158.43385372278038 82.90962972451426 0.4671197418328112
1.7192416317021062 12.950938947570078 143.34737229374852 86.87701057774255 0.4761666469301964
1.7422452059197657 12.930044879891499 129.83630186360398 91.05495454287903 0.485541623269966
1.7647257598391861 12.907405978788427 117.73253894666753 95.45735802159746 0.4952658429211866
1.7866520620925088 12.882983850485742 106.86601389729051 100.09807112927606 0.505357567494305
1.8079939384514399 12.856738267727803 97.12959116067873 104.9935138912385 0.5158421077011268
1.8287056876177359 12.828616013946373 88.37062189937755 110.16021438463001 0.5267419797902136
1.848787030566901 12.798663526948655 80.49994915364695 115.61568745567958 0.5380801606736431
1.8681755531673494 12.76677026487665 73.41611385422684 121.38033468676953 0.5498867276261392
1.886849053197381 12.73293342800074 67.03958711688453 127.47546021661087 0.5621910743427512
1.9047742038802178 12.697131631043415 61.28583348533201 133.92360323794836 0.5750228831731824
1.9219198236151 12.659332073399643 56.09907393087662 140.7501905225792 0.5884175827328909
1.9382369205781935 12.619457605377521 51.41588579390115 147.98300026918216 0.602413845390214
1.9537482691244725 12.577666105889861 47.184234901692065 155.65065348715788 0.6170479007173598
1.9683579806488816 12.533719790944767 43.35853408824946 163.7866323184929 0.6323668305056697
1.9820786344862837 12.487737127140477 39.896193918463084 172.42453680000165 0.6484116725900014
1.994874266161659 12.439677719547499 36.763417176006236 181.60391334397383 0.6652365252036113
2.0067080429873703 12.389518855876503 33.91964614936852 191.36658737033642 0.6828952792243087
2.0175683296603926 12.33727979397156 31.342261116157715 201.75855323733438 0.701447116033964
2.027410103143612 12.28291241070243 29.003845293659737 212.82987729423755 0.7209551816394215
2.0362274697970237 12.22646539929742 26.881959672024248 224.63567778321834 0.7414886952896308
2.0439785666804093 12.167891027563789 24.953223253229492 237.2373901147183 0.7631257895975325
2.050645319835133 12.1072062420094 23.19806201898355 250.70157184106236 0.7859481756691772
2.0562202120233675 12.04445787735416 21.60270339991865 265.1013563650669 0.8100442602267985
2.060680932714431 11.979650090250878 20.150405741142187 280.5186364828379 0.8355143883378588
2.0639998378424167 11.912788812659233 18.82969931895242 297.04264768479595 0.8624640926418012
2.06616380521254 11.843894519066442 17.625977602862488 314.77385193071245 0.891014332466464
2.0671655601255883 11.773024130154315 16.53019661673828 333.8217273890868 0.921291436057859
