M[M_sun], R[km], Lambda[1], P_c[MeV/fm^3], rho_c[fm^-3]
0.24162668629717493 15.618656898711224 2160425.4255784233 3.5677272577965504 0.1711233750220791
0.25364500274248186 15.277269278982432 1723272.3292929167 3.7848386929866056 0.1738884109631677
0.26604179771112935 14.981235406338836 1382943.9118265996 4.011441611122867 0.1766671460288885
0.27881784937298976 14.723469434099455 1116445.7128743639 4.247791511242859 0.1794582483641305
0.2919736501709182 14.498356221405842 905819.5993823354 4.494513826582518 0.1822682887357832
0.3055108986956768 14.30115242477003 738579.7925049755 4.751764927168263 0.1850929883816056
0.31942847877628044 14.128055870477095 605048.3128213432 5.02022589535563 0.18793893959985625
0.33372592658122174 13.975912727865252 497626.24573834497 5.300122401186152 0.1908027969257759
0.3484101981092989 13.841949855735885 410958.7859443252 5.592181268722088 0.1936908205813605
0.36347461470634435 13.723894730666931 340623.80336998764 5.896572061987723 0.19659811564542728
0.3789279519574591 13.619956185168956 283262.433322976 6.214157964934418 0.1995323438208744
0.39476295649528764 13.528374099232371 236372.07136757622 6.545194183867557 0.2024896439618337
0.41098964675563543 13.44782147704908 197838.4679850888 6.8903876002408895 0.20547380276045613
0.42760051868998505 13.376968425170832 166049.8430532987 7.2504414499090855 0.20848785870248404
0.4445960048149122 13.314864505205245 139779.15204595544 7.625611652645317 0.21152730923450364
0.4619794575773686 13.260511877459813 117959.07176274127 8.016853376637458 0.21459841099249385
0.4797456502561132 13.213101198656625 99787.26757471779 8.424868993060128 0.21770276651583606
0.49790563518871184 13.171926616149563 84625.71081777447 8.850095362242003 0.22083778513918792
0.5164456020227084 13.136354336469145 71925.77952640684 9.293413872799913 0.22400698815339232
0.5353670147421726 13.10579259730523 61262.98886844746 9.755705839550698 0.22721324098614237
0.5546739132267585 13.079791644022606 52293.2725215933 10.237780300313945 0.23045788457820868
0.5743592969487011 13.057819334843872 44315.414642088945 10.740104877339018 0.23373756965412718
0.5944182342958676 13.039493285155363 38318.886867900335 11.263933932761974 0.2370586038259458
0.6148585318048612 13.024493549182642 32893.27894296662 11.81020053472026 0.2404225404994224
0.6356636898376753 13.01242981965887 28284.64342710216 12.379884028441863 0.24383101323512912
0.6568363098122537 13.002999369704412 24364.16749504886 12.973665435903342 0.24728188117081182
0.6783705934129071 12.995963865846692 21021.823178863913 13.592887733911303 0.2507801093480866
0.7002607563960327 12.991051027525238 18167.208083452693 14.238741396348905 0.25432824846546703
0.7224985359073753 12.9879957953065 15724.236585305853 14.912416554787695 0.25792828399170425
0.7450885657839182 12.986636334115326 13630.201709479916 15.614931270477824 0.2615799941673471
0.7680107775395248 12.986767182551782 11832.60186558752 16.347575319246374 0.265285507745278
0.7912579686895014 12.988149901765114 10286.938580134385 17.111954114847187 0.26904940276342776
0.8148353760914305 12.990675709277493 8953.35968307013 17.909523287277036 0.27287411295116526
0.8387198454851189 12.994142721727421 7805.091921067729 18.74163027065445 0.27676055684973855
0.8629029287755535 12.998409009895864 6811.810660580065 19.60965586188382 0.2807095376814896
0.8873870934277879 13.003362399240359 5953.287946965483 20.51566932142375 0.2847272599847016
0.9121450987710956 13.00885594721035 5209.299407839381 21.461465546767222 0.28881673863626733
0.9371663913708597 13.01475504313022 4563.584392658623 22.448505777786508 0.29297770852662447
0.9624532946873003 13.020965667405754 4003.065822111597 23.47886209056551 0.2972143405151221
0.9879757999492598 13.027349401350886 3515.193943994065 24.554935565715322 0.30153255540715973
1.013720822397196 13.033812811613137 3090.7111386058896 25.678641190247987 0.30593377874319444
1.039688477262903 13.040265492222462 2720.4504050438964 26.85199608992714 0.3104196808603922
1.0658400485376085 13.046597727479549 2397.2553871703976 28.078071639057136 0.31499879874933606
1.0921760771229407 13.052727592167725 2114.8331952106264 29.35888970558188 0.3196713465534912
1.118676184106429 13.058551290766315 1867.6091451676857 30.697273959634106 0.32444247100426493
1.1453103036822228 13.064020227844292 1651.2162487743428 32.096555787199335 0.32931976401563123
1.1720749942835818 13.069021710017891 1461.394577935034 33.55874965218363 0.3343013967684883
1.1989326043961228 13.073484081075021 1294.888075533761 35.0883647606615 0.339400708260529
1.2258814283701593 13.07734286153762 1148.5656430003055 36.68738244374745 0.34461420040506435
1.2528787620706443 13.080504061060836 1019.6893558023071 38.36089701355438 0.34995656775056133
1.279923217907595 13.082942522657206 906.309910010623 40.11119575052926 0.355424655756508
1.3069689652273135 13.084521226923119 806.4474880794959 41.94366290369425 0.36103251189928615
1.3340073814428142 13.085237891078656 718.2700788955435 43.861874680122156 0.36678258092382515
1.3610175903106154 13.085033183704727 640.3309818383431 45.87043025712456 0.37268211452385175
1.3879505989528909 13.083766062125914 571.5404309067899 47.974710108078035 0.37874132550234857
1.4148016735752456 13.081457873726125 510.5807885048121 50.17952596845651 0.3849661381567589
1.441533133035983 13.078016582368234 456.6669695006372 52.489997407076324 0.3913629962008004
1.468129254460768 13.073415330712123 408.82281790524945 54.91259398617841 0.39794385951290234
1.4945393692250997 13.06754063504426 366.35158534075896 57.453508593299865 0.4047177941805714
1.5207519411114117 13.060390087829969 328.6977366036147 60.11937249546441 0.41169457679463767
1.5467360677440534 13.051896163001052 295.14576182953266 62.91729480539151 0.4188847529572329
1.5724530775039627 13.042009208499893 265.33147227795195 65.85490572677223 0.4262997005676229
1.5978669750045713 13.030669263501787 238.79713195856732 68.94040396231321 0.4339516984451322
1.6229659928279117 13.01784705634014 215.13297347298783 72.18260871595649 0.44185400091690263
1.647717643925319 13.003497786588927 193.98359421891087 75.59101677476879 0.45002091907410086
1.6720660168807988 12.987559082526507 175.14879639581093 79.17548026503975 0.45846630202250643
1.6960028410751193 12.96999839310506 158.28949078971647 82.94637615726349 0.46720418502824596
1.7194828101852286 12.950779254035426 143.20843783379811 86.91636140332758 0.47625575718917196
1.7424635569706801 12.929825893061258 129.71566297362503 91.09692614052621 0.48563499462554127
1.7649467723264354 12.90716987105104 117.61559024515432 95.50235473432944 0.4953645757561983
1.7868720714218749 12.882732328475685 106.76631177243878 100.14613213749288 0.5054612810649691
1.8082088390815676 12.856459801379932 97.03718025718177 105.04488842437804 0.5159512016299339
1.8289225105080937 12.8283259267996 88.285680545137 110.2151753312814 0.5268568902043922
1.8489951949654628 12.798334599345656 80.4237223576453 115.67475405950134 0.5382021718948208
1.8683680358701422 12.76638762924693 73.3466259857624 121.44361545759683 0.5500155440857282
1.8870440992047028 12.732559013883174 66.97213754577147 127.54320059498173 0.5623268567791501
1.9049662962016394 12.69672871078025 61.22512414303124 133.99616229323422 0.5751661372777034
1.9221049579639062 12.658900578526026 56.045216991549914 140.82812448068987 0.5885694277200768
1.9384160160072887 12.618999644858368 51.36422237010613 148.06677585350207 0.6025749918947486
1.953909716583161 12.577141356116707 47.141298737513246 155.74050737004143 0.6172181828199246
1.9685222335664538 12.533201905390966 43.31973044946339 163.88310903077243 0.6325470498059851
1.9822342291780903 12.487187521281557 39.85951890367934 172.52852468999 0.6486036748590642
1.9950177354119265 12.439095551474118 36.72677767226367 181.7157893881777 0.6654403089693779
2.006850216222642 12.388921791211994 33.88512743698525 191.48707810360813 0.6831118868605803
2.0176934132986997 12.336633361882045 31.31269335986549 201.88846011406147 0.7016776879258978
2.027525312944416 12.28223905082427 28.97708319406262 212.9697577652572 0.7211998941546877
2.0363301129375175 12.225754174858984 26.85686173449785 224.78682661963063 0.7417499596517129
2.0440696606894875 12.167146660100325 24.930648334343307 237.40054370138694 0.7634039814503464
2.050723806189861 12.106422558114732 23.177003445022002 250.8779947295753 0.7862451631757783
2.0562902472960753 12.043660916355309 21.583080122538846 265.292507523648 0.8103622826110742
2.060731278076885 11.978796057430772 20.13260082126151 280.72540901979875 0.835853543424361
2.0640310050584287 11.911885516064762 18.81256964128161 297.2669809849784 0.8628275527843876
2.0661846060672535 11.842969396659724 17.61022376512559 315.01754747213903 0.891404441097064
2.0671721523411444 11.772063422433263 16.516502817074176 334.08639253069435 0.9217094535077258
