M[M_sun], R[km], Lambda[1], P_c[MeV/fm^3], rho_c[fm^-3]
0.24162668629717493 15.618656898711224 2160425.4255784233 3.5677272577965504 0.1711233750220791
0.2536452532562377 15.277242324583678 1723173.693591324 3.784849594441951 0.17388854684454955
0.26604281814233405 14.981221749596124 1382891.478114613 4.011464528393911 0.17666742297058424
0.2788197565146638 14.723436329290253 1116345.7488014833 4.247827219899683 0.17945866253073786
0.2919768492258208 14.49828885817318 905780.6483341295 4.494563263898863 0.1822688392317745
0.30551364186059987 14.301124306440421 738550.417430039 4.7518297720604705 0.18509368883019978
0.31943250250490884 14.128012199021844 605016.1772269703 5.020306625750593 0.18793977720886307
0.33373240453412345 13.975875608764941 497605.75220253563 5.300221142833467 0.19080379109032236
0.3484160241616198 13.841902939467873 410930.06126075063 5.592298268425215 0.19369195258567376
0.36348182887592234 13.72384019315349 340599.42543927074 5.896709948708369 0.19659941070668754
0.378936482792149 13.619884137690493 279325.2208564717 6.214318407683363 0.19953380686555913
0.3947708858338722 13.528356286776985 236349.51415605302 6.5453770163328375 0.20249124715555966
0.4109994404182424 13.447774138694927 197814.6214724954 6.890596352515144 0.20547558058242318
0.427608898551349 13.376972959185462 166038.8622431871 7.250678081358439 0.2084898162938211
0.44460786034392635 13.314827612946695 139760.59018189216 7.625875509492628 0.21152940970466763
0.4619903303446028 13.260466543641854 117939.99440301333 8.017149061862993 0.2146006983567646
0.47976014682956103 13.213066755717337 99778.3700501031 8.425198812923 0.21770524630012514
0.4979197431366993 13.171909175354186 84610.38629484382 8.850458100848876 0.22084041152168796
0.5164626819826169 13.13631627910725 71915.15565181173 9.293815401293756 0.22400981493902133
0.53538357978143 13.105775392776382 61255.00014558775 9.75614888105866 0.2272162742828214
0.554694216542459 13.07975400437218 52282.99722965184 10.238263002862071 0.23046106980516412
0.5743797834721671 13.057815665358222 44711.42668932287 10.74063460428817 0.2337409706652296
0.5944398062922639 13.039474775428603 38311.56682040739 11.26451391113417 0.23706222754131073
0.61488074865175 13.024478943034442 32888.35792908554 11.810834191598119 0.24042639419047296
0.6356885881077574 13.012402322587851 28278.65611983598 12.380575004751034 0.24383510455712823
0.6568623830073849 13.002989760364148 24359.435269569265 12.974410558515462 0.2472861399861108
0.6783978630652597 12.995958851697914 21017.987736444717 13.593697585569641 0.250784618385148
0.700289905667439 12.99104088651545 18163.015636612352 14.239620320443695 0.25433301667157715
0.7225270700980508 12.988005024751578 15721.043086243639 14.913369173825966 0.2579333208476521
0.7451201557896553 12.986644191149944 13627.025335027949 15.61595320782299 0.26158521763317777
0.7680441018465309 12.986767967604996 11829.815175829523 16.34868041663266 0.2652910163785806
0.7912936166477775 12.988153126876226 10284.594886016826 17.113147919964316 0.26905520783345604
0.8148710241120544 12.990684574033692 8950.93505041625 17.910811715679355 0.2728802264518072
0.8387577640608872 12.994154881633683 7803.223608581623 18.74300760709904 0.27676688499804847
0.8629437308294796 12.998424423837719 6768.0448893574485 19.611140018640988 0.28071619615685034
0.8874287047715017 13.00338180558345 5951.961596293662 20.517267443592925 0.28473426320383965
0.9121885684943898 13.008878603993576 5208.156849223624 21.46318526880676 0.28882410198803155
0.9372139058732782 13.014769040094615 4562.792918272804 22.450339935061557 0.29298532657173426
0.9624999507417665 13.020981573077394 4002.051314904665 23.480833705313835 0.29722234782843887
0.9880258894369797 13.027358593270952 3514.451535348193 24.5570539206517 0.3015409706256917
1.0137727114719448 13.033816702027853 3090.2658456283652 25.6808980843114 0.3059424885320384
1.0397400298176027 13.040280882331198 2719.588021728258 26.854419120230094 0.31042883463256277
1.0658951792219775 13.04660330857738 2396.7681015912444 28.080672150836612 0.3150084191731975
1.092230496694486 13.052739325823719 2114.328538074783 29.361658480649815 0.31968131244369924
1.1187335880917966 13.0585676041258 1867.1278700837531 30.700244062042866 0.32445294823296966
1.1453686235062337 13.064021738018411 1650.903532070756 32.09971752144375 0.3293306274230767
1.172135243757961 13.06902979293814 1461.0973087434968 33.56214011391771 0.33431282297410336
1.1989947413051354 13.073492605342919 1294.4839312726733 35.09199995664098 0.3394127288681293
1.2259428004147348 13.077353439201955 1148.1882765401626 36.6912518228792 0.34462668242317634
1.2529442472650845 13.080519326399987 1019.4001304013195 38.36501628262804 0.3499695389339742
1.279990650717435 13.082950009190501 906.033122726527 40.115611741318354 0.3554383173567222
1.3070435182357398 13.084546662091265 806.1926955025328 41.94836505107826 0.3610467272032002
1.334077465497843 13.085235679284109 718.0159580127232 43.86691571685703 0.3667975654920334
1.361087801471701 13.085028155350967 640.1289609592264 45.8757996182204 0.37269772789654587
1.3880295564408858 13.08377768491227 571.3580560595733 47.98043073364652 0.3787576082493746
1.4148746873991467 13.081450697084842 510.43923505374204 50.18566060434337 0.38498332808256475
1.441607168837197 13.078004070199745 456.51519333148383 52.496536312392216 0.39138094958488173
1.4682033631234521 13.073397318898476 408.69218656539596 54.9195661223694 0.3979626272496171
1.4946146565868537 13.067523136711968 366.2468705624651 57.46094526811609 0.4047374310993338
1.5208277922019802 13.060368492141372 328.5902416821771 60.127307573069764 0.4117151419831403
1.5468127318348206 13.051869368688472 295.05593980954177 62.92576493744293 0.4189063101167091
1.5725306685603488 13.041977722541027 265.2461306495983 65.86395060680292 0.4263223184035842
1.5979439578987817 13.030631960967158 238.72044162904112 68.9500666060409 0.43397545109742636
1.623053149443197 13.017814495493624 215.05384681569788 72.19293577045663 0.44187896843338814
1.6477938676503365 13.003452167033586 193.9188408064942 75.60205885982215 0.450047187932764
1.6721432983345124 12.987504715023926 175.0950578792337 79.18723467288893 0.45849372492153945
1.696080078110562 12.969941970989698 158.2320603482353 82.95895760650492 0.46723309716195965
1.719558963448407 12.950713854669257 143.15593871346567 86.92983468030629 0.47628626753255027
1.742541999274985 12.929759602276587 129.67167397467662 91.11129685262992 0.48566696417030303
1.7650212920506438 12.90709182510086 117.57504116928038 95.51776136538382 0.49539838134486514
1.786932070175614 12.882610368998412 106.73555051845713 100.1625881039023 0.5054967923265588
1.808282226489545 12.856365616804409 97.00300384049159 105.06247908474401 0.5159885554340925
1.8289853580126845 12.828206020443135 88.25801327196918 110.2339937926952 0.5268962346013516
1.8490653463817808 12.798226236288729 80.4002430174158 115.69497888007699 0.538243949395081
1.8684375951560344 12.766267312286177 73.32155806177906 121.46528344384163 0.5500596521652915
1.8871137312261212 12.732426267443651 66.95301539222562 127.56635102805829 0.5623731905380462
1.9050313264771963 12.696591461343985 61.202790570643934 134.02100772245655 0.5752151898694255
1.922168997613193 12.658751577506397 56.02550077434958 140.85481064498168 0.5886214225163527
1.9384772897820444 12.618854406593236 51.35451656528561 148.0954626181895 0.6026301723138804
1.9539667525919437 12.576976232943249 47.122932244584604 155.77127579564024 0.6172764920663971
1.9685765679656142 12.533020339682043 43.30419818740221 163.91614563600967 0.6326087624591216
1.9822865353095591 12.486999355535524 39.84653321231927 172.56413377760904 0.6486694231459358
1.995067633242548 12.438895014700837 36.71549752209567 181.75410008248804 0.6655100924302719
2.0068972889102614 12.388711188650321 33.87571384474329 191.52833927891785 0.6831860625702879
2.0177365158541014 12.336412564315454 31.303008926767934 201.93294631348067 0.7017566465416651
2.0275672500644983 12.28200546113931 28.968608781849476 213.01765993779065 0.7212836961396389
2.0363652761267454 12.225511107301879 26.848469056282667 224.8385883219519 0.7418394309864466
2.0440997600727764 12.166891344794502 24.922411304280406 237.456417186909 0.7634992508757873
2.0507497011610463 12.106155926664549 23.169627883670813 250.9383838247901 0.7863467750213929
2.056312289840214 12.04338111164518 21.577387694419674 265.35786023264995 0.8104708350247477
2.0607482185375336 11.97850441640721 20.126325013655645 280.79622309420097 0.8359696949882122
2.0640431224398648 11.911579443018216 18.807228072651107 297.3438102742581 0.8629520299993785
2.066189320532279 11.842647673127866 17.606303507924697 315.1010091760262 0.8915380468693336
2.067174207989582 11.771733582252544 16.51155467850172 334.17703733282605 0.9218526197320371
