M[M_sun], R[km], Lambda[1], P_c[MeV/fm^3], rho_c[fm^-3]
0.24162668629717493 15.618656898711224 2160425.4255784233 3.5677272577965504 0.1711233750220791
0.25364353905976744 15.277280228184962 1723162.7821790988 3.7848103387863024 0.17388805754173944
0.26603833308666486 14.98131778395509 1383067.91799852 4.011382004759172 0.17666642572116054
0.2788131701555741 14.723586065583202 1116488.373109589 4.247698635958829 0.17945717115079582
0.2919665368537 14.498478736048504 905931.2503650282 4.494385245073126 0.18226685695083392
0.30550149093601847 14.301265069643307 738683.5162284881 4.751596273281435 0.18509116659774708
0.31941784001454687 14.128175564288995 605139.2638364047 5.020015926551449 0.18793676109247234
0.3337152570709629 13.976002156523236 497717.67255090934 5.299865589316732 0.1908002112563788
0.3483949273125528 13.84207794517981 411036.4343923452 5.59187697239456 0.19368787643068264
0.3634571718261816 13.724067197096016 335749.67871584685 5.896213444479702 0.1965947474339004
0.37890922626290374 13.62006829494674 283332.09922709165 6.2137406861971165 0.1995285387412265
0.3947416119140981 13.528469163116139 236419.5106380755 6.544718676946836 0.20248547440851736
0.410964262798863 13.44792206331955 197888.47804444958 6.889844685148206 0.20546917906770137
0.42757076248100223 13.377113020578554 166105.50113039315 7.249826031685397 0.20848276750523764
0.4445652180290159 13.314972406478926 139824.11659719943 7.624925432061512 0.21152184647741817
0.46194600951271003 13.260602560884973 117993.4083421891 8.016084383910595 0.21459246221204764
0.47970893448226326 13.213192545881386 99833.61082151218 8.424011231336749 0.21769631734680514
0.4978653749986786 13.172011439465612 84652.9968034535 8.849151994072903 0.22083095475057343
0.5164027623284254 13.136419614022936 71944.13366445352 9.292369630955736 0.2239996366257084
0.5353198819316459 13.10586420931556 61283.83422729353 9.754553643367975 0.22720535244118245
0.5546253256369201 13.079840676790482 52308.16033614462 10.236513448596545 0.23044945285911617
0.5743054833225334 13.057861407429268 44738.41905420613 10.738727258522946 0.2337287249145951
0.5943608756440814 13.0395629169992 38334.96969384945 11.262425638351063 0.23704917997517186
0.6147963741469704 13.024532199225161 32906.751423502414 11.808552653880666 0.2404125186344892
0.6355958773626473 13.012442458057823 28299.48101901209 12.378087094391903 0.24382037345528149
0.6567673141708572 13.003037017891266 24375.088356374956 12.971727700484927 0.24727080586976596
0.6782973974323772 12.99598735816415 21031.766662452723 13.59078167967006 0.25076838340231705
0.7001848803268498 12.99106759479369 18039.795150932183 14.236455730252658 0.2543158486153429
0.7224161820664121 12.988011542208568 15732.920539285793 14.909939258175832 0.2579151855906933
0.7450032626849035 12.986654193148349 13540.787130918807 15.612273724311228 0.2615664105541635
0.7679217230104017 12.986763909707811 11838.05688387889 16.344701533178963 0.2652711826425024
0.7911652804016294 12.988129698215074 10291.420899704526 17.108849665010684 0.26903430687512775
0.8147380415804363 12.990660544164845 8958.583311456852 17.906172793479765 0.272858215097669
0.838619167448396 12.994125385100293 7809.393299799856 18.738048594006997 0.2767441008987528
0.8627970991519698 12.998396742858532 6816.152138103503 19.605796429701947 0.280692222843306
0.8872708414193896 13.003353756879736 5956.976177461183 20.5115135571436 0.2847090487812646
0.9120298538353376 13.008830614386502 5212.510331752666 21.456993601694972 0.2887975910624851
0.937048517280615 13.014724114247624 4566.473777518277 22.44373628095215 0.29295789875211425
0.962325097164244 13.020925080963307 4005.695915856511 23.473735185261685 0.29719351862933124
0.9878478196331422 13.027324418601435 3517.3980777237393 24.549427118509822 0.30151067296139494
1.0135872074345638 13.033776640377232 3093.023743406239 25.672772524301873 0.3059111304310671
1.03955017162801 13.040236846303243 2722.2350331350617 26.845695456022625 0.3103958782000532
1.0656998829508413 13.046556617970783 2399.005387762176 28.071309542248983 0.31497378281285765
1.092029933162608 13.052685705175028 2116.2795086869655 29.35169011281497 0.31964543244010285
1.1185264011726388 13.058521734142024 1869.114664363353 30.68955091069073 0.32441522744867607
1.1451553848469802 13.063979434676387 1644.658388731862 32.08833448947896 0.32929151644642923
1.171917480163463 13.068993648569993 1462.5578187302403 33.54993366588783 0.3342716859857052
1.1987706843528407 13.073458618950259 1295.8323302053366 35.078912473685065 0.3393694521100187
1.2257150761752538 13.07732320884807 1149.37294846561 36.677321287033315 0.3445817446709381
1.2527088870980063 13.080491198736835 1020.455248553702 38.35016522836445 0.34992271752392984
1.279749337506999 13.082933272008749 906.9944196894842 40.09971344202955 0.3553891333300013
1.306792779580381 13.084518048039506 807.0003168260882 41.93143661247946 0.36099554996866884
1.33382628362267 13.085238190909223 718.7827223564707 43.84876732177734 0.3667436190761978
1.360834691785745 13.085032214683277 640.8299069315381 45.85646929719465 0.37264151794882866
1.387764191888362 13.083779545406957 571.9939901927291 47.95983591203846 0.378698988738925
1.414619389244553 13.08149233621594 510.9853285442964 50.163575426836005 0.3849214429813522
1.4413424266155557 13.078042406503368 457.0331139055855 52.472995842158916 0.39131631627347313
1.467934936418896 13.073454048944177 409.1406292832207 54.89446611277676 0.39789506253793205
1.4943439129787395 13.067590068333171 366.6590171795622 57.434173027823796 0.4046667376347547
1.5205542504136615 13.060448541390631 328.9465236669401 60.098741209893085 0.4116411070873548
1.5465372056685844 13.051967878948465 295.3848216512558 62.895272526760536 0.4188287045072683
1.5722533083779997 13.042094809271694 265.55821314758856 65.8313892761076 0.4262408947878093
1.597676755745404 13.030771565486448 239.00378168940242 68.9152815262058 0.43388994262483516
1.6227642197955154 13.017957940601917 215.30655887967177 72.15575904313421 0.4417890869911736
1.6475156332215486 13.00362556317635 194.16669884286677 75.56230828907647 0.4499526222669816
1.6718646819494571 12.987696132233484 175.29061748329312 79.14492000052299 0.458395005275021
1.6958022877336907 12.970155732741427 158.4205312435738 82.91366593278444 0.46712901702766074
1.7192677064355115 12.950916295575718 143.3309008290251 86.8813328253355 0.4761764346944081
1.74226896719844 12.930021124086169 129.82387592690128 91.05956462901298 0.48555187901470237
1.7647497496763038 12.907380336041635 117.71950606005963 95.46230035002795 0.49527668749333137
1.786677638528943 12.882953944529206 106.85670013394791 100.10335000321682 0.5053689590752517
1.8080171112947747 12.85670826218916 97.11742757852893 104.99915668037828 0.515854090175693
1.8287290997119168 12.828582806343794 88.36148144814887 110.16625198151668 0.5267546044940249
1.8488106468381051 12.798626678532017 80.4929578768247 115.62217503004139 0.5380935617635848
1.868198604374696 12.766727609093037 73.40700340355062 121.38728508006578 0.5499008760798554
1.8868706236527721 12.732891415367556 67.03243946568183 127.48291244491978 0.5622060309055048
1.9047952328554671 12.697087253251771 61.27998287892176 133.9315726057573 0.5750386171797041
1.9219403067548857 12.659284696341707 56.09394745534215 140.75875017196915 0.5884342601849726
1.9382561025571967 12.619406962468421 51.410125898062496 147.99220145076495 0.6024315443207758
1.953757116343871 12.577577310056787 47.178936423324075 155.66052219108784 0.6170666028991783
1.9683762983012651 12.533661871933163 43.35352526685001 163.79722833889113 0.6323866239598326
1.9820962562217328 12.487676315855133 39.8936363368667 172.43595768170385 0.6484327599993313
1.9948892732015335 12.439614183284363 36.75823723855496 181.61620048260565 0.6652589063969999
2.006723244505839 12.389451912070799 33.915537003907396 191.3798205427283 0.6829190686570257
2.0175826182426078 12.337208323578858 31.339635962862246 201.7728204457302 0.7014724389215224
2.0274222195202363 12.28283825653591 29.00041706331109 212.84523975047117 0.7209820573374957
2.0362385088479775 12.226386664143805 26.879053483321748 224.65227765198256 0.7415173885579766
2.0439891877309977 12.167808736025941 24.951183909956516 237.25530825336088 0.7631563416699064
2.050654592635341 12.10711997925089 23.195830882073132 250.72097657335738 0.7859808876616022
2.056227002134894 12.0443677186037 21.600137638853315 265.1223533469608 0.8100792004245689
2.0606869827248824 11.979556658857641 20.148970966352884 280.54134440820485 0.8355516346206839
2.0639983813279463 11.912676659209366 18.82726489319798 297.06728390853647 0.8625040077386069
2.066166525745796 11.84379317605844 17.624093138366465 314.8006142412053 0.8910571736618218
2.067165988747562 11.772917825097162 16.52862431462639 333.8507922639453 0.9213373417060123
