M[M_sun], R[km], Lambda[1], P_c[MeV/fm^3], rho_c[fm^-3]
0.24162668629717493 15.618656898711224 2160425.4255784233 3.5677272577965504 0.1711233750220791
0.25364345834425195 15.277290551916842 1723251.2942873226 3.7848092501818735 0.1738880439728104
0.26603815851450746 14.981312360852842 1383071.0858395894 4.011379716301274 0.1766663980664974
0.2788128747176464 14.723551679269288 1116501.296484557 4.24769507023143 0.1794571297937314
0.2919666160858115 14.498472040094201 905945.0187303227 4.494380308515095 0.18226680198111453
0.30550122695506177 14.301280910920614 738698.570073012 4.751589798281111 0.18509109665538584
0.3194170476499938 14.12819024570202 605141.7836877957 5.020007865419112 0.18793667745511305
0.3337146440127459 13.975974669328522 497700.4073265003 5.299855729833832 0.19080011198774582
0.3483943624809595 13.842082565799576 411038.336046491 5.591865289951377 0.19368776339983113
0.36345627666911384 13.72403253951616 340669.8030557986 5.896199676624968 0.19659461812329515
0.3789094900449151 13.620032972950156 283332.3909077555 6.21372466633113 0.1995283926593379
0.39474057216421443 13.528481965246945 236423.93612456985 6.544700421709239 0.20248531433474526
0.4109636112039347 13.447916809043468 197890.7429581298 6.889823842137958 0.20546900155987968
0.4275715862934958 13.377080527219979 164089.43313862593 7.249802405327891 0.2084825720504369
0.44456375588877406 13.314995126102193 139820.5436049982 7.624899087663908 0.21152163675907384
0.46194466427165637 13.260606014265617 117990.99133036357 8.016054861984431 0.2145922338360813
0.4797075000643856 13.21319604415371 99826.03389615031 8.423978301691202 0.21769606976190542
0.49786387779725877 13.172016115604045 84655.88172133619 8.849115778129857 0.2208306925316719
0.5164001068265817 13.136435916414705 71949.3998992054 9.292329542656125 0.22399935440157995
0.5353171505860634 13.105876363134415 61287.319652341226 9.754509410923047 0.2272050496024509
0.554623237600604 13.079845232299887 52308.7519542901 10.236464783703452 0.2304491287699124
0.5743032952147428 13.057877306562311 44738.142858912295 10.738674372633067 0.2337283853708001
0.594359252458848 13.039553112021217 38336.1362549825 11.262367736177662 0.23704881820134463
0.6147940233325011 13.024519843905477 32907.69965498206 11.80848939339179 0.24041213390516905
0.6355941562565897 13.012442611999031 28301.271196926326 12.378018112218237 0.24381996500671252
0.6567651911425904 13.003047500984 24376.185587307013 12.97165331340176 0.24727038070370244
0.6782951798012561 12.995983025777567 21032.812710651204 13.59070083142252 0.25076793326093527
0.700181987905493 12.991070347894407 18040.68524955254 14.23636798737987 0.25431537260597575
0.722413629163652 12.988009072396512 15733.651188673479 14.909844159367784 0.2579146827674474
0.7449999941966179 12.986646946794409 13541.019070324586 15.612171706446498 0.26156588910651013
0.7679184558041555 12.986757025909071 11838.259459551346 16.344591214805977 0.2652706327330818
0.7911616850076257 12.988129208464311 10291.637958040972 17.108730492509306 0.2690337273796088
0.8147336142466789 12.990660565425422 8958.16848694388 17.906044176527235 0.2728576048194258
0.8386142895565349 12.994116118724634 7809.429938327143 18.73791110305218 0.27674346919895515
0.8627926713431057 12.998398221695098 6816.341872197751 19.605648277147356 0.2806915581762285
0.8872666383587129 13.00333390447893 5956.933429600019 20.511354029994706 0.284708349708563
0.9120244669881806 13.008831590939412 5212.582294583925 21.45682193813551 0.288796856048835
0.9370438878882843 13.014719138728298 4566.498926489675 22.44355319603872 0.29295713832161663
0.9623194551200493 13.020927866224703 4005.8866726415595 23.47353838157755 0.2971927193510939
0.9878442650515828 13.027314083614023 3517.535682529644 24.549215669800784 0.3015098329760534
1.0135833108594006 13.033779221628603 3093.0807507550085 25.672547249015285 0.30591026105035063
1.0395449146135514 13.040234324452696 2722.285616163197 26.845453600340136 0.3103949645128356
1.065694192102817 13.046557049687038 2399.0310367999436 28.071049974158367 0.3149728225576216
1.092023664455807 13.052686392291353 2116.354311629623 29.351413752216956 0.31964443771163625
1.1185203183525347 13.058524796650723 1869.1721356877213 30.689254458401237 0.32441418169401526
1.14514992512397 13.063980425298082 1652.4741518475028 32.08801891299404 0.3292904321567101
1.1719108628755244 13.069000647659633 1462.5998724325134 33.54959526386532 0.33427054553599866
1.1987656997614682 13.073455385598876 1295.8702362930258 35.07854964910656 0.33936825234749957
1.2257090174333878 13.077319646854967 1149.439056789934 36.67693509271169 0.34458049886783815
1.2527023388461054 13.080491039732694 1020.4979992965996 38.3497512213583 0.34992140604049365
1.2797413871965886 13.082931025216839 907.000279299481 40.09927270149008 0.35538776982601405
1.3067865445082072 13.084516027026273 807.0518409661055 41.9309673167434 0.3609941312165607
1.3338201546355235 13.085233055051255 718.8061845773303 43.84826420980264 0.36674212356721864
1.3608277505287045 13.085038798135571 638.2653850660191 45.855933423078156 0.3726399596996909
1.387757272024438 13.08378277690966 572.0000418906573 47.95926498714045 0.3786973637023667
1.4146121211505742 13.081492328449041 510.9868693285097 50.16296319146674 0.3849197274303778
1.4413346384964743 13.078044261802704 457.0416027315904 52.47234326813441 0.39131452454970017
1.467927349884294 13.073451556217183 409.1639564138985 54.893770310884356 0.3978931895643749
1.494335951649258 13.067589961512306 366.6542469984228 57.433430874836404 0.40466477794197764
1.5205470902575384 13.060452421229177 328.95275764032976 60.09794932761853 0.41163905478124535
1.5465295709846019 13.0519706048762 295.3944585767762 62.894427259000835 0.41882655323361806
1.5722452065310728 13.04209549498456 265.5677805848795 65.83048666329493 0.42623863769335757
1.5976690039453103 13.030775337746368 239.0064746732764 68.91431727745486 0.4338875723143951
1.622752326308824 13.017965493886955 215.3005062339689 72.15472850541668 0.4417865954804092
1.647507757734766 13.003629497116142 194.17054019070875 75.56120641318911 0.4499500009303582
1.6718566554798475 12.987702964581278 175.2976469675252 79.14374705627328 0.4583922688095058
1.6957945871739415 12.970162884062736 158.4244392146806 82.91241047775196 0.46712613199565256
1.7192595862250384 12.950923201714552 143.3390853457269 86.87998839762501 0.4761733902271149
1.7422613370321869 12.930028289225458 129.8246613412199 91.05813066898459 0.4855486889814609
1.764742336794684 12.90738961816276 117.72419845811154 95.46076304573684 0.4952733143044533
1.7866701579164497 12.882963299779602 106.86066170425788 100.10170801614768 0.5053654157383921
1.8080097106566337 12.856717461125992 97.12150365276023 104.99740149709393 0.5158503630403096
1.8287219474430165 12.828594578273483 88.3633379290377 110.16437431598098 0.5267506787948634
1.8488026417676082 12.79863813349612 80.4938299770191 115.62015707504689 0.5380893933649088
1.8681916416739768 12.766744164853309 73.41151497976789 121.38512316444466 0.5498964752119045
1.8868639529718862 12.732904129770851 67.03405370941296 127.48059443254347 0.5622013786731613
1.904788674653502 12.697100310029683 61.28019713470842 133.92909373612653 0.5750337231213707
1.9219339957638588 12.659299573717309 56.0960302116114 140.75608769384905 0.5884290726651055
1.9382510887236362 12.619422114678235 51.41163810199287 147.9893394223777 0.6024260390667782
1.9537509155284924 12.577594925174255 47.17823763837382 155.65745252809072 0.6170607855805211
1.9683705186742357 12.533680471081665 43.355290803082056 163.79393244198914 0.6323804671970289
1.9820910200579682 12.487695707000523 39.89531290660431 172.4324052089422 0.6484262007467961
1.994885364703701 12.439633401768626 36.76016154112044 181.61237855765444 0.6652519447077073
2.0067174458072294 12.389474746287418 33.916736893881136 191.37570435048303 0.68291166892886
2.017578056647585 12.337230053067263 31.339580041105148 201.76838261248884 0.7014645622052752
2.027419183444094 12.282861126909587 29.002489062333886 212.8404612359242 0.7209736976121852
2.0362349291120405 12.226410894132849 26.87981061085244 224.6471142346863 0.7415084634682565
2.043985420004117 12.167834604271228 24.951166432136382 237.24973478208116 0.7631468383893867
2.0506514318446687 12.107146879185208 23.196206079357427 250.71494068954814 0.7859707125258444
2.0562243994846168 12.044395583731221 21.601199412641968 265.1158221855224 0.810068332192483
2.0606843908402674 11.979585669591302 20.14883799734 280.5342810484787 0.8355400490667505
2.06399743635876 11.912706301543311 18.827921135390813 297.0596207402336 0.8624915920328612
2.0661655488418877 11.843824536576838 17.624790384071403 314.7922897403734 0.8910438477732932
2.0671658546500296 11.77294981980936 16.528870743718088 333.8417515356008 0.9213230625977604
