M[M_sun], R[km], Lambda[1], P_c[MeV/fm^3], rho_c[fm^-3]
0.24162668629717493 15.618656898711224 2160425.4255784233 3.5677272577965504 0.1711233750220791
0.2536442777340865 15.277287247940698 1723220.7601875295 3.784825022771842 0.17388824057053542
0.26604049530550605 14.981234518296233 1383058.7899547368 4.0114128734392915 0.17666679875094232
0.27881601184083404 14.72347536516567 1116458.3435643231 4.247746733681301 0.17945772901189475
0.29197084858617267 14.498387089248599 905845.0966137446 4.49445183397135 0.1822675984336701
0.305506033257804 14.301230227583007 738671.0221548442 4.75168361437028 0.18509211004819956
0.31942411050393354 14.128078864562799 605105.0127545695 5.020124663218674 0.18793788927736332
0.3337220318107178 13.975903637569129 497668.25377774535 5.299998584312384 0.1908015502953064
0.34840282798913047 13.842012232278705 410997.33151075884 5.59203455778528 0.1936894011126881
0.3634662967282854 13.7239896179173 340639.7471637795 5.896399160649544 0.19659649171946927
0.37891978995855535 13.619984176563557 283298.21075270575 6.2139567805814755 0.19953050926181728
0.3947514295783553 13.528480796133422 236395.4437665474 6.544964925195444 0.20248763367299258
0.4109774494669894 13.447875063076536 197861.43495468202 6.890125841072052 0.20547157350953135
0.42758534120943675 13.377072703911104 166080.03958706983 7.250144733617949 0.20848540404464933
0.4445818861639559 13.31490479347073 139795.53379947125 7.625280799154125 0.21152467542797568
0.46196305673717647 13.26055796793709 117975.96360888438 8.016482614611128 0.21459554284847196
0.47972917566528345 13.213128224305175 99803.85697420221 8.424455430984302 0.217699657107175
0.49788550846502433 13.171974637641366 84639.78132273366 8.849640524843464 0.22083449192208543
0.5164242896641249 13.136391668981279 71935.87254319892 9.29291039879036 0.2240034436649771
0.535343431126015 13.105834429037763 61272.2859880799 9.755150314805622 0.22720943756968118
0.5546505279826012 13.079828508833447 52296.48604190944 10.237169912970144 0.23045382465575676
0.5743330934919374 13.057846913563107 44729.17184329418 10.739440663501084 0.23373330519553995
0.594391348765173 13.039513831274668 37991.46397572687 11.263206712491728 0.2370540601405373
0.6148277580317024 13.024511175044779 32899.54799707111 11.809406011384032 0.24041770847190524
0.6356324262363675 13.012447304830765 28289.97772696155 12.379017637325855 0.24382588326904245
0.6568034910847418 13.003024070375872 24369.670403922944 12.972731155649829 0.24727654120800238
0.6783356693086091 12.995986300656648 21027.110114829953 13.591872296315378 0.2507744556636045
0.700224709611963 12.99105992158491 18171.781382156816 14.237639356069804 0.2543222698431678
0.7224590977507918 12.988005924930766 15728.823389363199 14.91122211658087 0.2579219685466579
0.74504659122887 12.986642434469328 13633.344256644406 15.61364992181386 0.2615734447629291
0.7679674043736013 12.986758566998573 11835.324526343426 16.34618970629466 0.2652786008122374
0.791213447766834 12.988136483277636 10288.19724468992 17.110457282549355 0.26904212417483336
0.8147881685384406 12.990657740391224 8955.66387369472 17.907907819423272 0.27286644767171064
0.8386733991428023 12.994113809991715 7806.727944076417 18.739903332847476 0.27675262246405713
0.8628522851798534 12.99840518552704 6814.280495715902 19.607794997411734 0.28070118915618913
0.8873332596470642 13.003356685455962 5955.066341192705 20.513665572739875 0.2847184792472827
0.912089821138864 13.008852734719884 5210.835231426476 21.459309342880648 0.28880750639563363
0.937109295093703 13.014742685392585 4565.0113262290815 22.446206101240573 0.29296815697948997
0.9623937124816015 13.02095001567236 4004.3179049315813 23.476390078892667 0.2972043009412125
0.9879148863124275 13.027332580395544 3516.3398966918817 24.55227958173797 0.3015220044436725
1.0136568099443677 13.033790525790396 3091.675440092842 25.67581151569494 0.30592285848412964
1.0396213967576748 13.04025355831747 2721.2263902463164 26.84895812749846 0.31040820398538116
1.065771942088976 13.04658075884133 2398.0191780424734 28.07481116612239 0.31498673684218814
1.0921060579618345 13.052704991617967 2115.6438919737366 29.355418278809 0.31965885154857576
1.1186034258411208 13.058540188072827 1868.484823971202 30.693550128781123 0.3244293349496328
1.1452347097875994 13.06399449564912 1651.9718548267585 32.09259170717113 0.3293061438271005
1.171998579952882 13.069007628651432 1461.9681752763968 33.55449881913003 0.3342870710228184
1.1988554711818376 13.073468780322031 1295.3888493191355 35.083807108683615 0.33938563734102034
1.2258012193184846 13.077332526936852 1148.9438092570222 36.68253120009662 0.3445985510440031
1.2527967373214284 13.080500305078878 1020.062461278007 38.355732488202676 0.34994030515533403
1.2798411326230332 13.082933824784016 906.660100233199 40.10565923566301 0.3554075276291419
1.3068833682322412 13.084527935116704 806.6571474272298 41.9377676438739 0.36101468963572125
1.333920556383775 13.085237113592644 718.542393863627 43.855554570959164 0.36676379429087297
1.3609297570773617 13.08503235507962 640.5608407624187 45.86369854283099 0.37266253961312035
1.3878605499663108 13.08377232040071 571.7541552666438 47.96753803175983 0.37872091145795034
1.4147179845165803 13.081481023136783 510.7808005012709 50.171834875101 0.38494458686560074
1.4414406036404157 13.07803032258172 456.8244566039925 52.48179950754604 0.3913404878401778
1.4680359636046139 13.073429252942216 408.9825159624211 54.90385297612906 0.39792033028588586
1.494444919908886 13.067565500183306 366.50098669841935 57.44418522744424 0.40469317535798965
1.5206566513200586 13.06041942888422 328.8042346105201 60.109424324236365 0.41166879430998715
1.5466406067507614 13.051930138525934 295.2638648514078 62.906675885332525 0.4188577269614412
1.5723580875117817 13.042048270100011 265.44462470531084 65.84356630171277 0.4262713449393536
1.5977810796655294 13.030721596510473 238.89610233866745 68.92829011206611 0.4339219202518166
1.6228681590141965 13.01789773777345 215.2137392317183 72.16966196883587 0.4418226998211096
1.647619784640664 13.00355970254028 194.0832622094465 75.57717367979168 0.44998798667920836
1.671968618334626 12.98762402271187 175.2152975087243 79.16074421505303 0.4584319229864788
1.6959061689193957 12.97007274744143 158.34652560947276 82.93060335676819 0.4671679391786456
1.719386152298759 12.950862974730184 143.26485308749284 86.89947064555864 0.4762175079332362
1.7423674015213033 12.92991068378568 129.77164751626015 91.07891039530372 0.48559491622377865
1.7648513586729822 12.907274803099275 117.66863615018973 95.48304042136816 0.4953221958408847
1.7867778233422016 12.882835279539824 106.81358875006907 100.12550243839947 0.5054167630693197
1.808117262747733 12.856578068558347 97.0797091647043 105.0228363476484 0.5159043739987755
1.828826287126718 12.828444734394822 88.32094201737412 110.19158417414177 0.5268075673702441
1.8489052006463957 12.798478492414265 80.4551749284748 115.6494000184944 0.5381497991951074
1.8682825809547208 12.766540119942627 73.38008966207313 121.41645239730336 0.5499602500491219
1.8869609985092288 12.732717906209716 67.00193493847765 127.51417927642666 0.5622687729077888
1.9048843377195015 12.696901134750998 61.25125045195389 133.96501631339365 0.5751046454427572
1.9220259377876183 12.659083737582518 56.06939086617634 140.7946711747975 0.5885042479585493
1.9383398598624582 12.619196024490035 51.38668215887847 148.0308148530794 0.6025058191212642
1.9538369125010617 12.577351515809962 47.1579495660338 155.70193707282516 0.6171450882457585
1.9684516553367346 12.533421271975861 43.3352272459226 163.84169566365657 0.6324696892920436
1.9821672110013944 12.487421192408178 39.87637633808716 172.483886866775 0.6485212559990964
1.9949591492844179 12.439344765220943 36.74375014907294 181.6677652696729 0.6653528323716292
2.0067923381713495 12.389184978908904 33.9001166321358 191.4353557731478 0.6830189050067957
2.017641061961049 12.336910220239277 31.326521564921027 201.83269548771506 0.7015787112148597
2.0274756599719117 12.28252521682295 28.987927183542443 212.90971152067473 0.7210948468422433
2.036286289097731 12.226060153790437 26.86684549666831 224.72194286670185 0.7416378065401124
2.044031250622491 12.167465010997375 24.94061527394278 237.33050629197615 0.7632845612335549
2.050690097183502 12.106758825518769 23.185530785773025 250.80229756751132 0.7861177936843535
2.056262491095955 12.044012846482723 21.591879868343558 265.210473562225 0.8102258375824452
2.0607089764844875 11.979163954189065 20.140354391401782 280.6366456497061 0.8357079508379157
2.0640160522980313 11.912267015782733 18.820615369527836 297.17067852762443 0.8626715255478926
2.0661757379586017 11.843367295056973 17.616864845930035 314.9129324598011 0.8912369730385002
2.067168806843653 11.772473350981873 16.522338501231086 333.9727748460588 0.9215300034505607
