M[M_sun], R[km], Lambda[1], P_c[MeV/fm^3], rho_c[fm^-3]
0.24162668629717493 15.618656898711224 2160425.4255784233 3.5677272577965504 0.1711233750220791
0.2536448375602159 15.277247593434941 1723196.9638390224 3.7848341050945753 0.17388835377730683
0.2660407493679428 14.98126522700021 1383014.4253508076 4.01143196638676 0.1766670294779446
0.27881644722298865 14.723491235245078 1116351.2651672668 4.247776483292755 0.17945807406255593
0.2919725977807168 14.498387555711941 905842.3380051468 4.494493020997586 0.18226805706076626
0.30550890478389003 14.301183770605753 738619.1702742233 4.751737637414818 0.1850926936001851
0.31942650036563136 14.128084902979834 605059.0418916962 5.020191920331148 0.18793858709586408
0.3337266357296974 13.975863591059932 497646.9581907968 5.300080846319212 0.19080237853721782
0.34840771101174184 13.841971026894182 410971.6764894745 5.592132030179084 0.19369034418491188
0.36347057660629706 13.72394827486933 340631.95910621755 5.896514033436201 0.19659757062899125
0.3789268745940586 13.6199416393248 283282.8167654543 6.214090444031167 0.1995317281115372
0.3947585724868204 13.528419279232317 236380.5540507603 6.545117240635551 0.20248896927363422
0.41098562476879485 13.44782875952667 197839.3779501437 6.890299749139738 0.20547305458361345
0.4275941787093063 13.377021748321239 166061.80513557044 7.250341866417679 0.20848703487378067
0.44459089318113604 13.31488238040017 139775.3295804263 7.625500611927452 0.2115264252789905
0.4619738400774471 13.260522650384516 117966.30608463343 8.016728941673684 0.2145974483874477
0.47973937864784433 13.213125088403197 99792.7303807096 8.424730193361919 0.21770172293614393
0.4978980351783982 13.171952828477016 84626.79180743566 8.84994270952389 0.22083667986828528
0.5164381464028405 13.1363782649083 71926.03247073444 9.29324489639763 0.22400579854898578
0.5353583275586059 13.105811558297441 61265.164894124064 9.755519393564638 0.2272119644782302
0.5546662125089825 13.079799011377053 52296.80197038594 10.237575978943529 0.23045652889673263
0.5743506910958679 13.057842703799357 44721.88776074218 10.739881952372905 0.23373613840679122
0.5944092119165237 13.039505888588915 38320.7735907232 11.263689861085252 0.23705707886169283
0.6148477451412893 13.02448035381797 32895.5278615416 11.809933874222937 0.24042091875868546
0.6356531609435048 13.012429284009825 28286.455028795484 12.37959324703368 0.24382929149683444
0.6568254381533364 13.003015131826048 24365.948677845972 12.973351868915131 0.2472800889504914
0.678358378326701 12.995969820071279 21023.285200991773 13.592546928078889 0.2507782118325191
0.700248197135141 12.991051548800367 18168.267966801388 14.238371524001748 0.2543262418899321
0.722484325990292 12.988007822195636 15725.242545742358 14.912015670810511 0.25792616436700255
0.7450738728306695 12.986639169639094 13630.922471712618 15.614501216625854 0.26157779601732184
0.7679958385361861 12.986766291176027 11833.432977309109 16.347110270934557 0.2652831895960817
0.7912426196443811 12.9881498350417 10286.566029121655 17.111451737669316 0.269046959873331
0.8148196034137786 12.990671680790243 8954.354633191135 17.908981092041017 0.27287154027353916
0.8387023479010179 12.994147840950449 7805.621078793984 18.74105066237373 0.27675789384958605
0.8628839366788502 12.998419916876152 6812.313102598641 19.60903130319845 0.2807067356805569
0.8873691469072782 13.003371289498999 5953.8896377510155 20.514996805789423 0.2847243129169168
0.9121264898395576 13.008852308265514 5209.711459381165 21.46074186173517 0.28881364002652987
0.9371477544523834 13.01475176035741 4564.015377067949 22.447733938228147 0.29297450274451786
0.9624333084500964 13.020958493398446 4003.4457263550084 23.47803240901718 0.2972109709318319
0.9879552749892988 13.027357953713752 3515.5107384401235 24.554044136204123 0.30152901418089323
1.0136992623095809 13.033804664884313 3091.0638773626533 25.677691463726873 0.3059301135656424
1.0396656978486176 13.040263238967013 2720.742395706773 26.850976454007323 0.3104158288594925
1.065818633747871 13.046585674138077 2397.525880569291 28.076977319943374 0.3149947503870878
1.092152574607118 13.052713792397066 2115.031308917752 29.357724582176555 0.3196671528246215
1.118652069605129 13.058550413074297 1867.8276494198317 30.69602411930745 0.324438062111525
1.1452856737198736 13.064010114679757 1651.6060285726062 32.09522530966782 0.32931519262587966
1.1720498181741814 13.069012152937837 1461.637087902659 33.557322928523554 0.3342965885626525
1.1989069877986946 13.073474262683979 1295.0081448341743 35.086835055733786 0.339395649941037
1.2258542390322622 13.077338189791163 1148.700875304064 36.68575419722868 0.3446089479338419
1.2528506515366922 13.080502741455138 1019.8198117407891 38.35916361648704 0.3499511094493711
1.2798950667450935 13.082939163800829 906.4312874313879 40.1093374975767 0.355418906942675
1.3069391810969104 13.084524926607035 806.535899923539 41.941684240376915 0.36102653010031166
1.3339781925967498 13.085238477042715 718.3675187788615 43.85975341833216 0.36677627543674945
1.3609881873196457 13.085031125302658 640.4064733494654 45.86817084228843 0.3726755444524266
1.387921036846658 13.083771479312292 571.613393856565 47.97230288784268 0.3787344737764911
1.4147709388587077 13.081461452589606 510.64637949643213 50.17694454187597 0.3849589047150011
1.441501984831428 13.078022229768793 456.7262199034848 52.487245872765364 0.39135544151849333
1.4680978061340395 13.073417725777635 408.8784093784385 54.90966015837138 0.39793596217608324
1.4945078331251571 13.067550270033935 366.412008849654 57.45037929905661 0.40470953111967967
1.5207197404877941 13.060400476079119 328.7325250885899 60.116033486273444 0.4116859231485312
1.5467044329697812 13.051908645811478 295.1925738294881 62.913730659953956 0.4188756819237322
1.572420619707361 13.042024835600762 265.37455548527385 65.85109974397973 0.42629018323912543
1.5978337982108737 13.030684743705557 238.8283410525692 68.93633804332215 0.4339417036276917
1.6229321402981898 13.017861755589502 215.16205143438572 72.17826323411676 0.4418434949309538
1.6476843852727585 13.003519398042787 194.0311863126436 75.58637043201988 0.4500098655348117
1.6720336924335912 12.987581394209155 175.16674785458827 79.17053420038883 0.4584547629102625
1.6959703359926876 12.970021945757658 158.30866517701133 82.94108210380618 0.4671920193088198
1.7194505658821955 12.95080670742962 143.22780099717775 86.91069210285103 0.4762429190129414
1.7424267662562092 12.929828948073954 129.74171787269705 91.09087923344501 0.4856215424830721
1.7649148066018152 12.907203888464252 117.63643001123897 95.49587195557085 0.49535035109206776
1.7868410466501379 12.88276585946712 106.78715845395287 100.13920784191296 0.5054463387355097
1.8081783862803915 12.85649941885443 97.04807268123388 105.0374866985419 0.5159354840496062
1.8288918193630266 12.828369364180075 88.30046438110993 110.20725700188942 0.5268403350839705
1.8489649762239915 12.798382000394202 80.43353227776159 115.6662440023441 0.5381845930533289
1.868340466140594 12.76643791658777 73.36147731503578 121.43449818667564 0.5499969846632398
1.8870175518224654 12.732611633580445 66.98305352255285 127.5334595827544 0.5623073609144096
1.904938947039839 12.69678666958288 61.23362631383308 133.98570811548504 0.5751454974848331
1.9220783135327622 12.658961452159621 56.05324107996234 140.81689582183665 0.5885475500225876
1.9383898026908724 12.61906609491313 51.37243421573464 148.05470545507438 0.6025517738828332
1.953884814763421 12.577213371734484 47.142483649622186 155.727561127359 0.6171936483941042
1.9684988327402917 12.533274228990685 43.32510502184087 163.8692084721014 0.632521083446866
1.9822105364320066 12.487266996058825 39.86445838724678 172.51354179218865 0.6485760105764702
1.9949960424115891 12.43917937688686 36.73180511583297 181.6996698260788 0.6654109469635043
2.0068312219977344 12.389010303907645 33.89184746039917 191.46971717344496 0.683080676908213
2.0176748651393717 12.336727338007844 31.31581003835201 201.86974231374464 0.7016444656766943
2.0275105693974966 12.28233401135072 28.981982280814396 212.94960275988487 0.7211646341786244
2.036314685499042 12.225855968771157 26.859839469880374 224.76504780579177 0.7417123144535124
2.0440555904315016 12.167253264616548 24.933556445442235 237.37703495445535 0.7633638968772777
2.050712352611022 12.10653577481211 23.179456494575806 250.85258616093978 0.7862024102326468
2.056282217869025 12.04377822733109 21.586428511897278 265.2649986297467 0.8103165704626409
2.0607247322736066 11.978919076602532 20.135387838088043 280.6956144632402 0.8358046734169827
2.064025634897339 11.91201527533444 18.81552401947084 297.2346557373825 0.8627751800912085
2.06432893743523 11.851014942901125 17.844713733503117 316.6462574131524 1.805820435734482
