M[M_sun], R[km], Lambda[1], P_c[MeV/fm^3], rho_c[fm^-3]
0.24162668629717493 15.618656898711224 2160425.4255784233 3.5677272577965504 0.1711233750220791
0.25363375889296325 15.27753429834445 1683984.6736942793 3.784629424693794 0.17388580253485217
0.2660180633681517 14.981763610219511 1383486.4780298672 4.011001701026412 0.17666182997499003
0.27878134917581027 14.724157681401508 1117115.7364329738 4.24710609051894 0.17945029851664002
0.29192407116099345 14.499119598999687 906531.0719260914 4.493564923771667 0.18225772248275554
0.3054452254972038 14.302023882880885 739326.9924267106 4.750520339449361 0.1850795444589101
0.31934790374888594 14.128988562470196 605676.3096990559 5.018676470064111 0.1879228637144335
0.33363184665354206 13.976840822065013 498268.5559864233 5.29822736610058 0.19078371706689604
0.348297961144588 13.842892355059089 411548.6317695255 5.589935908122569 0.19366909609988273
0.36334445893889666 13.724851879170666 341134.2276720765 5.893925954476589 0.19657326284370666
0.3787813170692562 13.62086687424966 283748.3120992268 6.211079111871731 0.1995042683881231
0.39459593089233896 13.529286514462516 236809.7604289233 6.5416857975229625 0.20245888015318939
0.4108033161352227 13.448673032026145 198239.91628977956 6.886381982920631 0.20543968924246475
0.4273927421961525 13.377818208686872 166416.28937581822 7.245901041246324 0.20845029706522405
0.444367606735886 13.315650198614245 140098.18012714083 7.620549016245161 0.21148700739349388
0.4617299566921618 13.261228687889325 118242.02650962064 8.011180249816418 0.21455452477000705
0.4794737938490339 13.213773289770208 100038.99629012214 8.418541171200902 0.21765519014158738
0.4976095628726496 13.17255740272435 84849.65683949435 8.843136188805923 0.22078739775008466
0.516124531521856 13.136906043872878 72127.92404900443 9.285710781867376 0.22395275791299551
0.5350221533352989 13.106304649702782 61443.02424606046 9.747206642566262 0.2271550509846998
0.5543047704267011 13.080249437094455 52445.1600577421 10.228430449059069 0.2303956232353849
0.5739620811888332 13.058198051280856 44857.46692510389 10.729943386815942 0.2336723297373332
0.5939996454851475 13.039850848921533 38440.54481407899 11.25280887822142 0.2369890942838541
0.6144086822230375 13.02478719625644 33002.784233695216 11.798046246730713 0.24034862214946423
0.6351838823092388 13.01267176398211 28382.340713148304 12.366630742838678 0.24375253954763954
0.6563274017846678 13.003195899262955 24256.69656434735 12.95937401041994 0.24720019724322354
0.6778359156111162 12.996136178781308 21097.526545708122 13.577355340549023 0.25069362914322263
0.6996978174886805 12.991156854694175 18234.208268258073 14.221884820420895 0.2542368007183721
0.7219039781987306 12.988048980872446 15784.249081951104 14.894147237718627 0.25783168722568894
0.7444637560591879 12.986671036176503 13683.206713905163 15.595333125322837 0.2614798214492782
0.767355424454777 12.986726173309135 11879.417343836807 16.326383106012784 0.26517986987749914
0.790570887007186 12.988080133143503 10327.654469071049 17.089061562404535 0.2689380840329678
0.8141133716676089 12.990568100841067 8991.603368966056 17.884817082517934 0.2727568837761616
0.8379703544654189 12.994016662930958 7838.574718189386 18.71517591708674 0.2766388246399887
0.862126008931218 12.99826650181869 6841.98312497846 19.581198271725462 0.28058186642171196
0.8865656385586848 13.003186593101015 5979.780428761063 20.485027602071135 0.2845929832194247
0.91129710760717 13.00865920803997 5232.957496783002 21.428493483067314 0.288675561807785
0.9362897817425755 13.014549549313186 4584.74933494385 22.413340662038873 0.29283165265578953
0.9615349331568803 13.020727144752675 4021.6141464861494 23.44106293492683 0.29706082691284996
0.9870309540874119 13.02711343362413 3531.982287190358 24.514324609687268 0.3013712273577863
1.012744155992985 13.033569457098901 3105.849040994332 25.635348212703974 0.3057666072896456
1.0386735424502098 13.040006634039694 2734.0113528034626 26.805547240633906 0.31024420547178555
1.064801305950553 13.046358008503635 2409.2372434289073 28.028222344942844 0.3148143845342729
1.091101325622489 13.052476651509219 2125.6009771868116 29.305816543863443 0.31948031575839225
1.1175696832423747 13.058326329789486 1877.2718345256571 30.640343787881914 0.3242416461344259
1.1441780376494202 13.063792282331734 1652.0296064455847 32.03564525094522 0.3291095435290615
1.1709080543141333 13.068816155509955 1469.2075400730598 33.49376658687527 0.3340823971383647
1.1977370425730696 13.073291051318458 1301.7969618383859 35.01869370046403 0.339170324952323
1.224657157064005 13.07717823939027 1154.7085066396755 36.61322543589623 0.3443749813769944
1.2516312472155464 13.08038551352136 1025.3113619832543 38.28145558309637 0.34970506043037236
1.2786435898194035 13.08284660941386 911.3576021519816 40.02656896925996 0.35516284876724175
1.3056637888468923 13.084466515233794 810.9284889053617 41.85355526864158 0.36076010286727506
1.3326853087861166 13.085249031037918 722.3070667499061 43.76527685394909 0.36649544222772185
1.359664004213706 13.085066838499845 644.070466737896 45.76754449005099 0.3723829366891769
1.3865768480194383 13.08385601801633 574.8219192132195 47.86507693269225 0.3784292254257197
1.4134043635729403 13.081597660494282 513.5811995575209 50.06198541834264 0.38463677658210343
1.4401293617841393 13.078242597005925 459.3589103405249 52.36471551056769 0.391019019052058
1.4666953727821395 13.073679432745156 411.2771548965354 54.779016534234636 0.39758429303565057
1.4930937116215823 13.067901854103074 368.5571377578998 57.31103651103896 0.4043415893881872
1.5192947973253546 13.060833341797508 330.6575109535645 59.96735782777584 0.41130060329473556
1.5452674540803304 13.052415358079829 296.94184018385334 62.755036302247674 0.41847179216660885
1.5709760316051207 13.04261873138867 266.95562192969066 65.6816439836861 0.425866438250135
1.5963935061530203 13.031382720063444 240.25073978334274 68.75531606597447 0.43349671649925003
1.6214890291338009 13.018660534074435 216.45993379673703 71.98480233893962 0.4413757683309269
1.6462213132770949 13.004404621488638 195.20623855502174 75.37952365625482 0.4495177819571867
1.6705858429331115 12.988584547618533 176.24768342891068 78.94963395886074 0.45793808007053133
1.6945171513786519 12.971143667870503 159.28647288763815 82.70541874365014 0.46665046559354434
1.718009607236641 12.952052181460136 144.11481488656656 86.65833581588313 0.4756714561846146
1.7410120252210834 12.931251575677758 130.53853348769388 90.82172492546448 0.4850227732199548
1.7634996086646435 12.908718060053797 118.36572450720618 95.20732987240929 0.49471722533329493
1.7854375468791879 12.884402665285759 107.45019756049139 99.83102683702643 0.5047812974970189
1.8067848586472757 12.85825668408632 97.6547531577609 104.70773976587496 0.5152347177950815
1.8275350915985704 12.830313686634135 88.85519101671876 109.8536576534256 0.5260990817566196
1.8476198985009968 12.800440121889425 80.93892983307065 115.2875370318183 0.5374023151339514
1.8670454995815042 12.768714003721819 73.81766274105289 121.02878831561827 0.5491711080418481
1.885735375780711 12.734995834402515 67.40130318014002 127.09854693654569 0.5614346123971042
1.9036922322755212 12.699339202533558 61.62245961336001 133.51984847735744 0.5742246541879231
1.9208664326589855 12.661664131771026 56.40811145705581 140.31730222231758 0.5875741517048805
1.9372462164950568 12.622039266616765 51.69721990728394 147.51768887667353 0.6015187957760383
1.9527920613737857 12.580377155274633 47.44213142919649 155.15160590635412 0.6161021555963696
1.9674498667825948 12.536607868912142 43.595239904058964 163.24928832670068 0.6313607275034268
1.9812195488254822 12.490796049153664 40.1120690582894 171.84705183897063 0.647345409750357
1.9940744211829031 12.442939139138913 36.95826026398469 180.98265625912558 0.6641048968093429
2.0059516533995385 12.392922714296347 34.099565906711035 190.6975300387819 0.6816925068352373
2.0168625322368396 12.340849823496287 31.51109721513592 201.03725256645748 0.7001668784936016
2.026771224599976 12.286676249176095 29.158234904359574 212.05201439502318 0.7195924792832976
2.035646344102648 12.23040987433363 27.02197532574038 223.796532231897 0.7400382122269495
2.043472743941245 12.172052423848397 25.08167227736314 236.33058251425592 0.761577935824846
2.0502185098319097 12.11157835933508 23.31833691442296 249.72074577497614 0.7842947246266023
2.055854778145614 12.048995303672172 21.712168562588108 264.04010926939327 0.808278283402441
2.06039045364828 11.984384957306712 20.25178450745882 279.3690534538988 0.8336256733521908
2.0637969224082093 11.9177371555643 18.921792989589363 295.7967960593931 0.8604442427608565
2.0660432369942483 11.849046534809297 17.711035370890773 313.4214538918336 0.8888494092024412
2.0671304381718945 11.778380977389688 16.608352628924447 332.3527518934877 0.918970762461346
