M[M_sun], R[km], Lambda[1], P_c[MeV/fm^3], rho_c[fm^-3]
0.24162668629717493 15.618656898711224 2160425.4255784233 3.5677272577965504 0.1711233750220791
0.2536440016594707 15.27733147229978 1723168.7341475985 3.7848498369105705 0.17388854986680394
0.2660428266578261 14.981200202321185 1382958.843742468 4.011465038117661 0.17666742913029493
0.27881979730147993 14.723435560941926 1116346.0076404694 4.247828014129816 0.17945867174261051
0.2919768836542618 14.49829320609357 905792.6504202809 4.494564363483304 0.18226885147590247
0.30551357073135804 14.301126445660755 738570.9624245471 4.751831214342984 0.18509370440960354
0.3194325151481655 14.127994922283074 605011.5537304396 5.020308421362444 0.18793979583902906
0.3337333295651371 13.97585370319008 497599.7716845274 5.300223339057275 0.19080381320265188
0.3484161559944951 13.84190175702959 410928.7764377234 5.592300870751665 0.19369197776389804
0.3634818818366165 13.723831234440537 340597.5117889983 5.896713015613079 0.19659943951170558
0.37893559417127376 13.619909764754674 283241.25224291015 6.2143219762905915 0.19953383940696015
0.39477101487141286 13.528342528026675 236344.86554932958 6.545381082944669 0.2024912828142517
0.41099962446905325 13.447753701984134 197805.54434969305 6.890600995651373 0.20547562012531972
0.4276090932812698 13.376968541612046 166032.7841848914 7.250683344602011 0.2084898598352863
0.4446083428932814 13.314820704498054 139761.347697728 7.625881378303166 0.21152945642417315
0.4619900793208628 13.26047231377325 117934.1433169406 8.017155638625058 0.21460074923333625
0.4797604638022739 13.213065457758553 99774.34889572415 8.42520614893601 0.2177053014566874
0.4979202090675179 13.171903893790612 84609.88825639305 8.850466169069254 0.22084046993905077
0.5164632019318075 13.136320880488562 71915.77311486268 9.29382433231482 0.22400987781396642
0.5353839800272392 13.105780819220438 61253.366098915714 9.756158735452821 0.22721634175122007
0.5546936387606022 13.079763361729208 52281.44104261712 10.238273739437192 0.23046114065299497
0.5743801797046008 13.057788053928135 44712.12148793812 10.74064638683036 0.23374104631280024
0.5944403442256245 13.039471930777381 38312.00450129956 11.264526811424814 0.2370623081425601
0.6148795273350746 13.024479471119623 32887.216825494565 11.810848285868802 0.2404264799071545
0.635688519757086 13.01240323951722 28278.504270399826 12.380590373990238 0.24383519555953398
0.6568629848603723 13.003003867147555 24359.55310494439 12.97442713214371 0.24728623471417352
0.6783984953262929 12.99596927836935 21017.44454429264 13.59371559898577 0.2507847186790229
0.7002899717107602 12.991058407459018 18163.70396387051 14.239639870262234 0.25433312273029685
0.7225286639819146 12.987991043368567 15720.810347266583 14.913390362870494 0.25793343288211773
0.7451207755247921 12.986640963617038 13626.856788030267 15.615975938742963 0.26158533381856264
0.7680460299889295 12.986755442315758 11829.549973298112 16.348704997321608 0.26529113890715
0.7912939881115051 12.988154530766591 10284.44203238389 17.113174473826287 0.2690553369558949
0.814871883961213 12.990677113906644 8951.149452721871 17.910840374301685 0.272880362434921
0.8387585136503712 12.994158384818114 7803.174057381329 18.743038243354363 0.27676702575579004
0.862944459957884 12.998425715317971 6810.125691361815 19.6111730309712 0.2807163442623562
0.8874290887121434 13.003381757652011 5951.706816099814 20.517302990936546 0.28473441897781115
0.9121895478211652 13.008878035715055 5208.126073075319 21.463223520988294 0.2888242657727955
0.9372143869524858 13.014763842218056 4562.768900512972 22.450380732711885 0.29298549602194707
0.9625020180917823 13.020974104002173 4002.0015905945943 23.480877560546435 0.2972225259375691
0.9880262521575542 13.027363613011936 3514.3165466713476 24.55710103995687 0.3015411578083225
1.0137732142460891 13.033825875701663 3090.2221972588472 25.680948285264176 0.3059426822671833
1.0397411119863105 13.040279886798844 2719.752712274599 26.85447301671369 0.31042903824377266
1.0658969037681176 13.046603298480074 2396.7612663277823 28.08072999522284 0.3150086331647348
1.092233078901051 13.052732504634822 2114.407674170175 29.361720067886885 0.31968153411993794
1.1187349650324414 13.058571666436007 1867.1005920799041 30.700310127628814 0.324453181283605
1.145369128123479 13.064023209472861 1650.847591604346 32.09978784970772 0.32933086906406467
1.1721371656315087 13.069029864635432 1461.1561992758334 33.56221553004381 0.33431307713422403
1.1989969645482854 13.07348885769561 1294.5029916481074 35.09208081669945 0.33941299625042143
1.225941990682713 13.077360985802626 1148.1554949478395 36.69133789216514 0.34462696006936955
1.2529450095142989 13.080517730701466 1019.4238307539331 38.365107910537745 0.3499698274614778
1.279991843763207 13.082943723813369 906.0202326298994 40.11570996962492 0.3554386212422868
1.3070449814215328 13.084546757170223 806.1852446819645 41.94846964476246 0.3610470434057534
1.3297777046988999 13.082932399318 730.1117976109101 44.03031156338553 0.7637636555781191
1.3323961786919842 13.061560880136922 711.1358517397437 47.04805396186778 1.3441817607358466
