M[M_sun], R[km], Lambda[1], P_c[MeV/fm^3], rho_c[fm^-3]
0.24162668629717493 15.618656898711224 2160425.4255784233 3.5677272577965504 0.1711233750220791
0.2536444808886905 15.277252645959155 1723192.2594339002 3.7848295737997266 0.1738882972969025
0.2660402664132121 14.981259298372647 1382993.948278441 4.01142244064639 0.17666691436499393
0.2788171046781381 14.723465298705944 1116389.427541926 4.247761640780423 0.17945790191178004
0.29197144138134434 14.498386927852218 905848.241771193 4.494472472176762 0.18226782824487725
0.30550749323746973 14.301195825573418 738586.3593097492 4.75171068449134 0.18509240245717112
0.31942473247481173 14.128104902496968 605088.887597116 5.0201583647028585 0.1879382389432693
0.3337225770373821 13.975927220707971 497673.54907552677 5.300039804481201 0.19080196531400975
0.34840527471093263 13.84199158728604 410984.47253426077 5.592083399598413 0.1936898736706661
0.3634692089970727 13.723972622286585 340637.56636240566 5.89645672146886 0.19659703234286546
0.3789228859110124 13.619972917588294 283276.23295192234 6.214023757034327 0.1995311200064224
0.39475588678001067 13.528422084997091 236397.26692482573 6.545041247786041 0.20248830291900533
0.4109814383426225 13.447853900187738 197850.6066747842 6.890212983283426 0.2054723156491712
0.42759042772273687 13.377021392914857 166060.92103475163 7.250243513251906 0.208486221223246
0.44458623442554696 13.314915483954092 139794.01212112897 7.625390943233616 0.21152555224567082
0.46196853451379843 13.260546517551212 117972.42721746325 8.016606044415564 0.21459649767779798
0.4797338068973676 13.213142760379421 99801.6641414481 8.424593109083412 0.21770069225400987
0.49789244977957803 13.171958036011151 84633.96591168988 8.849791943629427 0.22083558825879207
0.516431573259118 13.136384781358782 71931.67375424915 9.293078008825947 0.22400462365007692
0.5353508431339878 13.10583024249601 61269.827562420636 9.755335252629028 0.22721070375191352
0.5546587006581329 13.079804344061671 52301.122804971434 10.237373384184787 0.23045517969467189
0.5743420620661241 13.057822630633824 44724.46559380219 10.739661784041411 0.23373472485790342
0.594399534765663 13.039506849321047 38323.85023130746 11.263448807883005 0.23705557275692302
0.6148384383499093 13.02450369920299 32897.81882479764 11.809670511936202 0.24041931707657185
0.6356428843838737 13.012439250299815 28288.794630374432 12.379306062587665 0.24382759105641963
0.6568144940110321 13.003010908202981 24368.00817791535 12.97304218111853 0.24727831890203947
0.6783469740460208 12.995983610181359 21025.1381778832 13.592210338893013 0.25077633779410974
0.7002360526705284 12.991063878924248 18170.188043163806 14.238006228448693 0.2543242601437285
0.7224698247864468 12.988015131206565 15726.352515585208 14.91161974792907 0.2579240709734841
0.7450605404142348 12.986639386846065 13631.511568916434 15.614076485359021 0.26157562507282117
0.7679818054207672 12.986762844635987 11834.596230893163 16.346650978973322 0.2652809001408494
0.7912275435966983 12.988142111426216 10287.432511840247 17.110955579606685 0.2690445472246856
0.8148022252057665 12.990679408223327 8954.82821765226 17.908445609611196 0.2728689994476985
0.8386870562661558 12.994137907947696 7806.465332481474 18.7404782307735 0.27675526382256704
0.8628692308281365 12.998409601788422 6813.103585728042 19.608414478656776 0.2807039683778493
0.8873517985174406 13.003353964594442 5954.485460356171 20.51433261913063 0.2847214023479942
0.9121074619515777 13.008855997224446 5210.2744982442 21.46002714044392 0.2888105797969347
0.9371288948468517 13.014741308694399 4564.472367366629 22.446971659766145 0.29297133667376224
0.9624135331098006 13.020958928080196 4003.841223297733 23.47721300628502 0.2972076430938683
0.9879352368804651 13.027338429980004 3515.972432062837 24.55316375180379 0.3015255168316088
1.0136797345338973 13.03380440243176 3091.486869487127 25.676753505763408 0.3059264938052209
1.0396441576203335 13.040255598346098 2721.0014832127226 26.84996945444551 0.31041202459647793
1.0657954175432285 13.046583976349986 2397.7176557936446 28.075896564379974 0.31499075220231026
1.0921279664707393 13.052716700452004 2115.2337129678554 29.35657390132313 0.3196630110800708
1.118627649388392 13.05854617550491 1868.2655049407294 30.694789773571053 0.32443370787695625
1.1452594261596083 13.06399941788312 1651.8064224059337 32.09391132805856 0.32931067791449226
1.1720235836543538 13.069011731019168 1461.7753422187545 33.555913896319225 0.3342918399788466
1.198880733239519 13.073470073847249 1295.1286098966334 35.08532432165183 0.3393906543529889
1.2258274421765274 13.077336910280128 1148.8522491938716 36.68414614573205 0.3446037606086348
1.2528245447486865 13.08049826768732 1019.9594970348105 38.357451720883894 0.3499457188542303
1.2798675916231392 13.08293535215953 906.5300808292147 40.10750229787357 0.3554132294478941
1.306911785799882 13.084521041315275 806.6433465434181 41.939730126774364 0.3610206225188442
1.333950551697249 13.085239934773258 718.4547459441458 43.857658479080015 0.36677004819386927
1.3609587525294125 13.085031045079512 640.4953548135758 45.86593946747156 0.3726690559175685
1.3878906423965407 13.083772638574171 571.6819683613286 47.96992554535782 0.37872770709235637
1.4147405790404946 13.081462462265954 510.7347167642736 50.174395159794045 0.38495176106545986
1.4414724260728566 13.078023552331974 456.7861004078408 52.484528498644785 0.39134798062727033
1.4680667913306364 13.073425064370829 408.9299673164643 54.90676275834126 0.3979281628962882
1.4944764857418047 13.067556173105897 366.44487082912354 57.44728886440586 0.40470137066952194
1.5206883675118263 13.060410137365748 328.763541718315 60.11273594616303 0.41167737697704576
1.5466724383121733 13.051919576385448 295.2199985271948 62.910210785417355 0.4188667235631941
1.5723886364295447 13.042036532848167 265.4019136673038 65.8473410422446 0.4262807841427323
1.597813222998713 13.03070612034483 238.8677814650258 68.93232264136068 0.43393183299090743
1.6229003693035031 13.017880442846858 215.18390734765686 72.17397175020783 0.4418331194947399
1.6476526304411618 13.003538671301204 194.05199421330536 75.58178183394541 0.4499989493687346
1.672000313385532 12.98760161642337 175.19132504561287 79.16564961278158 0.45844336722325807
1.6959392972660376 12.970047224083027 158.32810327903363 82.93585386249961 0.46718000482552446
1.7194187334379007 12.950834692751952 143.24743330335463 86.90509329008498 0.4762302404566946
1.7423977730477818 12.929881713049392 129.75723944308592 91.08490751891176 0.4856082576163447
1.7648825055370838 12.907241971012432 117.65222884798634 95.48946980228624 0.49533630333823
1.7868089168828332 12.882800541284716 106.80022743665553 100.1323696750515 0.5054315822680882
1.8081472647937513 12.85653939900029 97.06247791406938 105.0301770534282 0.5159199620028857
1.8288564243014873 12.828400358376722 88.30676832429413 110.19943719483575 0.5268239859475508
1.8489361680571317 12.798428819354443 80.44601996179874 115.65783984880022 0.5381672329721577
1.868311405266003 12.766488074595403 73.37154876720413 121.42549439404722 0.5499786562409702
1.886988971630563 12.732664426976948 66.99393329379247 127.52383982970429 0.5622881077403117
1.904912090502823 12.696844379308393 61.243787215761635 133.97538409690782 0.5751251146665823
1.9220521031351763 12.659023727184369 56.06149576160256 140.80580698950283 0.5885259447603315
1.9383651909786177 12.619131090837904 51.380595646363666 148.04278539247352 0.6025288450493603
1.9538606406079568 12.577283942022046 47.15567132258741 155.71477615619847 0.6171694195939613
1.9684757562403705 12.533347942283449 43.331275426763376 163.85548110317728 0.6324954406076333
1.9821885472785987 12.487341729500914 39.870819345272636 172.49874560671816 0.6485486910377805
1.9949767769472 12.439263141801165 36.73677887899813 181.68375117892538 0.6653819509269898
2.0068119416889 12.389098083967765 33.895929379566226 191.45257267301994 0.6830498560341816
2.017657624661147 12.336818584055592 31.320936861675808 201.85125790591852 0.7016116576761393
2.0274923221629177 12.282429340845194 28.985361861766407 212.92969911603785 0.7211298139445113
2.036300395330766 12.2259590293948 26.863586344577254 224.7435406640224 0.7416751388469516
2.0440435232865575 12.167358771617362 24.937309659104173 237.35381952056343 0.763324312429886
2.050701059360809 12.106647437137976 23.182489401581204 250.82749467831206 0.7861601908244913
2.0562729494458636 12.04389525852176 21.58985974159332 265.23779331755986 0.8102712992425667
2.060715716159891 11.979041683752222 20.137566673265304 280.66619190044526 0.8357564135659575
2.0640204416515204 11.9121419485067 18.817711978703727 297.20273417943474 0.8627234614475927
2.066178930172729 11.843234896034309 17.61491398534237 314.94775495178766 0.8912927169991137
2.067170491934033 11.77233661864178 16.521166638622333 334.010593876021 0.9215897355874231
