M[M_sun], R[km], Lambda[1], P_c[MeV/fm^3], rho_c[fm^-3]
0.24162668629717493 15.618656898711224 2160425.4255784233 3.5677272577965504 0.1711233750220791
0.2536414517922695 15.277354540988025 1723297.0364163772 3.784789763881864 0.1738878010854813
0.2660372472156406 14.981301586554313 1383098.3298324253 4.011338752472837 0.17666590304280594
0.278810348038153 14.723596081007578 1116542.565180403 4.2476312432755154 0.17945638949722797
0.29196147759582586 14.498578876281307 906039.482509063 4.494291943844265 0.18226581801999645
0.3054955669594501 14.301360145044994 738792.3880416298 4.7514738958321905 0.18508984468773435
0.3194095712720192 14.12827653791254 605193.9276065873 5.0198635717230955 0.18793518035232462
0.33370528310556674 13.976139362055868 497792.7115751444 5.299679246423969 0.19079833509264743
0.3483839243797487 13.842169366668811 411090.3128950102 5.591656176498923 0.1936857401696535
0.36344334205586104 13.724143953048744 340723.54141321 5.8959532355768225 0.19659230349681847
0.37889545637927957 13.620131591739607 283376.66884948977 6.213437915860446 0.19952577784031528
0.39472348515981626 13.528625425592601 236479.10733146203 6.54437365984152 0.20248244907459903
0.4109461076907598 13.448022285492463 197928.56116659037 6.889450761389228 0.2054658242476662
0.4275514817404679 13.377194642820262 166140.5854696243 7.249379505317416 0.20847907350703024
0.44454388666485695 13.315029938928456 139850.44121477197 7.62442753752407 0.211517882916755
0.46192111853053613 13.260674782114021 118022.66685715641 8.015526437603851 0.21458814604628476
0.47968223172551533 13.213264741017824 99848.65792015885 8.42338888318017 0.21769163815869444
0.49783567439914006 13.172110067418952 84678.2188814679 8.848467538995624 0.22082599900336877
0.5163702464135902 13.136491228289163 71966.19239681741 9.291611993496863 0.22399430281076477
0.5352843557785546 13.105927712629578 61300.669692224285 9.753717687395172 0.22719962904409538
0.5545872528977823 13.079915438365804 52323.50385700678 10.235593725922241 0.23044332786489027
0.5742657746189858 13.05792515536335 44751.048179529746 10.737727765456812 0.23372230785950632
0.5943196263216609 13.039574416662312 38346.83373302798 11.261331345638517 0.23704234281450123
0.6147519955396824 13.02456266155246 32918.16069510683 11.807357098057794 0.2404052476603453
0.6355497134222675 13.012470792796329 28308.99764814962 12.376783408802458 0.24381265423616902
0.656717819250179 13.003046374574367 24384.068094726616 12.97032187178716 0.24726277072941671
0.678245869440074 12.996002114758763 21040.08188751137 13.589253747178555 0.25075987628356194
0.7001290187039387 12.991067971265345 18182.947369177673 14.23479750286178 0.2543068526508176
0.7223583208215448 12.98800667863521 15739.068400482738 14.908142018545334 0.25790568290729227
0.7449409964950521 12.986651014752312 13642.370443761522 15.610345728667369 0.26155655591932214
0.7678574315342306 12.986756459664933 11842.703727569467 16.342616675831625 0.26526079015152615
0.7910978344951293 12.988125071733798 10226.611320764057 17.106597484348722 0.269023355283221
0.8146674381653454 12.990644364346432 8962.069795438338 17.903742134377257 0.27284668179402805
0.8385445453302859 12.994114170689732 7812.038472417541 18.735450236659513 0.2767321627911673
0.8627203367060798 12.998383750462512 6819.145052177224 19.6029965939366 0.2806796617459909
0.8871916485339286 13.003325656928476 5959.559654920682 20.508498769887005 0.284695837516056
0.9119468756587877 13.0088179604874 5214.7602956722985 21.453749467373797 0.2887837006187809
0.9369609308685451 13.014703013231047 4568.368568914751 22.440276312206947 0.29294352801175416
0.9622333735095286 13.020903023462692 4007.2927439957843 23.470015968642237 0.29717841378555276
0.987755144288224 13.027297618884948 3519.2931068946596 24.545431151353025 0.3014947988808557
1.0134916320684264 13.033759673622123 3094.158928280052 25.668515272796455 0.30589470087760734
1.0394508536342528 13.040203694386362 2723.5735153473884 26.8411248829613 0.3103786113980485
1.0655997027900248 13.04654502239377 2399.9723772174766 28.06640425717256 0.3149556360303785
1.0919237770571364 13.052667250342566 2117.297026370552 29.346467498790766 0.3196266342363171
1.1184177168480163 13.058502442126157 1870.0550452721118 30.683948625933137 0.32439546502617467
1.1450439885525951 13.063962798432012 1653.2445479756648 32.08237081624946 0.32927102585261087
1.1718023026750244 13.06897496560954 1463.3316387491677 33.54353866382913 0.33425013416941507
1.1986523811104575 13.073437311908906 1296.4801346185745 35.07205596620458 0.3393467794985841
1.2255942136771591 13.077303662541787 1149.8751855668977 36.670023168252385 0.34455820206947535
1.2525857775517943 13.080472553314328 1021.0178320825422 38.342341545933294 0.34989793381310963
1.279625458111313 13.082920349005441 907.5105367828032 40.09138458753961 0.35536336663669993
1.306663655014061 13.084511792188907 807.437566109232 41.922568164624344 0.36096873930723883
1.3336963745466401 13.085231722874946 719.1661480928232 43.83925987110791 0.3667153580159168
1.3607011926536074 13.085040559056797 641.1871906510098 45.84634276154556 0.37261207135874697
1.387628235239941 13.083787801664007 572.3088033957433 47.94904704693223 0.3786682801461112
1.4144817009684019 13.081508678034773 511.2745554879 50.1520059547973 0.3848890240457176
1.4412104452345105 13.078084580427126 457.267861696535 52.46066412595942 0.3912824580010841
1.4677959969957353 13.073476994598526 409.3918344321015 54.881317560757296 0.39785966900061115
1.4942017426060694 13.067623259001659 366.8804622218536 57.420148626910425 0.4046297054895779
1.5204106765407002 13.060491987644694 329.1379921744438 60.083777129793056 0.4116023249678431
1.5463929800770368 13.052018979257081 295.56130604922447 62.87929968467077 0.41878805235425254
1.5721079510856761 13.04215305098503 265.70904598237234 65.81433285753796 0.4261982431134933
1.5975312457180806 13.0308414831153 239.14385542344738 68.89706045698657 0.4338451517028278
1.622618036170014 13.01804035311436 215.44123027723856 72.13628540706824 0.4417420059643906
1.6473696720910378 13.003715668851056 194.2826649007471 75.54148668501301 0.4499030881643516
1.6717182521952112 12.98780195388686 175.4040247238519 79.12275552476025 0.45834329580664457
1.6956572644247199 12.970272601544634 158.51575968666333 82.88994239144999 0.4670745003987683
1.7191295065230003 12.951071780980982 143.42788600301355 86.8559281275463 0.47611890555326475
1.7421263761001078 12.930161878422851 129.9133409539422 91.0324681990664 0.48549159943190856
1.764611241757525 12.907541629004028 117.78765544108073 95.43325122891753 0.4952129472352616
1.7865368689070167 12.883120655595159 106.92468974614556 100.07232289922865 0.5053020039309181
1.807877987288508 12.85688782578788 97.18011398272883 104.96599074282949 0.5157836622377895
1.8285920378649856 12.828776377941344 88.4170612454636 110.1306543075376 0.526679987625302
1.8486754941176058 12.798838286379528 80.54358102517678 115.58404409602561 0.5380147964118819
1.8680670543772797 12.766955626424844 73.45213725138633 121.34643406686426 0.5498177183872034
1.886742275868524 12.733136157260526 67.07250090131876 127.43911206197134 0.5621181238864167
1.9046726384632673 12.697345501245387 61.3178528169624 133.88473290713614 0.5749461410710285
1.921820101518958 12.659561569440655 56.12900163405657 140.70844132250667 0.5883362394147311
1.93814772900052 12.619732116131972 51.44356029187771 147.9381222653932 0.602327520317106
1.9536429776685447 12.577864209124089 47.20972333525478 155.60251992853844 0.6169566828055388
1.9682712276686043 12.533995498442241 43.38257273288931 163.7348256163113 0.6322698640472075
1.9820015907128963 12.488030871611548 39.91943052657567 172.36883325439942 0.6483088220835466
1.9947968536112557 12.439987627268287 36.78085865615488 181.54398508844733 0.6651273650552174
2.0066374670266183 12.3898464124489 33.937798231093545 191.3020453687423 0.6827792512939781
2.0175010540486817 12.337625915185596 31.35714781547243 201.68896834570498 0.7013236097153054
2.02735064473886 12.283278743285486 29.01937578355652 212.75495100542332 0.7208241025798384
2.036172723565564 12.226847658285667 26.89575912918349 224.55471684818042 0.7413487523860112
2.0439307032196625 12.168291724367583 24.96525316233625 237.1500002318411 0.7629767818194555
2.050603527317662 12.107625110673787 23.20895689919552 250.60693221504783 0.7857886346519538
2.0561851598264265 12.044895455093021 21.612690271633685 264.9989517758122 0.8098738530406975
2.0606539252128293 11.980107597770886 20.159526026896184 280.40783006017705 0.8353325456583568
2.063980654837453 11.913264494772285 18.838224303878533 296.9224957159762 0.8622694249233496
2.06615225218139 11.844390441121405 17.63389523554856 314.6433318945528 0.8908053955598877
2.067162750895995 11.773538367547717 16.537969943178332 333.67997874529976 0.9210675553977992
