M[M_sun], R[km], Lambda[1], P_c[MeV/fm^3], rho_c[fm^-3]
0.24162668629717493 15.618656898711224 2160425.4255784233 3.5677272577965504 0.1711233750220791
0.2536414341343472 15.277370875589183 1723243.643632857 3.784795443796055 0.1738878718828716
0.26603790127783467 14.98127875790066 1383122.4950345375 4.011350692678432 0.17666604733314392
0.2788113095795082 14.723571721443413 1116477.3294367783 4.247649847617448 0.17945660527955826
0.2919632071299839 14.498541774870025 906029.5418365531 4.494317700399975 0.18226610482522207
0.3054978442968634 14.301296030563215 738731.7067756045 4.751507679022702 0.18509020961066808
0.31941130311374527 14.128262122551682 605188.1150323405 5.019905630282524 0.1879356167261118
0.3337076732739557 13.976064059645495 497748.61933243653 5.299730687480035 0.19079885301872587
0.34838703129426596 13.842139294334865 411066.43775107915 5.591717128362268 0.19368632989569864
0.36344763469115854 13.724101434217648 340706.9995876949 5.89602506742487 0.19659297815673657
0.378899416402305 13.620105876316625 283360.19035589264 6.213521496774757 0.19952653999761583
0.3947269851072352 13.528604797443222 236454.023681296 6.5444689029193786 0.20248328422772474
0.4109511716733006 13.447999121796322 197918.28088760586 6.889559505036958 0.20546675035420278
0.42755672505328424 13.377162568192267 166125.05424228747 7.249502769745405 0.20848009324205302
0.4445495316058872 13.31501541720107 139841.1765414366 7.6245649819278665 0.21151897706258568
0.4619276665305021 13.260662997688877 118013.3020429438 8.015680459000942 0.2145893375263122
0.47968982617155287 13.213239876284376 99837.52300333222 8.42356068233171 0.2176929298481432
0.4978441512479289 13.172058980268623 84672.14606616356 8.848656482357766 0.22082736703403996
0.5163793271311887 13.136476398598031 71962.08438295491 9.291821138309903 0.22399577520328723
0.5352934855662147 13.105910459819796 61297.026169026634 9.753948451384156 0.22720120897651444
0.5545976410111397 13.07986712473275 52318.19847778317 10.235847612944307 0.23044501865341557
0.5742761394354644 13.05791282442305 44747.65130253595 10.738003672326803 0.23372407926707692
0.5943302870518424 13.039600978711064 38343.80563118473 11.261633420942243 0.23704423018646534
0.6147652832781655 13.024531812707822 32915.54038230459 11.807687125884085 0.24040725478016842
0.6355620028334742 13.012461019715738 28306.535581438293 12.377143284526666 0.2438147850870359
0.6567310513848275 13.003045171258066 24381.052695984807 12.970709942831236 0.24726498878436864
0.6782606993388199 12.995990909127965 21037.840765617413 13.589675523303393 0.25076222462002445
0.7001443107267522 12.991078250664815 18180.822681208294 14.235255245007714 0.2543093359242994
0.7223740246915051 12.988007968562268 15736.701793131893 14.90863813289918 0.25790830605089277
0.7449595429955643 12.986646678562698 13641.123127915043 15.610877936201033 0.26155927621120706
0.7678756224917451 12.986745411263387 11841.348426473889 16.343192182424488 0.26526365890754955
0.7911161134814191 12.988117839295386 10294.257639671652 17.107219177624078 0.2690263783670961
0.8146872682897632 12.990650476688057 8961.093351544978 17.904413093374185 0.2728498654464926
0.8385650715910135 12.994116970344347 7811.246491996386 18.73616748569664 0.2767354581793783
0.8627418655114255 12.998385554970492 6818.144491770878 19.603769457137624 0.2806831290957546
0.8872124310058047 13.003321872058777 5958.7084546075785 20.509330966061327 0.28469948432872594
0.9119697671924073 13.008821526227745 5214.27576145226 21.454644969945292 0.28878753490146614
0.9369848232944712 13.014712141292042 4567.868411362956 22.441231391317828 0.2929474948666412
0.9622591274528951 13.020916896867199 4007.106234657253 23.471042607267194 0.29718258327005276
0.9877806304430065 13.02730707969213 3518.6659351791423 24.546534180485175 0.3014991806919652
1.0135204729826472 13.033759712123649 3094.015160358152 25.6696904234 0.30589923601010766
1.039479261071178 13.040213837285906 2723.2245397392276 26.84238651819144 0.31038337762876594
1.065628078018385 13.046553477260789 2399.6880118625795 28.06775828105971 0.3149606451535118
1.0919529870052833 13.052675256436428 2117.1253949606785 29.347909113255525 0.3196318231632344
1.1184476759641564 13.058508544113122 1869.7940496029498 30.68549503818793 0.32440092009560845
1.1450745379856984 13.063967895434255 1653.1461457221098 32.08401698006098 0.32927668190932663
1.1718338025691226 13.068986418658543 1463.08397966899 33.54530388358505 0.3342560831419943
1.1986854621705585 13.073437900903079 1296.2786624491437 35.07394857088807 0.33935303782918613
1.2256281049933628 13.077314022446362 1149.7960194227235 36.67203766679633 0.3445647005299404
1.2526195997198744 13.080482056435786 1020.8782069885428 38.34450110994729 0.3499047748384824
1.279658731246862 13.082926254463505 907.3391344444103 40.093683588694816 0.3553704789782275
1.3066988412542853 13.084513619175693 807.3193685593995 41.92501610346196 0.36097613979720605
1.3337327431267314 13.085231000180187 719.1301550588524 43.841884185227904 0.36672315883467677
1.3607375195095712 13.085041138780186 641.0665950302966 45.849137953451844 0.37262019939711233
1.3876665871643845 13.08378925840276 572.2225562684334 47.95202505230231 0.37867675651071553
1.4145202088745814 13.081501787079304 511.20083802836945 50.15519941853608 0.38489797248304064
1.4412410160686646 13.078061095873407 457.1947489625171 52.464067979847755 0.3912918037085476
1.4678340599158883 13.073471642825533 409.3207565771282 54.8849468721772 0.3978694384542361
1.4942394894823927 13.067612515674007 366.8021394057952 57.424019683500035 0.40463992721173914
1.5204513318695962 13.060479872994021 329.0917356698471 60.08790754867726 0.411613029695279
1.5464336507254408 13.052004644626306 295.5240336624648 62.88370853258935 0.4187992732227243
1.572147446208093 13.04213644487481 265.6646416439481 65.81904078308368 0.42621001586087637
1.597570879580101 13.030821249119565 239.1049743313029 68.90208983631364 0.4338575148926315
1.6226584465194176 13.018019614231173 215.4017543505678 72.14166050460146 0.4417550012319444
1.6474094252488416 13.003690226865453 194.24934213870256 75.54723383087253 0.44991676048815366
1.6717591546918682 12.987771112239722 175.36554377388885 79.12887331272223 0.4583575685359678
1.6956969968233675 12.970240281177063 158.49128434327963 82.8964904891163 0.46708954790813434
1.7191609681644944 12.951007632755669 143.39980739509988 86.86294023079581 0.47613478451710445
1.7421659845879551 12.930123186533796 129.88840933519012 91.03994722708535 0.48550823751631944
1.7646462976598887 12.907491560230966 117.76863742831655 95.44126920307265 0.49523054046088455
1.7865762704100556 12.883074899376947 106.90723889441736 100.08088680017079 0.5053204844576169
1.8079174270614566 12.856836416008354 97.16230313926272 104.97514496334284 0.5158031012442377
1.8286297601852324 12.828723349752664 88.40113165449505 110.14048598533417 0.5267006062112894
1.8465111628687008 12.799144218084985 81.1762075147075 115.81058352439506 0.7637388974771226
1.8583530722497537 12.765111248079833 75.86950724268772 122.32969026438046 1.0205973609902244
1.8649630065644882 12.724494647702983 71.85009516072206 129.74223877730705 1.273289989733586
1.8670477404463353 12.676579441534 68.71751933911126 138.09015775717359 1.522623932451391
