M[M_sun], R[km], Lambda[1], P_c[MeV/fm^3], rho_c[fm^-3]
0.24162668629717493 15.618656898711224 2160425.4255784233 3.5677272577965504 0.1711233750220791
0.2536448465311466 15.277288272718916 1723095.3868760683 3.7848447644142524 0.17388848664058437
0.26604242971395214 14.981229319049712 1382987.0396649495 4.011454374595494 0.17666730026792274
0.27881917752497665 14.723468217451224 1116351.0420415115 4.2478113986921375 0.17945847902857237
0.29197528641271714 14.49832730851494 888633.4996831841 4.494541359997967 0.1822685953267544
0.3055124307293114 14.301119353462715 738530.5231410066 4.751801041584376 0.185093378486225
0.3194302081916592 14.12804805951559 605029.9416074735 5.020270856933866 0.18793940609358403
0.33373227379561204 13.975774480444878 497586.3132558033 5.3001773938139305 0.19080335061028836
0.34841345776681 13.841922329375869 410943.29565009224 5.59224642983945 0.19369145103309618
0.36347877746786156 13.723859610410088 340607.32332142594 5.896648855732911 0.1965988369085334
0.37893304004251444 13.619913255553907 283252.0433143071 6.214247320816213 0.19953315863892487
0.3947682301346226 13.528351574131875 236368.86485225524 6.545296009248087 0.2024905368328616
0.41099512377144043 13.447794203395093 197823.43049230936 6.8905038611177725 0.20547479288687065
0.4276051028677594 13.376976827795419 166041.21236215997 7.25057323749313 0.20848894894739256
0.4446028108048811 13.314836438920382 139768.1449560584 7.62575860281504 0.2115284790523433
0.46198471573110506 13.2604834668761 117946.05075462439 8.017018052902218 0.2145996848965368
0.4797535535336554 13.21308429762711 99794.09366408113 8.425052679818975 0.2177041475834732
0.49791391591921447 13.171910733072819 84619.16672633181 8.850297382316732 0.2208392478508455
0.5164551063351194 13.136330903644366 71920.16025235243 9.293637495961072 0.22400856247438813
0.535375840363816 13.105788520058534 61258.19328557374 9.755952582354917 0.22721493031798862
0.5546857349796621 13.079770501276847 52287.49592831887 10.23804913133612 0.23045965852330513
0.574370008550065 13.057801607107587 44714.26956638362 10.740399897387372 0.2337394637742234
0.5944304611618333 13.039482636510224 38313.54867526281 11.264256939016411 0.2370606219748687
0.6148704905082366 13.024468499081795 32889.99304137813 11.81055343577584 0.24042468672664274
0.6356783598447645 13.012400385520401 28282.023167992356 12.38026885198424 0.24383329180387858
0.656850876649265 13.002993208324055 24361.825113337316 12.974080414733729 0.24728425301963622
0.6783861054658124 12.995957514846449 21019.50484958018 13.593338761749449 0.2507826205502518
0.7002771829837933 12.991042655468055 18165.11127799789 14.23923089208732 0.25433090400373776
0.7225146698594767 12.987992281906173 15722.347491876179 14.912947092760634 0.257931089145955
0.7451060038801384 12.986647604300035 13628.584811161034 15.615500413238122 0.2615829032476104
0.7680295452254654 12.98675055992188 11831.110642222278 16.348190775472734 0.26528857564020464
0.7912775460270732 12.988150562806215 10285.412250557158 17.112618974112152 0.26905263574889304
0.8148544840058873 12.990678957020096 8952.418909907103 17.910240844018304 0.2728775177065948
0.8353550487845735 12.991378177812782 7943.659048868866 18.80190515500709 0.45935986679773244
0.8453826301128251 12.978201245107227 7432.254925917495 19.910420036657836 0.7091665210195517
0.8489908896742254 12.950863227995521 7149.63984693517 21.273542161251854 0.9308675149557152
