M[M_sun], R[km], Lambda[1], P_c[MeV/fm^3], rho_c[fm^-3]
0.24162668629717493 15.618656898711224 2160425.4255784233 3.5677272577965504 0.1711233750220791
0.2536449180953777 15.277249713753521 1723243.101245299 3.7848372279393794 0.1738883927020608
0.2660408580446642 14.981279412976093 1382827.979848891 4.011438531276587 0.17666710881076383
0.2788180659702498 14.72347258479181 1116429.2062768675 4.247786712376218 0.1794581927045092
0.2919733579317089 14.498354200858621 905835.3631512893 4.4945071827434235 0.18226821475509292
0.3055101115465663 14.301200753640485 738593.7549159809 4.7517562127373685 0.18509289424912018
0.3194299688699082 14.128009590857454 605045.0696505753 5.020215046112897 0.18793882703477546
0.3337250469825225 13.975951763430492 497648.3763773475 5.300109131465496 0.19080266332170734
0.34840940417543403 13.841956545978364 410964.6672763262 5.5921655453642485 0.19369066845354807
0.36347308683292584 13.723911038477546 340636.90257618716 5.8965535317041065 0.19659794160508212
0.37892831346913713 13.619937582174273 283279.33276826766 6.21413640344246 0.19953214720602946
0.3947620448492975 13.528379577129973 236377.6155818234 6.545169613525633 0.20248942851312793
0.41098838133357146 13.447827975836585 197839.79971817427 6.8903595466661445 0.20547356384444138
0.42759756608964467 13.376999840860147 166051.39572065053 7.250409649802731 0.20848759562835384
0.44459403222227944 13.314898157859156 139781.4498863897 7.62557619387384 0.2115270269598828
0.4619777496884105 13.260517611681573 117958.76932976943 8.01681364064455 0.21459810360246354
0.47974373678977217 13.213111031278396 99795.00080825678 8.424824669933912 0.2177024332678895
0.4979021927875333 13.171975843206248 84625.11021652988 8.850046615387535 0.22083743219113364
0.5164426789888851 13.136360308171511 71922.82137266795 9.293359913248526 0.22400660827478655
0.5353641328268403 13.105806229857809 61264.269331853466 9.755646301374844 0.22721283335627507
0.5546721658865855 13.07978738489773 52295.35204744129 10.237715432395351 0.2304574565319022
0.57435650557662 13.057808695169946 44316.863740505985 10.740033690190847 0.2337371126105849
0.5944149982076088 13.039501206618093 38321.02064826481 11.263855992747333 0.23705811685532388
0.6148542559695443 13.02447855146075 32616.483230269496 11.810115381319745 0.24042202262467197
0.6356604019360254 13.012435936936374 28285.056960695147 12.379791172401767 0.24383046342762552
0.6568327945631057 13.003000084772209 24364.967390922924 12.973565303639091 0.24728130885585053
0.678366263933037 12.995973245875062 21022.331586273373 13.592778903334198 0.25077950340859073
0.7002568014238628 12.991059535605142 18167.44509002592 14.238623283814471 0.2543276076992032
0.7224938533245738 12.988001737958994 15724.88320110692 14.91228853914657 0.25792760712475377
0.7450827483743393 12.98665489827226 13629.965673499915 15.614793939866114 0.26157929222435505
0.7680062417410788 12.98675596050058 11834.287850303097 16.347426813658025 0.26528476748216656
0.7912537665235346 12.988140551979752 10287.199027532288 17.111793688816174 0.26904862266596374
0.8148311352288782 12.990670589097846 8953.527203762042 17.90935014590772 0.272873291407748
0.8387146458658006 12.994141625415178 7805.241165552549 18.74144518195392 0.2767597064629271
0.8628975402250444 12.998415136854629 6812.126619032864 19.609456418886825 0.2807086429065442
0.8873806121642543 13.003365187202006 5953.5102506536405 20.51545456402245 0.2847263188844704
0.912138800031151 13.008862239161564 5209.582571262986 21.461234449099706 0.2888157491429779
0.9371617792289553 13.014753022905643 4537.509002763079 22.448259302612907 0.292976684809075
0.9624469877938764 13.020960755990622 4003.1673711607214 23.478597144302274 0.2972132644896239
0.9879689026864702 13.027355635346625 3515.369621196478 24.554650901028612 0.3015314245694961
1.0137141159640295 13.033804237480966 3090.7103726718174 25.678337909157925 0.30593260832305924
1.0396801958750044 13.040268772586415 2720.450425252714 26.851670484138715 0.3104184507803552
1.065834336155954 13.046594019386573 2397.3675410319183 28.077722184103266 0.314997505963507
1.092168634142157 13.05272769858188 2114.827638133982 29.35851764014648 0.31967000734637313
1.1186693433189219 13.058560991257167 1867.6743217145524 30.69687484085436 0.3244410630869071
1.1453013464660302 13.06400757002027 1651.467797101655 32.09613091788911 0.32931830420652924
1.1720655304740977 13.069018378453372 1461.4605858616264 33.55829404777768 0.33429986133466544
1.198924281200378 13.073474891373984 1294.9161270874718 35.08787627034896 0.3393990929554954
1.2258723386222088 13.077347267738654 1148.6061454203477 36.686862485295336 0.3446125230995856
1.252869986925566 13.080504716226065 1019.752219308974 38.36034347644906 0.3499548247152824
1.2799144716289823 13.082943669657894 906.3514273636667 40.11060234203447 0.35542281994887004
1.306959450284867 13.084523753214647 806.4696030510203 41.94303104344707 0.3610306016900325
1.3339987632204342 13.085236623657673 718.3052580572281 43.861197282522426 0.3667805673478345
1.3610083400741155 13.085029993184829 640.3634398887781 45.86970874178179 0.37268001645524546
1.3879405597471017 13.083767774473984 571.5623243206112 47.9739413925853 0.3787391374899095
1.4147914857151336 13.081458660264158 510.60583468644813 50.17870162185584 0.38496382824673897
1.4415230800036638 13.07801770123682 456.6913031174257 52.489118738229486 0.39136058370535576
1.468119119170155 13.073414166658864 408.84652132537303 54.911657103642405 0.39794133759361006
1.494530405460765 13.067543407355206 366.372963170266 57.45250929038133 0.40471515547029896
1.5207415410680116 13.060393526667994 328.70336455712174 60.11830622198936 0.4116918133541144
1.546728150825237 13.051899353070617 295.16300809003246 62.91615663665919 0.4188818562273207
1.5724427033095447 13.042015622746348 265.3496827339733 65.85369032937832 0.42629666131682137
1.5978564363756032 13.030674881211269 238.80917158192707 68.93910555648911 0.4339485067117986
1.622954084868495 13.01785334131526 215.14081820658237 72.18122103403117 0.4418506459456137
1.6477070748181846 13.00350519565943 194.00951582774772 75.58953301530897 0.45001738924550855
1.6720552990561974 12.987565385916596 175.15013484819391 79.17390079179945 0.4584626171295072
1.6959927557021337 12.970005889456637 158.2919313576459 82.94468555640861 0.46720030003240526
1.7194724684300076 12.95078779953068 143.21457472925957 86.91455097005462 0.4762516574485588
1.7424520423330496 12.929832312142906 129.71564539057093 91.09499512133227 0.48563069881861737
1.764935954483874 12.907181718182896 117.62647340899781 95.50028452245225 0.4953600332490839
1.7868620424572088 12.882744134700966 106.77741596915445 100.14392093019846 0.5054565093755583
1.8081991410893645 12.85647213529209 97.04291106042386 105.0425247528297 0.5159461823684466
1.8289126355807817 12.828339315183404 88.29147437281608 110.21264668560146 0.5268516034789148
1.8489858941921995 12.798349996727676 80.4284431395536 115.67203644891761 0.5381965582491302
1.8683590206261829 12.766404671471667 73.35075719188906 121.44070393671782 0.5500096172961719
1.887035365971152 12.732576086844764 66.97770817234075 127.54008988582619 0.5623206309410618
1.904957280548316 12.696748225740672 61.22912032715973 133.99282383828537 0.5751595461310534
1.9220964769856252 12.658920042405258 56.04800082285589 140.82453869888792 0.5885624412535228
1.9384076679352857 12.619020062160445 51.36708754113674 148.06292126590748 0.6025675774037327
1.953901605998863 12.577164983555175 47.14231232735233 155.73637308541117 0.6172103479367025
1.9685148107117036 12.533225444220465 43.32262166322128 163.87866998919796 0.632538757639433
1.9822259215962552 12.487213227808386 39.860167807663245 172.5237400071897 0.6485948404654199
1.995010839327398 12.43912124497484 36.72927006954605 181.71064171545493 0.6654309324121368
2.0068440615996805 12.388950910112955 33.88682632220938 191.48153400373425 0.6831019201657456
2.0176874488335224 12.336662905599937 31.313228622209465 201.8824827013054 0.701667078607879
2.027519689123743 12.282269848608731 28.978637198807558 212.96332138466164 0.7211886340919121
2.036324902368933 12.225787317539217 26.857557118789604 224.77987167892653 0.7417379378711322
2.0440648519153353 12.167181404287282 24.93145015780208 237.39303630954495 0.763391180657615
2.050720481274196 12.106458809362007 23.177917317325107 250.86988063221486 0.7862315102405031
2.05628805541668 12.043697715067536 21.58500280049218 265.28372653146283 0.810347697172908
2.060728426726518 11.978835644104596 20.132462486693754 280.7158942603259 0.8358379370042848
2.06402873835688 11.911927131611652 18.813696963264885 297.2566580495337 0.8628108277792922
2.0661873106504216 11.843010397031364 17.607114065825282 315.00633344158695 0.8913864896397802
2.0671708393473756 11.772107403360046 16.516967409946066 334.0742134217917 0.9216902175780745
