M[M_sun], R[km], Lambda[1], P_c[MeV/fm^3], rho_c[fm^-3]
0.24162668629717493 15.618656898711224 2160425.4255784233 3.5677272577965504 0.1711233750220791
0.25364442581402474 15.277260587594592 1723207.70699656 3.7848268823486704 0.1738882637492635
0.2660409156822724 14.98122943777205 1353271.0409320497 4.0114167826545595 0.1766668459915018
0.27881621845715326 14.723490136924646 1116471.7561322805 4.247752824803874 0.1794577996597375
0.29197133877005815 14.498384863018497 905851.3937333548 4.494460266851418 0.18226769233574686
0.30550737315576 14.301184708796054 738648.741914782 4.75169467535982 0.1850922295279968
0.31942376841289116 14.1281115864245 605078.2168275935 5.0201384338107555 0.18793803215257113
0.3337242462880622 13.975883620250485 497659.0712360536 5.3000154270680495 0.1908017198739088
0.348403827713186 13.8420037971598 410992.07644988346 5.592054514772076 0.19368959420202533
0.36346711871860415 13.723962718558194 340634.46270760125 5.896422680251097 0.19659671262054434
0.3789208413140806 13.619984346261596 283290.0275032835 6.213984147439443 0.1995307588146101
0.3947523479915057 13.528465209148106 236393.85840924756 6.5449961109113195 0.20248790712959097
0.4109791252755094 13.447870840711765 197857.8133021025 6.890161447712369 0.20547187675062203
0.4275866031474148 13.377077471857282 166073.60936536692 7.2501850953356675 0.2084857379467962
0.44458361477020525 13.31490497829155 139795.66809670485 7.625325804407721 0.21152503369873257
0.461965252636983 13.260559125476655 117974.61842234475 8.016533048436113 0.21459593299488222
0.47973032422869866 13.213137592542319 99801.82335311554 8.424511686685003 0.21770008007140026
0.49788819520051925 13.17197098979907 84638.65338040084 8.849702395008059 0.2208349398885122
0.5164282608830253 13.136376117129755 71934.26909733342 9.292978884718181 0.22400392581017856
0.5353458234455446 13.1058409181664 61272.5089170732 9.755225880883552 0.22720995493505014
0.5546538027492139 13.079798605633924 52303.07818114595 10.237253051804707 0.23045437832796237
0.5743365684218541 13.057830978173477 44726.767160110685 10.739531013860107 0.23373388527283193
0.5943950273956791 13.039509517250512 37989.546726937915 11.263305633181098 0.23705467819879456
0.6148315872355498 13.0244969363493 32899.565093633115 11.809514086823981 0.2404183657509
0.6356369839910976 13.012438323773496 28290.098342745194 12.379135488399017 0.24382658107399155
0.6568079276390235 13.003021742521181 24369.127697645763 12.972858241162514 0.24727726757667903
0.6783403981968807 12.995972466427032 21026.01513363626 13.592010421004785 0.2507752247048693
0.7002294862335678 12.991062760769344 18171.201202148226 14.23778926059503 0.25432308308253326
0.7224642181622308 12.98799167712396 15728.412591274695 14.911384589192096 0.2579228276005979
0.7450522658874312 12.986645546086445 13632.807555415378 15.613824216092324 0.26157433563966664
0.7679734952887146 12.986763936691808 11835.160873594241 16.34637818267945 0.2652795403197441
0.7912198998427131 12.988144858774804 10219.217037006261 17.11066088703895 0.26904311423452
0.8147950750501601 12.990657550275843 8955.06768442849 17.908127560737665 0.27286749032853513
0.8386775322164093 12.994131563453731 7806.4989976692395 18.74013823631922 0.27675370172396746
0.8628584185628391 12.99841188112125 6813.421232958349 19.60804811753377 0.2807023247465422
0.8873408139304971 13.003353592313394 5954.765079797908 20.513938127870396 0.284719673626125
0.9120968139913512 13.008846336207169 5210.572790279596 21.45960263481211 0.2888087621867506
0.9371174372024526 13.014737557437549 4564.777759014342 22.44651890818193 0.29296945620143905
0.9624018571034667 13.020955908842717 4004.136075963402 23.47672632658629 0.2972056665430052
0.9879234072891389 13.027349113969922 3516.140465163936 24.552640852996966 0.30152343960288097
1.0136662683483237 13.03379551880883 3091.726285088657 25.676196412029356 0.30592434387321105
1.0396311783589156 13.040254260422774 2721.142519447888 26.849371354638325 0.3104097650831059
1.0657822731708193 13.04658180844526 2397.909459721274 28.07525465852384 0.31498837751342634
1.0921116242787605 13.052714732730188 2115.50890735608 29.355890464584245 0.3196605511274431
1.118610272480104 13.058549772041856 1868.304732624195 30.694056645711747 0.32443112172092703
1.1452445163478608 13.06399963851694 1651.9000940479893 32.093130902010586 0.3293079964474603
1.1720089558451618 13.069013692413622 1461.8822601233517 33.55507701698164 0.33428901960919305
1.19886513381448 13.073467269896106 1289.3149827775617 35.084427038727874 0.3393876872816133
1.2258116182666887 13.077334882515677 1148.919642112327 36.68319106324997 0.3446006796603912
1.252808264904892 13.08049983688146 1020.0236997536193 38.35643496253371 0.3499425171796587
1.2798517593187075 13.082938991387762 906.5973959816173 40.106412306072755 0.3554098573774051
1.3068947142213097 13.084523952239207 806.6381835535055 41.93856950894255 0.3610171137953058
1.3339300551175506 13.085238855884004 718.4683550588868 43.85641422154799 0.3667663496170015
1.3609405603172333 13.085032156650726 640.5252204521333 45.86461417757968 0.37266520215459
1.3878731865566085 13.083772245771256 571.7217211511265 47.96851356188016 0.37872368813158075
1.4147296187619274 13.081480498942595 510.7378073967531 50.17288099836579 0.3849475182182739
1.4414538043157403 13.078027363078817 456.82376539235537 52.48291456315925 0.3913435493651164
1.468047944174357 13.073429016981526 408.94907136572954 54.90504190178368 0.3979235306599245
1.4944576932812863 13.067561778028127 366.47803520671084 57.44545336080985 0.4046965239287549
1.5206701964491895 13.060412964011816 328.7946044151475 60.11077743877257 0.4116723011509894
1.5466537065531303 13.051927049429057 295.24394087044794 62.908120229674616 0.41886140293262225
1.5723696638350648 13.04204509337792 265.4233468822849 65.84510864303039 0.4262752017536839
1.597794930178086 13.030715219813663 238.8884502476769 68.92993778383862 0.43392597054858945
1.6228808257853602 13.017891966588813 215.20018880689665 72.17142292354818 0.4418269572466717
1.6476329053500094 13.003552971177456 194.0662493702746 75.57905654711219 0.44999246597594306
1.6719824401826562 12.987619610144238 175.2019854111974 79.16274853362025 0.4584365990387652
1.6959193407785043 12.970063617365996 158.3443805844792 82.93274868338472 0.4671728691329622
1.7193999876218145 12.950850391469347 143.25813319837442 86.9017680246583 0.4762227103665649
1.7423820133293113 12.929912751702647 129.75739724176083 91.08136078312074 0.4856003674347162
1.764864401987001 12.907259672832772 117.66346977059507 95.48566742529914 0.49532796007409075
1.7867911171962398 12.882823511865276 106.80859203875293 100.12830834591126 0.5054228180959993
1.8081291931033825 12.856563207272451 97.07145079052812 105.02583570989076 0.5159107431507841
1.8288386624459416 12.828427185510572 88.31665252266744 110.19479286296165 0.5268142758850304
1.8489178222102962 12.798458707551005 80.45381521911365 115.65284847130107 0.5381569225086364
1.8682941313199544 12.766518113971747 73.37583091399877 121.42014688870013 0.5499677706797256
1.8869730878973066 12.73269545041931 66.99795215049768 127.51812650322259 0.5622766729697041
1.9048955072474991 12.696878249983916 61.24864814636512 133.96925250625486 0.5751130090027915
1.922036075194447 12.659059062098699 56.06599597601665 140.79922117602652 0.5885131130912215
1.938352170706308 12.619168400003371 51.38607268542683 148.03570591254973 0.6025152273175008
1.9538450650692145 12.577323491376898 47.15749940979157 155.70718300861273 0.6171550298192016
1.9684611646214183 12.533391694384838 43.331805731073295 163.84732826851751 0.6324802110447341
1.9821758109018397 12.487389460925545 39.87355134013938 172.4899580078575 0.6485324656973004
1.9949648112024854 12.439312203285247 36.739477678740315 181.6742969569271 0.6653647299305298
2.006800919422092 12.389149778983313 33.89756482547537 191.44239042608763 0.6830315512867536
2.0176459500632498 12.336873278805214 31.32259661353291 201.8402799002412 0.701592172798953
2.027482174914707 12.28248715955418 28.988322196820622 212.9178782400081 0.7211091340291177
2.036292154611853 12.226021645957932 26.865441365328607 224.7307674902787 0.7416530601120495
2.0440359230780354 12.167421583175788 24.938554002869914 237.34003181454017 0.763300803124556
2.0506942026581796 12.106713550021794 23.184239530687712 250.81259281472757 0.7861351166640567
2.0562664020532173 12.043965039648292 21.590758386622102 265.221636087248 0.8102444126726125
2.0607125557735793 11.979113163221735 20.139177457285083 280.64871788412444 0.8357277521121497
2.0640178544652525 11.912216052435914 18.819446403893863 297.1837760603922 0.8626927458978069
2.06617746138954 11.843313230931303 17.61660658477995 314.92716047477523 0.8912597492920387
2.0671684298609887 11.772417305199403 16.52097667720875 333.98822719272175 0.92155440919779
