M[M_sun], R[km], Lambda[1], P_c[MeV/fm^3], rho_c[fm^-3]
0.24162668629717493 15.618656898711224 2160425.4255784233 3.5677272577965504 0.1711233750220791
0.25364474929330305 15.277253455579899 1723060.5659957877 3.7848344747829725 0.17388835838529434
0.26604078746954735 14.981254692989431 1382995.0542235144 4.011432743550676 0.17666703886951188
0.27881718045064485 14.723501584627492 1093918.288002919 4.247777694230163 0.179458088107605
0.2919725741294144 14.498363650146079 905830.6402007189 4.494494697489873 0.18226807572889697
0.3055090498704882 14.301187432577763 738583.352226554 4.751739836392974 0.185092717353346
0.3194266928792371 14.12809303716929 605039.5745190781 5.020194657999084 0.18793861550022556
0.3337268571444564 13.975853615650752 497632.7651250009 5.300084194759568 0.19080241225045613
0.3484079097879531 13.841969349223088 410970.63289477484 5.5921359977579455 0.19369038257232882
0.3634734110741508 13.723878229525582 340634.48842688143 5.896518709299346 0.19659761454568742
0.37892607698301245 13.619947765435109 283271.4198939229 6.214095884771454 0.19953177772453753
0.39475964532143026 13.528403166113332 236378.532693788 6.5451234406099035 0.20248902363903354
0.41098590664057744 13.447812894189305 197834.3168392879 6.89030682804948 0.20547311487057937
0.42759502467016136 13.377032859379048 166062.9861878275 7.250349890700218 0.20848710125661368
0.4445909784114739 13.314886067497849 139787.15327907732 7.625509559409858 0.21152649650670366
0.46197437582539697 13.260529940957596 117966.66059486751 8.01673896843602 0.21459752595256065
0.4797421490224488 13.21309086617308 99793.94506632189 8.424741377603048 0.21770180702600195
0.4978984532533519 13.171953755836274 84628.98774626486 8.849955010010191 0.2208367689290617
0.5164393049813553 13.136359620879269 71208.67762218337 9.293258512208418 0.22400589440514257
0.5353587958340459 13.105812453061484 61263.8955740086 9.755534417032589 0.22721206733684415
0.5546666284148837 13.079794586352373 52295.377342954045 10.23759250801254 0.23045663897388424
0.57435135135572 13.057827407369734 44721.885131550116 10.739899915226378 0.23373625373387472
0.5944099744314045 13.03949829287961 38320.5516484808 11.263709527885863 0.23705720174021894
0.6148482531486972 13.024482679418885 32894.70611865877 11.809955361170715 0.24042104943517814
0.635653986573808 13.012434738441003 28286.615832469688 12.379616677578772 0.24382943023083054
0.6568261734590184 13.003003149491331 24366.087550025324 12.97337713545958 0.24728023336369845
0.6783592835225246 12.995969650076676 21023.119179859623 13.59257438945194 0.25077836473008686
0.7002497420490534 12.991044067323728 18168.45491344005 14.238401327470024 0.25432640357520203
0.722485444047166 12.987990579332592 15725.214564250356 14.912047973103805 0.2579263351614036
0.7450749732896328 12.986639150469081 13630.833505030836 15.614535869340507 0.2615779731390131
0.7679969571308513 12.986759614417933 11833.24763705212 16.34714774339472 0.2652833763868972
0.7912447083556756 12.988139047451993 10286.595674313836 17.111492217971822 0.2690471567153343
0.8148205137899823 12.990668611070836 8954.104506958212 17.909024780754503 0.27287174757336075
0.8387036836491805 12.994142266593911 7805.419919857131 18.7410973657099 0.2767581084272508
0.8628868490833401 12.99840870205168 6812.335129420023 19.609081628488394 0.28070696145839436
0.8873705822950438 13.00337161714946 5953.844224158655 20.515050995287403 0.28472455038369915
0.9121279770888995 13.008864617721597 5209.792679903139 21.460800174285968 0.2888138897039858
0.9371501278299366 13.014752249922509 4564.04322834314 22.44779613090428 0.2929747610574874
0.9624349232104171 13.020957769615295 4003.4380021451734 23.478099262393748 0.29721124244325825
0.9879556384997746 13.027351123765682 3515.432679233656 24.554115965006456 0.30152929952262614
1.013701125023452 13.033801634936768 3091.022590471418 25.677767989890473 0.3059304088948459
1.03966571140666 13.04026032628627 2720.627785776539 26.851058613206973 0.3104161392421544
1.0658195961388464 13.046585997551862 2397.463529515323 28.077065496828414 0.3149950765917278
1.092154440136687 13.05271959209393 2115.0693839512182 29.35781846420123 0.31966749074226647
1.1186533131166472 13.05855131633489 1867.8356623722125 30.696124827486404 0.324438417366152
1.1452875245291083 13.064003804190065 1651.58299337501 32.0953325152752 0.32931556097378734
1.1720512343223595 13.069015139154393 1461.6055032425966 33.55743788925105 0.3342969759921571
1.1989084534205672 13.073481740811415 1294.972548921953 35.08695831426384 0.3393960575235804
1.2258565868047677 13.077339905701262 1148.6737393796927 36.68588539583281 0.3446093711602297
1.2528537233304209 13.080502169389407 1019.8259540519291 38.35930328768164 0.3499515492605731
1.2798976663980426 13.08294435598463 906.3908091373141 40.10948722911564 0.35541937016203434
1.3069420073101825 13.084523074895287 806.537537726374 41.9418436740623 0.36102701209249666
1.3339804903788675 13.085239445645634 718.3507780410512 43.85992434196277 0.3667767835101748
1.3609907500330725 13.085030444432233 640.3939701535487 45.868352897674654 0.37267607384475937
1.387923186528447 13.083768555434233 571.6105199327278 47.97249685271832 0.37873502586314045
1.4147744853644182 13.081458496645295 510.64901556113034 50.17715254348095 0.3849594875584205
1.4415047195205084 13.078021870652098 456.7258239656062 52.48746758085557 0.3913560502458422
1.4681002933905756 13.07341807273178 408.8737093404365 54.90989655480615 0.3979365985127707
1.494510939360667 13.06754858787855 366.4013833745487 57.45063144523487 0.4047101969245106
1.5207224087444815 13.06040078669877 328.7283516265592 60.11630253025659 0.41168662042466436
1.5467070697085519 13.05190809252982 295.1821124828972 62.91401784429771 0.4188764128307192
1.5724232057509977 13.042022780540067 265.37199850332894 65.85140641435821 0.4262909501061586
1.5978368334013784 13.030683150335177 238.82296995894305 68.9366656580283 0.4339425089681783
1.6229348058073179 13.017861655788638 215.15525144172528 72.17861337454335 0.4418443414585743
1.647686876804723 13.003518272126286 194.02230009523933 75.58674481422894 0.45001075618121483
1.6720366268925508 12.987579463098383 175.1722534623876 79.17093273261231 0.45845569268138037
1.6959727674297034 12.970021748052883 158.30799967365513 82.94150867507405 0.46719299956835103
1.7194531649769047 12.950804465719356 143.22622011489355 86.91114890944847 0.47624395345513154
1.7424292547756228 12.92982668224621 129.73906847687383 91.09136646549918 0.48562262639504894
1.7649170193106911 12.907202287607843 117.63856911766415 95.49639430767927 0.4953514972492292
1.7868438799247879 12.882762125055482 106.79009074169564 100.13976576893073 0.5054475427178091
1.8081809419011006 12.856497805466374 97.04873799523384 105.03808309412707 0.5159367504968815
1.8288933132110585 12.828364637316646 88.29895937752993 110.20789502235239 0.5268416690150403
1.8489672240651094 12.798378252560688 80.43124803295598 115.66692970064183 0.5381860094693958
1.868342667802271 12.76643312383635 73.35594417228917 121.43523281056737 0.5499984800882737
1.8870171973464944 12.732609144193196 66.97927544819251 127.53424446392773 0.562308931791936
1.9049411513445085 12.696781994574593 61.23285323980842 133.98655045906418 0.5751471605326037
1.9220801039551743 12.658956843004871 56.05053803172892 140.81780056816507 0.588549312812493
1.9383924726090813 12.619059768173537 51.373001466910466 148.05567802331996 0.6025536446662418
1.9538862218351574 12.57720914214504 47.146095390843136 155.72860426543343 0.6171956252451749
1.968499752881473 12.533267740514697 43.32466069364229 163.87032850264285 0.6325231756732255
1.9822129114747613 12.4872602093439 39.86364190817779 172.51474903024695 0.6485782396095482
1.9949980223496886 12.439171943269516 36.731731016283504 181.70096864875646 0.6654133127870209
2.0068328144169962 12.389003228660155 33.8914677980055 191.4711160169072 0.6830831916258816
2.017676594133216 12.336719462052374 31.316500036559653 201.8712504841781 0.7016471425304448
2.0275120093804735 12.282326224756464 28.981858249496522 212.9512267300312 0.7211674752172363
2.036315947330667 12.22584828848355 26.85979249525398 224.7668026105013 0.7417153476752287
2.0440561943496425 12.16724487400205 24.932888849412155 237.37892914435747 0.7633671266450641
2.0507146158037752 12.106526072071393 23.179841164233252 250.85463342414553 0.7862058549968389
2.0562822604851263 12.043769331735312 21.586849834819024 265.26721836811396 0.8103202642362481
2.060725086497721 11.978909340770704 20.136067109516794 280.6980151153379 0.8358086110451699
2.0640262038680683 11.9120046739596 18.81515996103013 297.2372602923943 0.8627793999370146
2.066182852193115 11.843091594910048 17.611764550518707 314.98526126531215 0.8913527572301423
2.067170199563086 11.772188554227204 16.518261763552236 334.0513278099113 0.9216540715821991
