M[M_sun], R[km], Lambda[1], P_c[MeV/fm^3], rho_c[fm^-3]
0.24162668629717493 15.618656898711224 2160425.4255784233 3.5677272577965504 0.1711233750220791
0.2536459852106298 15.27721796114198 1723073.2823090558 3.784857872187125 0.17388865002264983
0.2660437703643354 14.981185544521516 1382927.3023095746 4.011481930108229 0.176667633260032
0.2788215245670886 14.72337645076435 1116264.354736273 4.247854334559245 0.17945897701992786
0.29197874571784144 14.498268629227656 905725.1078562493 4.494600803270479 0.18226925724138987
0.3055161319613613 14.301083020727821 738532.1503934868 4.751879011077464 0.18509422070555737
0.31943502244176764 14.127980001605081 604975.3271880946 5.02036792738982 0.1879404132370303
0.3337363963792288 13.97582006902162 497565.3470813001 5.300296121347975 0.19080454599955157
0.34842049570597794 13.841863073767714 410904.7177076142 5.592387111294865 0.19369281216487746
0.3634867483595754 13.723811113466361 340552.6382642768 5.896814652324421 0.19660039410520713
0.37894261253295564 13.619843382735919 283219.2426527405 6.2144402395059855 0.19953491782508637
0.3947778070968426 13.528321112009635 236328.26244204256 6.545515850145144 0.2024924645405383
0.41100676176662754 13.447741995712665 197804.49398256515 6.8907548690358045 0.20547693057563202
0.42761862358450364 13.376913752497952 166021.03904458333 7.250857768563159 0.20849130280001585
0.44461653010812235 13.314797600025962 139745.55977738686 7.626075870998695 0.21153100471108796
0.4620003000670426 13.260436411733815 117926.35667167183 8.017373593164592 0.21460243528790823
0.4797708979905591 13.213046942433413 99767.96483555043 8.425449265451439 0.21770712935301278
0.4979316587079292 13.171884598347276 84604.141097829 8.850733551355773 0.22084240590104884
0.5164749348214029 13.13630259732937 71907.49254199426 9.294120308361634 0.22401196150378794
0.5353971836745555 13.10575242291493 61245.68172043288 9.756485312720685 0.22721857767206327
0.5547083539102328 13.079747045031963 52276.19113302071 10.23862955282336 0.23046348857179744
0.5743950461532944 13.057774382453779 44706.47068350425 10.741036864393946 0.23374355329971327
0.5944563954588208 13.03946647277868 38306.37850858826 11.26495433211696 0.23706497929958117
0.6148979754918664 13.024455658731 32883.10525868892 11.811315376133985 0.24042932059528968
0.6357069323285117 13.012394093513088 28274.59826875973 12.381099717927952 0.24383821142278403
0.6568816864691047 13.003008010537792 24356.178971772002 12.974976390709605 0.2472893740509021
0.6784193959387672 12.99596685266481 21015.15671682078 13.594312573631587 0.25078804247391173
0.7003122618437357 12.991041658134463 18160.924701624554 14.24028776297826 0.2543366375799017
0.722552136462949 12.98800175758079 15719.082500756673 14.914092581427209 0.25793714577633037
0.7451448097200718 12.986642155193048 13625.039202146378 15.616729256849041 0.2615891842810253
0.7680701539174645 12.98676851483517 11828.025388040243 16.349519619080198 0.26529519959230236
0.7913214478371134 12.988139512273973 10282.35212114407 17.114054489105644 0.26905961617220026
0.8148998951601818 12.99068284151126 8949.815774690753 17.911790144183765 0.2728848690250996
0.8387894271725173 12.994143407192682 7801.855329450327 18.744053554672607 0.2767716905859612
0.8629742460629711 12.998439166977242 6809.148444436001 19.612267088845126 0.2807212526100503
0.8874606382971981 13.00338963288972 5950.894183998078 20.51848106295174 0.28473958147204464
0.9122222697459724 13.008881426042253 5207.164148310377 21.46449123552266 0.28882969375931805
0.9372485297443348 13.014775225396244 4562.10707771089 22.451732808012885 0.2929911117729925
0.962536819108968 13.020988184824825 4001.350705215717 23.482330969153164 0.2972284286617708
0.9880627222939541 13.0273726620213 3513.6462757754407 24.55866262547208 0.30154736124625503
1.0138106798153588 13.033828887462107 3089.629237874948 25.68261200178338 0.30594910286964466
1.039778980673825 13.04028941170528 2719.098005001947 26.856259209754842 0.31043578615944317
1.0659363305568326 13.04661832104949 2396.3098271854296 28.08264702906148 0.31501572510649417
1.09227510408175 13.052742759848416 2113.824438024505 29.36376114667051 0.31968888075033025
1.118776885519395 13.058582618863877 1866.7495001382647 30.702499627623133 0.32446090488671103
1.1454145748331062 13.064039335298935 1650.5247614566638 32.102118623093986 0.3293388773718479
1.172181717762316 13.069037920104597 1460.8058313092617 33.56471492561523 0.3343215003549982
1.1990419164246369 13.07349386697347 1294.2804064949826 35.094760635673346 0.3394218576852675
1.2259935022899993 13.07736223926433 1147.961103656952 36.69419035583059 0.3446361616756024
1.2529933184373423 13.0805193116214 1019.2280033332398 38.36814459888202 0.3499793897019571
1.2800408982324074 13.082953187376726 905.8855488204085 40.118965410065655 0.35544869248743804
1.3070948211966404 13.08455145092969 806.0073732080302 41.951936048118704 0.36105752286825715
1.3341293040602709 13.085236343659423 717.8480288510885 43.87074409362983 0.3668089454076928
1.361141581762696 13.08502498806031 639.9945092367852 45.879877350537306 0.3727095853882054
1.3880822753331674 13.08377717688789 571.196449905106 47.984775245024224 0.3787699741311943
1.414929328385471 13.081445437838399 510.31486965509254 50.19031955205507 0.38499638296747957
1.441662538595481 13.077997811267858 456.39025973468233 52.50150229803651 0.39139458432086693
1.4682587935758296 13.073386868429138 408.58627879498704 54.924861143118726 0.3979768804931856
1.4946720444304102 13.067507688534173 366.1559153987196 57.46659310335295 0.40475234449604275
1.5208853540004241 13.06034923571923 328.51167322884123 60.13333394399433 0.411730760413131
1.5468711641570698 13.051850170686786 294.9964965540043 62.93219768261 0.4189226819645852
1.5607434336352006 13.038767813923267 276.9042912163572 66.62264784414555 1.4814349438696426
