M[M_sun], R[km], Lambda[1], P_c[MeV/fm^3], rho_c[fm^-3]
0.24162668629717493 15.618656898711224 2160425.4255784233 3.5677272577965504 0.1711233750220791
0.25364464512622426 15.277262643012389 1723219.3021380866 3.7848314256948803 0.17388832037988222
0.26604053538415884 14.981263012786108 1383004.5207030629 4.011426333719829 0.1766669614104889
0.27881683997570267 14.723506824024312 1116380.5250505616 4.24776770676168 0.1794579722680214
0.29197201484239144 14.498357944010692 905842.3582734722 4.494480870263296 0.18226792175951992
0.30550802892416173 14.301204712383248 738629.2392423183 4.7517216998618625 0.1850925214441959
0.3194255185290581 14.128096285067588 605068.5378826169 5.020172078521739 0.18793838122943324
0.33372395615088074 13.975941367736066 497661.80107310007 5.3000565778244155 0.19080213419374392
0.3484062703785208 13.8419831850945 410979.24205569713 5.592103274367786 0.19369006596452712
0.36346942366697 13.723952795649042 340647.4997899812 5.896480144212275 0.1965972523342284
0.37892457694241743 13.619965115918957 279370.46842772764 6.214051011232365 0.1995313685318923
0.39475728279413647 13.528419497111488 236384.50684671785 6.545072305164696 0.20248857525025968
0.41098320707742786 13.447853073920449 197849.87565777535 6.890248443446757 0.20547261764280242
0.4275919296399496 13.377029718931901 166070.72022900547 7.250283708991685 0.2084865537522999
0.44458835849404477 13.314911696678177 139792.30278347892 7.625435763474042 0.21152590904360394
0.4619706197761167 13.260533538647076 117968.09546443718 8.01665627098499 0.21459688622091894
0.4797363823627068 13.213125871211206 99801.96482622206 8.424649133686064 0.21770111348070084
0.49789479843159307 13.171953834795728 84633.19511497008 8.849853559711224 0.2208360343855508
0.516434347808278 13.136373806058982 71926.60086069311 9.29314621360078 0.2240051038159438
0.5353539517256717 13.105824678763245 61269.162892655666 9.755410508596732 0.22721121899410374
0.5546609330473307 13.079790241126554 51810.848564076485 10.23745618195108 0.23045573109549589
0.5743456635374858 13.057835497208803 44322.03336258652 10.739751763858909 0.233735302556204
0.594402985451494 13.039509477910343 38322.394292934485 11.263547323023106 0.23705618828130112
0.6148413422560476 13.024489222149644 32896.78562909833 11.809778144448213 0.24041997166182577
0.6356473808863743 13.012434899106122 28287.992648022424 12.379423430836317 0.24382828600252898
0.6568189854188198 13.00302672870547 24366.50807356423 12.973168746125769 0.24727904229572042
0.6783519884997844 12.995981712835206 21024.84257178418 13.592347898058751 0.25077710368669026
0.7002408892144927 12.991048499343192 18168.147280720008 14.238155519431972 0.2543250700545989
0.7224760964159578 12.987996060557615 15725.94102384633 14.911781555788581 0.25792492651263127
0.7450659279311651 12.986639235653799 13631.68740812657 15.614250066721887 0.2615765123056071
0.7679879320860309 12.986755729393998 11834.495650092436 16.34683868470024 0.26528183580681985
0.7912340319635455 12.98814012109749 10286.905900210604 17.11115835187043 0.26904553323753977
0.8148085459022297 12.990672842439855 8954.467222404139 17.908664453054215 0.27287003784418756
0.8386924529952693 12.994132691850448 7805.916821309344 18.740712174694256 0.2767563386738371
0.8628770601305558 12.998399239947847 6813.055676852729 19.6086665651777 0.280705099331086
0.8873586499226288 13.003362461393856 5954.222402326658 20.51460406169073 0.2847225918513804
0.9121168261029049 13.008851351380436 5210.097605349513 21.46031923558216 0.2888118304637297
0.9371364400428347 13.014744870114308 4564.246835825856 22.447283190649742 0.29297263059569395
0.962421597550739 13.020959557561566 4003.74012749359 23.477547882789242 0.2972090031268535
0.9879421229615966 13.027345335597817 3515.7100407057815 24.553523550362225 0.30152694614047704
1.0136868229153972 13.033803491385175 3091.394884497454 25.67713683355041 0.30592797314097575
1.0396525312246558 13.040259319459373 2720.809832164421 26.850380998201015 0.3104135793346797
1.0658050745777503 13.046584099283407 2397.611281981049 28.076338250773425 0.3149923861923396
1.0921385579979164 13.052717909645974 2115.2126108338725 29.35704416482167 0.3196647037399223
1.1186372346654179 13.058548170068976 1867.968432764412 30.695294229240652 0.32443548737701866
1.145271855803618 13.063998729896838 1651.7679327851542 32.09444832932827 0.3293125229979625
1.1720338930993581 13.069014652478518 1461.7046720965088 33.55648974283507 0.3342937806409772
1.1988922686936812 13.073476739932376 1295.085394835063 35.08594173163431 0.3393926959604207
1.2258386287075513 13.07734320554413 1148.75211402965 36.6848033273482 0.34460588057479896
1.2528362453134445 13.080498746888228 1019.9427017885781 38.35815134143938 0.3499479218922893
1.2798788549905635 13.08294031122235 906.5010564198279 40.10825231020354 0.35541554973548006
1.3069234735683206 13.084523288884641 806.6001335783541 41.94052873670518 0.36102303683765397
1.3339615434039893 13.085236335001873 715.4695411271332 43.85851464140893 0.36677259315108535
1.360971574642633 13.085031654978556 640.4610960416896 45.866851388074835 0.3726717076588078
1.3879031465399165 13.083769917076806 571.6651546681015 47.970897119770065 0.37873047250676467
1.4147514960157526 13.08146315431303 510.7126579451366 50.17543704295372 0.3849546805368912
1.4414836855169886 13.078023484228268 456.7537395133491 52.48563903641434 0.391351029747903
1.4680790249601081 13.073421745290844 408.90372164283747 54.90794686865596 0.39793135030829774
1.4944903092077462 13.067553449383125 366.4325186701586 57.44855186358926 0.4047047056832175
1.5207019193434428 13.060405786576784 328.7492862200216 60.114083584599264 0.41168086962574474
1.5466855468567557 13.05191610048431 295.2119695735784 62.91164928678231 0.4188703846635338
1.5724017185120196 13.042031298609768 265.3879716434091 65.84887714669328 0.42628462536100403
1.5978162064886734 13.030693439148704 238.84974831250355 68.9339636531164 0.4339358669160673
1.622913292410876 13.017873016376772 215.1715488157295 72.17572559004992 0.44183735971882027
1.6476661126869985 13.003530402466318 194.0445059553282 75.58365709715932 0.4500034105754799
1.6720139696067804 12.987595952399982 175.18062420864416 79.16764583977991 0.45844802439800686
1.6959517215076232 12.970038675777229 158.31932641973023 82.93799053227599 0.4671849148864476
1.719431731823415 12.950822932121651 143.23927244534812 86.90738140315752 0.4762354219070309
1.7424100347378042 12.929867714291394 129.74832479530298 91.08734802763357 0.4856136868499318
1.7648948916475196 12.907227012664842 117.64370348043411 95.49208622033201 0.49534204434364015
1.786821766428025 12.882784884346083 106.79414798512771 100.13516428071541 0.5054376129058703
1.8081599706269953 12.856523092725874 97.05861784024049 105.03316434008325 0.5159263055123593
1.828868738615853 12.828383367512807 88.30379728191028 110.2026329713564 0.526830667466154
1.8489502227566368 12.798408592484297 80.44326937170915 115.66127443212494 0.5381743276361229
1.8683225628714635 12.76646757318617 73.36857098831901 121.42917403382289 0.5499861466391158
1.8870007823809205 12.732642422844624 66.98881538944477 127.52777119602081 0.5622959760587332
1.9049229259423615 12.696821125214864 61.24039980298678 133.97960327726824 0.5751334446386577
1.9220628988534936 12.658998704390404 56.05930509054126 140.81033872805196 0.5885347743103583
1.9383751677020826 12.619104963512722 51.37813724072084 148.04765683150865 0.6025382155047135
1.9538704508043467 12.577255550950694 47.150641318716076 155.7200010590226 0.6171793213078333
1.9684851281857345 12.533317273448793 43.32788908527202 163.86109113711825 0.6325059201976576
1.9821977718420725 12.487311611635027 39.867983063419175 172.50479243486961 0.6485598558448156
1.9949839935975178 12.43922641393602 36.73454585804723 181.6902567243367 0.665393800868161
2.006820152297976 12.389062415226224 33.892369350661795 191.45957918834065 0.683062451730804
2.017666875108206 12.336779766730066 31.32006807401714 201.8588120011639 0.7016250654500499
2.0274983967077334 12.282391318513126 28.983383861105825 212.93783321019444 0.7211440440555907
2.0363068156363666 12.225916094750248 26.861838095830812 224.75233005835136 0.741690331524295
2.0440484185195538 12.167315420031784 24.93477499853537 237.3633070408611 0.7633404895235318
2.050705310789143 12.106601301266526 23.181577793881452 250.83774888069004 0.7861774447413653
2.0562762595475768 12.043847633655751 21.58876656450501 265.2489113741934 0.8102898003347504
2.060719403219585 11.978991969846222 20.136351686911716 280.6782160760211 0.8357761360125042
2.06402246302419 11.912089903205448 18.816606693225836 297.21577961224386 0.8627445973862387
2.066180117387022 11.843180627749208 17.61419541189938 314.96192641568234 0.8913154027254967
2.0671715536650686 11.77227949133285 16.52104014098963 334.02598485431764 0.92161404440822
