M[M_sun], R[km], Lambda[1], P_c[MeV/fm^3], rho_c[fm^-3]
0.24162668629717493 15.618656898711224 2160425.4255784233 3.5677272577965504 0.1711233750220791
0.2536450227797095 15.277274501455041 1723212.209211709 3.7848396089844303 0.1738884223806387
0.2660418491712647 14.981242018979263 1382990.9941032173 4.011443536749347 0.1766671692989481
0.2788179710252922 14.723467760834565 1116408.5548056075 4.247794511661668 0.17945828316446713
0.2919738182134959 14.49835010049801 905828.4026206612 4.494517980544222 0.18226833499111086
0.3055110737697715 14.30115096265741 738573.5127934794 4.751770375739025 0.18509304723656858
0.3194282042802874 14.128064952116544 605013.1272445087 5.020232678689093 0.18793900997955906
0.33372629526578373 13.975892843189103 497632.9827658869 5.300130697892176 0.19080288045983884
0.34841069058011076 13.841945701169841 410956.24200377375 5.592191099534027 0.19369091569717037
0.3634752112675148 13.723901552360548 340613.69964167866 5.8965836477958575 0.1965982244617891
0.3789300680484067 13.619918210655086 283247.06847066927 6.2141714459698445 0.19953246675168526
0.39476370467176103 13.52840226960373 236372.32874149192 6.545209546151935 0.20248977866831427
0.4109905089615099 13.447793515760088 197834.98189896042 6.890405140377925 0.20547395213962355
0.4275993410829245 13.377006567485 166054.1989676729 7.250461332524624 0.2084880231862669
0.444596667163692 13.314864515686192 139774.1264649634 7.625633822802882 0.21152748572321323
0.461978597447895 13.260500682951246 117948.08293970326 8.016878221084337 0.21459860318437632
0.47974739056004573 13.21311423894451 99791.14592076767 8.424896705567035 0.21770297487514662
0.49790581730423183 13.171967975737138 84626.20799938642 8.85012584064262 0.2208380058158308
0.5164464114921364 13.136354387838605 71920.69759147981 9.293447610391128 0.22400722566813774
0.5353673445945605 13.105798327860708 61259.635755883915 9.755743065126994 0.22721349585214234
0.5546756789034658 13.07976802775224 52292.59426951711 10.237820858265284 0.23045815220944527
0.5743609506454007 13.057829187107094 44717.212578119346 10.740149386335705 0.23373785541567307
0.5944193725986071 13.039497172531958 38318.30255764128 11.263982663933847 0.2370589082991895
0.6148590019893848 13.024476595180218 32892.83129980815 11.810253776005414 0.24042286429526727
0.6356655790355568 13.012413526459477 28283.599337204116 12.379942085744533 0.24383135699672626
0.6568386349165244 13.003010366668555 24169.945332708074 12.973728042611464 0.24728223900508234
0.6783723457945816 12.995965823112416 21021.478161440835 13.59295577917879 0.25078048820590554
0.7002620318998534 12.991061783051073 18165.46320460613 14.238815245098008 0.2543286490985351
0.722500304780187 12.988000828361915 15724.34632704909 14.912496595390724 0.257928707196544
0.7450901507317207 12.986643819224696 13629.784797036858 15.615017135207012 0.2615804330508864
0.7680140083578549 12.986760825240564 11832.764436821279 16.34766817106377 0.26528597058829967
0.7912617663748303 12.988146644546426 10218.03725890121 17.112054419854307 0.2690498905127113
0.8148384414907949 12.990666733099644 8953.23686971635 17.909631542481428 0.27287462661436945
0.8387230315542386 12.994133230523163 7804.881477139522 18.741745995864058 0.2767610885471989
0.8629062614211224 12.998420014025216 6811.777556803794 19.609780562047852 0.2807100971324813
0.8873906623535706 13.003362960664798 5953.085689841076 20.515803596849373 0.2847278484004364
0.9121495863824095 13.008854681032862 5209.25951003509 21.46161003887457 0.288817357309628
0.9371712803463214 13.014758961377055 4563.367486893863 22.448659884613328 0.29297834859864796
0.9624563186699419 13.020969336664985 4002.935599661534 23.47902774637189 0.29721501329257294
0.9879797914231072 13.027356897834478 3515.1451522745565 24.555113550397664 0.3015332624558094
1.013724947917095 13.033816152431273 3090.5255131454137 25.67883081477095 0.30593451054074816
1.0396924121966054 13.04026245296973 2720.354751656099 26.852199672902064 0.31042044996021234
1.0658455898541708 13.046594844392295 2397.178275698458 28.07829013365971 0.3149996070558797
1.092180813057121 13.052727782469644 2114.700261317746 29.359122337326575 0.3196721838849355
1.1186807379466428 13.058553127735083 1867.5828725968292 30.697523506425522 0.32444335129674184
1.14531450573381 13.064012278679485 1651.373948157673 32.09682143445355 0.3293206767534315
1.172080342219958 13.069020337786403 1461.4093087197746 33.559034516508795 0.3343023567906348
1.1989383575034815 13.073476946301708 1294.8247581892017 35.08867018685918 0.3394017182221635
1.2258862398479438 13.077342528803463 1148.5430272111003 36.687707545357554 0.3446152491325339
1.2528846438526677 13.080503377951876 1019.6869086602393 38.36124311018123 0.3499576575756602
1.2799288348526963 13.08293991400161 906.2938272764977 40.111566776726754 0.35542580358761117
1.3069742417882555 13.084524751670218 806.4103260062095 41.94405797183132 0.36103370625011705
1.3340141934692857 13.085238379751123 718.269013433422 43.86229822049837 0.3667838399048622
1.3610231265966624 13.085033190614958 640.3086171878713 45.870881382125035 0.3726834263340725
1.3879567911916535 13.083767803920743 571.5393666964551 47.97519074499169 0.37874269355015777
1.4148068620820313 13.081460335043893 510.5641959264407 50.18004138878314 0.3849675824213146
1.4415398297403181 13.07801652113397 456.67144641854884 52.49054679244481 0.39136450460718536
1.468135381373421 13.073410194617122 408.8154195768136 54.91317976973481 0.3979454363368853
1.4945460130590102 13.067538780443316 366.34738148139763 57.454133405304795 0.40471944402850557
1.5207588905077343 13.06038864293888 328.688620079922 60.120039180943074 0.41169630463061135
1.5467423457735523 13.051894663816828 295.13533711726365 62.91800644354624 0.4188865641329144
1.5724594816364 13.042008790493043 265.323056087748 65.85566565235241 0.4263016008550847
1.597873175875056 13.030665936835568 238.7894198538108 68.94121578916312 0.43395369407297824
1.6229714068247785 13.017843345775566 215.12512893130867 72.18347636298707 0.4418560986100579
1.6477242184943508 13.003494758317842 193.98343074937384 75.59194449463386 0.4500231260976745
1.6720719431556208 12.987552878971897 175.1479308020423 79.17646783029083 0.45846860600093875
1.6960094403084174 12.969992739870216 158.28017498305263 82.94743320554484 0.4672066141221179
1.719488105051825 12.95077535866497 143.20113907915152 86.9174933774019 0.4762583205535084
1.7424701201155686 12.929822342772354 129.71133875055577 91.09813351151847 0.48563768058158174
1.7649520024832401 12.907166008695063 117.61174592684684 95.50364913631843 0.49536741596318806
1.7868792152966095 12.882722612294446 106.75989508478257 100.1475146976454 0.5054642645697975
1.8082146320382726 12.856452433936955 97.03467025227269 105.04636631370677 0.5159543399310212
1.828929669110337 12.828316331676435 88.28528223483032 110.21675637172692 0.5268601957393947
1.849000290929954 12.798325521872457 80.41930631663729 115.67645325160008 0.5382056818393507
1.868374045578534 12.76637828213235 73.34518858423533 121.44543589350207 0.5500192498261159
1.8870497832982 12.732547337861806 66.96955556470796 127.5451455747906 0.5623307495022462
1.9049712814803477 12.696718271194355 61.22123072169604 133.99824967292943 0.5751702584133473
1.922110069183185 12.658887342663366 56.04345057728761 140.83036650360006 0.5885737960333042
1.9384210317556794 12.618986033171177 51.3641008390608 148.06918594964444 0.6025796278345882
1.9539141022932311 12.577127543054674 47.139133481783325 155.74309234929387 0.617223081614368
1.968527717402109 12.533186533006978 43.31742236526928 163.88588456221493 0.632552234521786
1.982238045939289 12.487172019957399 39.857748713218655 172.53151633720103 0.6486091986085395
1.995022341850035 12.439079091727688 36.72675376137231 181.71900799867916 0.6654461717130348
2.006854554762643 12.388903697571855 33.88493565830352 191.49054458458647 0.6831181185950093
2.017696900820436 12.336615172437497 31.310490076911382 201.8921975289623 0.7016843214686812
2.0275291875666754 12.28222002350245 28.97767848925525 212.9737821552462 0.7212069345842018
2.0363332706071593 12.225733385385858 26.856367135133276 224.79117524592644 0.7417574763557913
2.0440712818972924 12.167125709544395 24.929000521938068 237.40523775494694 0.7634119852428692
2.0507253915840455 12.106400199526426 23.175852603453183 250.8830681340133 0.7862536997830359
2.056292339757736 12.043637363157012 21.58349827583205 265.2979979135491 0.8103714022800961
2.060732333396188 11.978771798614256 20.131891154539414 280.73135820857954 0.8358633014786231
2.0640315394845823 11.911860407222521 18.812512922778623 297.27343549829243 0.8628380102524833
2.0661860543237873 11.842942046273347 17.6107357654992 315.0245591570515 0.8914156654255165
2.0671710151797784 11.772036084195936 16.515196181612765 334.09400764685665 0.9217214809754131
