M[M_sun], R[km], Lambda[1], P_c[MeV/fm^3], rho_c[fm^-3]
0.24162668629717493 15.618656898711224 2160425.4255784233 3.5677272577965504 0.1711233750220791
0.25364608592383053 15.27723578061131 1723102.4852160942 3.7848529213395383 0.17388858831272302
0.26604308816745237 14.981211720054167 1382912.6025383407 4.0114715222873425 0.17666750748765883
0.2788201289898852 14.723438309102105 1116349.4628935 4.247838117496654 0.17945878892644038
0.29197768035898697 14.49828177299293 905801.338472043 4.494578351257195 0.18226900723301112
0.30551472049433137 14.301112804870774 738520.1587379195 4.751849561577552 0.1850939025947531
0.31943340622630195 14.128005351357778 605004.909611218 5.020331263302157 0.18794003283296976
0.333734928722041 13.975807299275234 497578.8541896822 5.3002512771895045 0.1908040944932857
0.34841783205303883 13.841885567514229 410918.6601077356 5.5923339749276355 0.1936922980559072
0.3634839195363627 13.72382302142932 340592.83273918554 5.896752029707993 0.1965998059403413
0.37893899266573206 13.619868882869314 283230.4396352623 6.214367372569009 0.19953425336635866
0.3947734319542578 13.528345402915193 236329.94451629292 6.545432814369818 0.2024917364289645
0.41100242869438924 13.447758795284757 197807.46856294456 6.890660061083495 0.20547612315132552
0.4276135778097041 13.376933036510477 166026.113595069 7.250750298469746 0.20849041372747526
0.4446114552855072 13.314809516288438 139751.76639130813 7.62595603564158 0.21153005074459144
0.4619944939668577 13.260454824960306 117937.71586654439 8.017239301884011 0.2146013964362831
0.47976413862270073 13.213075351343091 99774.41469482917 8.425299470707486 0.21770600310594748
0.4979255026201086 13.171886440356385 84611.33547461695 8.850568805334321 0.22084121306946297
0.5164679643075274 13.136307311309077 71912.92432805593 9.293937944373535 0.22401067764994267
0.5353886486884221 13.105773703035757 61248.985804420765 9.75628409386263 0.2272172000212497
0.554699112469764 13.079742185959297 52282.43443791441 10.238410320192761 0.23046204191342115
0.5743854718240569 13.057785455418216 44709.14119668736 10.7407962734879 0.23374200863157074
0.5944466412640638 13.039468409638273 38308.15933992234 11.264690917134734 0.2370633334780054
0.6148873929183631 13.024461650377047 32885.76201613085 11.811027580395349 0.2404275703170222
0.6356954932369921 13.012400476654667 28277.40075271772 12.380785887611799 0.24383635321019495
0.6568696930460474 13.003003880906116 24358.055472237276 12.974637967010645 0.247287439759816
0.6784056266897213 12.995959657481572 21016.629006739953 13.593944749663901 0.2507859945286056
0.7002996062150068 12.991050273461543 18162.73825798435 14.239888565816662 0.2543344719158172
0.7225340455939743 12.988028863577666 15720.148099273758 14.913659911352617 0.2579348580865498
0.7451300591717948 12.986643916742679 13626.277151681403 15.616265101739415 0.2615868118279911
0.7680552760251925 12.986757079148912 11829.245492859302 16.349017691632962 0.2652926976098656
0.7913047002188256 12.988147379471364 10283.569499823516 17.113512269318846 0.26905697954098806
0.8148830875976828 12.990676140578262 8950.660697679605 17.911204944943506 0.27288209229654836
0.838771398114888 12.994148939116723 7802.955325764727 18.743427971929925 0.2767688163569437
0.8629562518861206 12.998428467132655 6809.708089614222 19.611592986186164 0.28071822833655385
0.8874409113254885 13.003380988289026 5915.283772826727 20.517755194708133 0.28473640060485356
0.9122015370433255 13.008872496519887 5207.803075017111 21.463710133718553 0.28882634930758977
0.9372266540891407 13.014776135321348 4562.493083474518 22.45089972702278 0.292987651628844
0.9625153288243211 13.020977305720324 4001.724851354029 23.481435451215972 0.29722479169734356
0.9880388097816808 13.027376041012134 3514.0244378138423 24.557700453832798 0.30154353899509645
1.0137878308831674 13.033826470310636 3089.916976740973 25.681586901661905 0.3059451468108527
1.0397564762837488 13.040280250317904 2719.521348600902 26.855158645076244 0.31043162842426564
1.0659116190714548 13.046612931771552 2396.55308284499 28.081465846083674 0.31501135539704156
1.0922494034481298 13.052738808175459 2114.222686541478 29.362503532709106 0.3196843541122481
1.1187512268618873 13.058573127016261 1866.9734575809898 30.701150562988843 0.32445614597379635
1.1453876729612054 13.064035045889495 1650.7006799145381 32.10068251197663 0.32933394303549995
1.172154132913698 13.069033871020027 1460.9991430805687 33.5631749167469 0.33431631036633036
1.1990140328542596 13.073494446322902 1294.3827746576271 35.09310945757833 0.3394163976869427
1.225964518968971 13.07735195491743 1148.1341702309487 36.6924328014409 0.3446304920772048
1.2529636504801671 13.080516834514738 1019.3937480700407 38.36627353304314 0.3499734978950031
1.2800108680253162 13.082951635871384 905.9556161808995 40.11695955825423 0.3554424870520453
1.307062650259039 13.084555818019231 806.084605431275 41.949800209730334 0.361051065905231
1.334098993999585 13.085235087307995 717.9696533808758 43.86845431319281 0.36680213899604674
1.3611095581697712 13.085027218225928 640.0889249958641 45.87743842744925 0.372702493331168
1.3880501843791222 13.083777891710932 571.2939778552895 47.98217675796179 0.37876257799820473
1.4148966019534555 13.081448953579999 510.3913308214895 50.187532996288446 0.3849885747311367
1.441629606030415 13.078003188691909 456.48491549535055 52.49853209868314 0.39138642926628014
1.4682257983854052 13.073393781341416 408.6497956874612 54.921694143234646 0.39796835549907017
1.4946376399533798 13.067515401167144 366.2000010279051 57.4632150800077 0.40474342465328406
1.520850538401955 13.06035941253398 328.55931544973157 60.12972951280368 0.41172141887791647
1.5468352519322852 13.051862910203045 295.04355004977697 62.92835019274113 0.41891288979697994
1.5725540089872874 13.041968141412971 265.22255569272244 65.86671129395057 0.42632922184164357
1.5979673798619638 13.030620762898286 238.68125119299424 68.95301585545789 0.4339827009244825
1.6230757715904471 13.01780227273293 215.03167401139453 72.19608782108168 0.4418865890841694
1.6478192692169693 13.003435524418101 193.9101710104768 75.60542916331936 0.45005520580491337
1.6721675055991034 12.987486839601075 175.07644663247888 79.19082240253626 0.45850209505376033
1.6961039887413358 12.969923717149198 158.2167090507117 82.9627977804086 0.46724192187040586
1.7195837861759846 12.950692441965366 143.14718330608986 86.9339470747137 0.4762955800825465
1.7425611123867673 12.929720032455688 129.66302490022235 91.1156831789934 0.4856767221319131
1.7650442195290614 12.907067578110862 117.5644127258363 95.52246389676868 0.4954086997487478
1.7869549487172156 12.882583734761427 106.72849964355937 100.16761093549478 0.5055076313792259
1.7991261508979608 12.859561864296438 100.43606777527432 106.30356385195343 1.892897320725821
