M[M_sun], R[km], Lambda[1], P_c[MeV/fm^3], rho_c[fm^-3]
0.24162668629717493 15.618656898711224 2160425.4255784233 3.5677272577965504 0.1711233750220791
0.25363968871184933 15.277407003703454 1723251.0270857865 3.7847569138328203 0.17388739162546735
0.26603248751683123 14.981433057331726 1383157.5158713139 4.011269696234815 0.17666506853892364
0.2788037661290756 14.723733002177383 1094164.6298046343 4.247523645722652 0.17945514152776082
0.2919543939118927 14.49864197470399 906150.2814308271 4.494142982728934 0.18226415930340517
0.30548477277207225 14.301520477426074 738862.8973295529 4.75127851462125 0.18508773419776556
0.3193967403741532 14.12843257523273 605226.2653137952 5.019620332449765 0.18793265665098208
0.3336903140150754 13.976228448909154 497885.47967650526 5.2993817469095115 0.19079533976617782
0.34836793932941507 13.842233359415516 411161.0399939131 5.591303675257483 0.1936823296231728
0.36342442516249523 13.724261648040562 340825.5838148972 5.895537815145858 0.19658840178021852
0.3788709083148121 13.620298676525639 283454.97610654763 6.212954550973262 0.19952137013455337
0.3946978196827891 13.528739559717557 236532.63870261222 6.543822853644848 0.20247761924835692
0.41091606143551906 13.448143078460292 197986.7508380719 6.888821883221664 0.20546046845729277
0.42751942105691076 13.377314120075495 166200.73156318322 7.248666656182338 0.2084731762888233
0.4445071853428114 13.315159549876967 139903.7040175959 7.623632688849914 0.2115115554102227
0.46188164979280505 13.26079993095614 118063.20155542836 8.014635728814577 0.2145812556936926
0.4796399099500437 13.21336610286338 99891.42798347927 8.42239537146305 0.2176841683394856
0.4977899150262558 13.172172999913323 84713.38478376195 8.847374888556205 0.22081808774733377
0.5163199095065512 13.136583077603149 72000.1189852531 9.290402526452786 0.22398578808737296
0.5352317669052329 13.105988336765536 61331.74622929291 9.75238320661897 0.22719049248231965
0.5545303430940869 13.07996603825567 52352.724497235555 10.234125536344528 0.2304335502950453
0.5742027015721144 13.057977999446424 44370.400993214374 10.736132246842988 0.23371206413577575
0.5942551573336633 13.039648815876507 38364.267140100696 11.259584510351857 0.2370314285560189
0.6146835612053942 13.024607261086292 32934.923236161034 11.805448630981774 0.24039364099631608
0.6354747664001894 13.01251981315399 28089.75019527447 12.37470235147187 0.24380033214129398
0.6566393783180571 13.003073695250194 24397.956437430083 12.968077780459208 0.24724994442361908
0.6781613552540325 12.996025365375202 21051.42244628843 13.586814764745233 0.25074629668281573
0.7000410194967889 12.991081256226233 18193.650373627104 14.232150557536958 0.25429249284324623
0.7222650777735162 12.988020285900584 15748.180458243372 14.905273198891122 0.2578905143763707
0.7448435506415829 12.986660420188283 13650.726282698535 15.607268212734747 0.26154082569927156
0.7677542757267585 12.986749033191256 11850.333430643019 16.33928880102016 0.26524420153025086
0.7909901032022472 12.988117989513192 10302.095318420941 17.103002556117605 0.2690058743645779
0.8145549509578213 12.990636258682267 8968.435071185431 17.899862351665103 0.2728282725024766
0.8384267130790484 12.994100797054541 7817.3110769767945 18.731302804932465 0.27671310748832034
0.8625979412240474 12.99835717406385 6823.706334730489 19.598527605246183 0.2806596122121807
0.887062684254822 13.003293178398547 5963.673310597209 20.503686724869354 0.28467475038866924
0.9118136142730078 13.008780849399779 5218.434965429781 21.44857139485113 0.28876152961174123
0.9368227698286207 13.014669224228685 4571.80458743956 22.43475377732043 0.2929205905458901
0.962091407258362 13.020875008571533 4010.344928893476 23.46407969354785 0.29715430480855526
0.9876044221163939 13.027269030072613 3521.7192982568695 24.53905320769678 0.30146946233846145
1.013343709403275 13.033720784790871 3096.7841948095047 25.661720342300313 0.305868477932193
1.039291625344037 13.040171670026698 2725.5671636440507 26.83382992931704 0.3103510523767795
1.065436263647745 13.046506951992091 2401.8974336695533 28.058575149488654 0.31492667275669883
1.0917549966705569 13.052627572931566 2119.0243201243966 29.338131976585686 0.3195966314744155
1.1182443102524473 13.058461801787859 1871.5635196905012 30.675007213548362 0.32436392361459826
1.1448639904914946 13.063927869579453 1654.7538808284812 32.072819077615634 0.3292381050826624
1.1716185822866259 13.068942236487276 1464.4530565008997 33.53333222074694 0.3342157374038998
1.198465676960298 13.073401882339585 1297.5953735417997 35.06111306154627 0.33931059427950727
1.2254024858552441 13.07728294404369 1150.9369373327263 36.65837554624965 0.34452062864390764
1.2523898446898742 13.080450271579704 1022.0205462506385 38.3298552568153 0.34985837998645053
1.279423910121969 13.082898422323213 908.2640605330272 40.07809216835545 0.35532224433245446
1.3064592516143856 13.084505270722083 808.1622314612088 41.90841469568552 0.36092595122639565
1.3334868531081476 13.085228432377825 719.8579740481706 43.82408674655018 0.36667025564276906
1.3604893143094567 13.08504308560598 641.8423489408518 45.83018176103095 0.37256507736455646
1.3874141990030673 13.083801473316582 572.8363921801777 47.931829175887366 0.37861927252706784
1.414262325394263 13.081529769326897 511.73733875750827 50.13354251171457 0.38483728744348633
1.4409879879221703 13.078116811312256 457.69875438582744 52.44098440797139 0.3912284248688421
1.4675701190565156 13.073523896322435 409.77455953147245 54.8603344729165 0.3978031863018698
1.4939743894844355 13.067682185685145 367.2163941951249 57.39776802166035 0.40457060836108844
1.52018265735432 13.060561194497508 329.4508289461311 60.059897175748006 0.41154043574875865
1.546162823353386 13.052100581732526 295.84799276033255 62.853810172433526 0.4187231795191027
1.571876406417829 13.042250468383337 265.98625031775515 65.78711443554607 0.42613018009865505
1.5972930043806421 13.030943135503609 239.3697444105627 68.86798378952554 0.4337736756149642
1.6223839744616289 13.018163673143194 215.6380303709347 72.10521024562378 0.441666876157954
1.6471354194242251 13.003856634609402 194.47136531730442 75.50826084304158 0.449824044673698
1.6714898240692517 12.987961962700387 175.57346647170098 79.08734008869573 0.4582605852742255
1.6954252308447575 12.970451445732142 158.6822428615455 82.85208656759137 0.4669875078257953
1.7188888874746677 12.951239288810118 143.57479612537753 86.81539012565162 0.47602710692404965
1.741904548164643 12.9304019068616 130.04342134310588 90.98923114104454 0.48539541289279886
1.7643840270958098 12.90778710942836 117.91317893933653 95.38689886069501 0.4951112397894005
1.786312501912726 12.883384864066237 107.03963486734209 100.02281486862093 0.5051951677487116
1.807655148720304 12.857168547542567 97.27582972878592 104.91307047705261 0.5156712859424871
1.8283843841307275 12.829114261766398 88.50617814376655 110.07381820538048 0.5265607933144467
1.848462151839071 12.799168956877418 80.6247111260487 115.5232030513168 0.5378891198081439
1.867857818202107 12.76731920242713 73.52887994887786 121.28125368302173 0.5496850350116459
1.8865387236202473 12.733526502903308 67.13938691541712 127.36922662546019 0.5619778643729645
1.9044732163398046 12.697760187505626 61.37961486309363 133.80999893528258 0.5747985930058973
1.9216287418910825 12.660006290051932 56.18601005618968 140.62817327661682 0.5881798467369426
1.9379629487767378 12.620204641617654 51.49490333055654 147.85183979004896 0.6021615516829606
1.9534628553273177 12.578370279215328 47.2579517645313 155.509979395936 0.6167813092328193
1.968102939705189 12.534529500602364 43.42440610883914 163.63517598145168 0.632083276679844
1.9818378290860508 12.48859783204181 39.95689248736603 172.26174160826014 0.6481110890681088
1.9946440690741054 12.440583184503872 36.81716972289638 181.42877281645283 0.6649175043042709
2.0064972188881423 12.390479327747949 33.97212515717216 191.17796483045268 0.6825561902221726
2.0173778404183875 12.338309337893483 31.39022057046699 201.55519484042156 0.7010861749390955
2.027231807345933 12.283975885761867 29.048666227550505 212.61091084936498 0.7205721129444632
2.036065720785585 12.22758323592207 26.920917829586873 224.39907788828438 0.7410797267385928
2.0438367159516773 12.16906550035347 24.988736081492117 236.98200472597276 0.76269033404962
2.0505239010554943 12.108435635668906 23.23212289957595 250.42500298777293 0.785481943097851
2.0561192533090233 12.04573966429572 21.63288768634183 264.8020987685067 0.8095462781996225
2.0606013014143634 11.980989506488328 20.179669744126286 280.19455746748605 0.8349821054579053
2.0639425883337146 11.914184094893939 18.854828854705634 296.6915342811065 0.8618952260149332
2.066130985581602 11.845346003102636 17.650132238321035 314.39244494631635 0.8904037749014261
2.0671560486394442 11.77453541556247 16.552181717598785 333.4075128095421 0.9206372172166953
