M[M_sun], R[km], Lambda[1], P_c[MeV/fm^3], rho_c[fm^-3]
0.24162668629717493 15.618656898711224 2160425.4255784233 3.5677272577965504 0.1711233750220791
0.25363896801765207 15.277417288964331 1723240.089522598 3.784744425163119 0.17388723596022426
0.266031880641301 14.9814318947073 1383178.6336435066 4.011243443208004 0.1766647512865881
0.2788010971072598 14.723789279810196 1116688.712783426 4.24748274082639 0.17945466709260655
0.2919514808769786 14.498691121634392 906160.9504090252 4.49408635327908 0.18226352872133805
0.30548108426205256 14.301555457049945 738931.9669320005 4.751204238588117 0.18508693187484976
0.31939291102704814 14.128448088950256 605290.0976510589 5.01952786342644 0.18793169724917533
0.33368440392130533 13.976292969055915 497917.0919400158 5.299268651389959 0.19079420108195533
0.3483596732716964 13.84237317037211 411221.5148470933 5.591169671619941 0.19368103310111645
0.3634154076468846 13.724336533792131 335920.5371483285 5.895379893946866 0.1965869185508979
0.37886130161741943 13.62036753331356 283482.8337221701 6.212770802242143 0.19951969456737345
0.3946873365609023 13.528800367214943 236565.78723280915 6.543613468905827 0.20247578322706064
0.41090570653953007 13.448205589781836 198015.06707001582 6.888582821820986 0.20545843251008636
0.42750720592158725 13.37736034982315 166232.45872249472 7.248395676129599 0.20847093454029325
0.4444930191786539 13.315242696795334 139924.10046642504 7.623330539792501 0.2115091501094445
0.4618673434075402 13.260853065220159 118083.4616038854 8.014297142550928 0.21457863645520803
0.47962370827990286 13.213401529920151 99914.70311615936 8.422017709355343 0.21768132884839758
0.49777153271532865 13.172217270965893 84722.7575708241 8.846959543666445 0.22081508047286869
0.5163012297620339 13.136609237681443 72015.31531226565 9.289942779848623 0.2239825514426178
0.5352098982355015 13.106033080903265 61339.633460975296 9.751875943033445 0.22718701948730288
0.5545078049790809 13.079999531352058 52361.4406195782 10.233567451299967 0.23042983366635822
0.5741781136262469 13.05800089014174 44780.1786474871 10.735525765498277 0.2337081703376783
0.594231441003364 13.039670708316656 38372.72693057686 11.258920515918717 0.23702727990678482
0.6146552364215976 13.024610859478742 32942.085405929196 11.80472320339244 0.24038922918622374
0.6354471382448597 13.012516564984029 28099.375986987765 12.373911326201783 0.24379564842197338
0.6566086303437615 13.003088184414684 24404.391945425927 12.96722478985664 0.24724506907912008
0.6781296752155413 12.996047023620232 21056.287909774022 13.585887701587785 0.25074113504353013
0.7000071669746581 12.991088411095257 18196.906258257128 14.231144454295226 0.25428703468405695
0.7222299576547103 12.988031251821221 15752.510455756164 14.904182768997316 0.25788474886248147
0.7448070498102703 12.986658396317527 13654.177943603669 15.606098464856261 0.2615348467240412
0.767715538305688 12.98675194672565 11853.128861298777 16.338023901988656 0.26523789632582645
0.7909488281364304 12.988116445056392 10304.665791457634 17.10163616189211 0.26899923005215925
0.8145122850294423 12.990633495564364 8970.803307680098 17.89838769777834 0.2728212753752267
0.838380777952132 12.994101027397955 7819.246975920296 18.72972643039703 0.2767058648629681
0.8625512362439273 12.998348436458024 6825.47941351417 19.596829024066814 0.280651991749668
0.8870138157177782 13.00328386830194 5965.325168558819 20.50185776740993 0.28466673561349776
0.9117628515916568 13.008782666261888 5219.800497543291 21.446603332273764 0.2887531029377103
0.9367706009366441 13.014664839920862 4573.339898547158 22.43265480510725 0.2929118726102901
0.9620367024208419 13.020855333018472 4011.3811895799504 23.461823485939227 0.297145141679072
0.9875498419663072 13.02725100603799 3522.6879135569657 24.53662915244455 0.3014598327176974
1.0132848332047324 13.033711610130352 3097.7128011031364 25.659137818927 0.3058585114771295
1.039231591661532 13.040159703025177 2726.418686311082 26.831057384798587 0.3103405782028396
1.0653741446442522 13.046486849517782 2402.658104007716 28.055599615076268 0.3149156649610459
1.0916910450052242 13.05261514528906 2119.6799468645104 29.33496399341784 0.3195852286801628
1.1181770631021322 13.058450670631414 1872.1331920044008 30.671608983017165 0.3243519361361996
1.1447975146684066 13.06391387097779 1655.1539772080368 32.06917466795562 0.32922550129634776
1.1715490969893347 13.06892818402528 1464.9171708461045 33.529453263378784 0.33420266491763184
1.1983981593780368 13.073407987841406 1297.971194925556 35.056954245110276 0.3392968422010111
1.2253296751728096 13.077268388389271 1151.34667912504 36.65394893292774 0.3445063490745562
1.252315221206729 13.080448599678112 1022.2510958699297 38.32510995141088 0.34984334789920374
1.2793463335694188 13.082896302258153 908.5750317440081 40.07304053399091 0.35530661626337257
1.3063810259884994 13.084507831495275 808.4099226994051 41.90303586556507 0.36090969020805236
1.333408034414486 13.08522885439179 720.0185112577352 43.81832045927966 0.3666531152548969
1.3604073878630993 13.085047346881707 642.0355630934927 45.824040091478686 0.37254721822378123
1.3873322196868254 13.083804819391801 573.0300305062849 47.925285910331134 0.3786006482810827
1.4141786035201651 13.081539965195207 511.92261126041404 50.12652595664944 0.38481762628295346
1.440903335344005 13.078127338162089 457.8679131504895 52.43350569457237 0.39120789112388016
1.4674844932765791 13.073539436520191 409.9033382512597 54.8523605115644 0.3977817218319956
1.4938889770455264 13.067699167608641 367.34762300489786 57.389263043677076 0.4045481505333817
1.5200960751292747 13.060587162127439 329.5711939824219 60.05082249365716 0.4115169170691589
1.54607480584132 13.052131049981966 295.9537450033749 62.84412391631179 0.41869852722718137
1.5717881373445364 13.042284388851602 266.065377839091 65.77677126280481 0.4261043157219483
1.5972042737358958 13.030983840216322 239.4598179735642 68.85693456513634 0.4337465144784851
1.6222962119951931 13.018213687942234 215.7322086748986 72.0934016894389 0.44163832684399307
1.6470468075696267 13.003911287225629 194.5446702116545 75.49563514043786 0.44979400842641165
1.6714016447908357 12.98802251947465 175.64003476501944 79.07383446030974 0.458228955342872
1.6953360536166546 12.970520780823216 158.74106088547276 82.83770173072934 0.46695445151258175
1.7188015361097864 12.951315641199077 143.61567970476895 86.7999862345977 0.4759922246896711
1.7418169363684766 12.930484592770489 130.09065599009605 90.972801781525 0.48535886361529773
1.764296764541316 12.907878947857846 117.96166917219406 95.3692859119092 0.4950725930469841
1.786226465727585 12.8834865031731 107.07997864121027 100.00400299906475 0.5051545725503394
1.8075710442083202 12.857281217531263 97.30987322458273 104.8929622231464 0.5156285860231687
1.8283019725506597 12.829229548271027 88.54741606461174 110.05222227467526 0.526515503226281
1.8483808222103864 12.799297938489063 80.65690452705569 115.50008559313387 0.5378413671167596
1.8677782049966172 12.767457888746842 73.55353922289812 121.25648767715319 0.5496346204994261
1.886461078303807 12.733673319197266 67.16567329664385 127.34267315824732 0.5619245717761421
1.9043979279427603 12.697919184900742 61.40231879554653 133.78160349913242 0.5747425315982322
1.9215379754813948 12.660114525468789 56.2090508015504 140.59767548722573 0.5881204254454856
1.9378930570882762 12.620384843124631 51.51457809866761 147.81905719698955 0.602098492734175
1.953402452837845 12.57859058186944 47.27546695848215 155.4748194561058 0.6167146776272814
1.9680387132767354 12.534731637410383 43.44099642236743 163.5973154639965 0.6320123853585768
1.981778323793815 12.488811313722428 39.97361788886541 172.2210540629092 0.6480359639643024
1.994586776584647 12.440810262264515 36.832270385437596 181.38500050241024 0.6648377724273048
2.0064440159970767 12.3907199386919 33.98423706487042 191.1308237961033 0.682471444219351
2.017329105002494 12.33856127094385 31.403604599846414 201.50437187310473 0.7009959691853804
2.027187110135031 12.284240667780752 29.059551605187306 212.55613544019226 0.7204762062634875
2.036012942580222 12.227825931338694 26.93132964668675 224.33994936697533 0.7409775216818596
2.0438009947051134 12.169357530847108 24.996045208602762 236.91818269164773 0.7625815116183039
2.0504931640773827 12.108742428753057 23.23981959221098 250.35588850617515 0.7853654317044386
2.0560939246863574 12.046058055983254 21.640831359364288 264.72731584559847 0.809421835071107
2.060581093493704 11.981320481807476 20.185860327909772 280.11353807572334 0.8348489779353694
2.063928246468337 11.914532975065343 18.86149954778673 296.6037964112317 0.8617530749447667
2.0661223510326345 11.845707741826825 17.655717576094016 314.29713928499143 0.8902512092828258
2.067153655886224 11.774912670328588 16.5578729344229 333.30401147279946 0.9204737451229388
