M[M_sun], R[km], Lambda[1], P_c[MeV/fm^3], rho_c[fm^-3]
0.24162668629717493 15.618656898711224 2160425.4255784233 3.5677272577965504 0.1711233750220791
0.2536439316273355 15.277278989842875 1723196.376497271 3.7848176382236858 0.17388814852570508
0.26603967718974897 14.981272823515082 1383087.2798260178 4.011397349618038 0.176666611154724
0.2788145483516427 14.723536517023012 1116422.9101374275 4.247722545363889 0.1794574484638638
0.2919688608554139 14.498429385950711 905876.8124500623 4.494418346408992 0.1822672255418912
0.3055044910331027 14.301216653548037 738629.0516005722 4.751639690472187 0.18509163558627015
0.31942065535395714 14.128144808551959 605091.5689203346 5.020069979400887 0.18793732191164775
0.3337183433814168 13.97597850660361 497691.54905777867 5.2999317008631035 0.19080087688995187
0.34839885331358866 13.842044775695047 411016.409439534 5.591955307683052 0.19368863434614808
0.3634609478618883 13.724017710458893 340661.2003676586 5.896305763389249 0.19659561451263563
0.37891445993620787 13.620012626376784 283310.9235992581 6.21384810588501 0.19952951827943838
0.39474620623129386 13.528471535092761 236418.78208877175 6.544841085865076 0.20248654776936398
0.410971570826146 13.447902175398793 197876.80543001747 6.889984446346652 0.20547036933271584
0.42757861880955167 13.37707146777888 166088.73798180785 7.249984456623425 0.2084840781141491
0.4445731506967695 13.314946425747284 139811.9588198065 7.625102082851802 0.21152325273129496
0.4619547592816189 13.260578652666279 117981.61375113644 8.016282341699041 0.21459399357558326
0.47971872371104546 13.213162377991528 99818.4872421072 8.424232039714722 0.21769797751712305
0.49787493989765946 13.171999641913132 84649.19940830869 8.849394838871742 0.22083271305067662
0.5164134017541883 13.13640883411578 71943.23966640695 9.292638442071583 0.2240015290727224
0.5353308837121622 13.105856482671852 61278.96727889251 9.754850243344203 0.22720738312161923
0.5546365985854071 13.079820276019493 52301.03516164192 10.236839770718976 0.23045162603715288
0.574319529043099 13.057844279670269 44731.893307509024 10.739081884915919 0.2337310017258875
0.5943751988822201 13.039534793712724 38330.44774621788 11.262813901949805 0.23705160585316293
0.6148122314870402 13.024532254093945 32903.77414985721 11.808976848274668 0.24041509844415745
0.6356161083371602 13.012435346513808 28293.842323458986 12.378549656258269 0.2438231123184157
0.65678481239307 13.003046267052708 24372.782456072415 12.972226505672017 0.24727365683567068
0.6783161594260892 12.995992517004538 21029.22311625451 13.591323811129982 0.2507714018450402
0.7002042504928134 12.991068633932297 18174.085443449552 14.237044094693609 0.2543190405211502
0.7224376294717845 12.988008820149934 15730.896647995343 14.910576949062902 0.2579185573027927
0.7450243529601749 12.986643516101426 13634.938480065375 15.61295781209904 0.26156990715716144
0.7679451122049017 12.986746278244444 11837.50732371378 16.345441281563684 0.26527487010266493
0.7911885171630283 12.988140857311109 10289.539449429632 17.109648786489394 0.26903819273227353
0.814761167986784 12.99067319995852 8956.9112598782 17.90703524667733 0.2728623073764231
0.8386446261754782 12.994132314866588 7808.240242336409 18.73897055366461 0.2767483368263448
0.8628242281275792 12.9983953128887 6815.232693624028 19.606789883124875 0.2806966798422764
0.8872997272834551 13.003346992322085 5955.899387610034 20.51258328559956 0.2847137364972226
0.9120592287374383 13.008838470874982 5211.758658500551 21.458144713853205 0.28880251979139954
0.9370785139085943 13.014729021117754 4565.686477091931 22.444963981809664 0.2929629979225295
0.9623576806117796 13.020931736855186 4005.0286256931063 23.475054880995888 0.2971988783058277
0.9878814414866831 13.027327918539367 3516.920922067185 24.550845020524644 0.30151630561299014
1.0136223896702738 13.033788984767856 3092.11906310647 25.674283144240082 0.3059169602043377
1.0395865642647888 13.040234074259077 2721.739320142982 26.84731726073875 0.31040200508623306
1.0657362561504982 13.046563241548576 2398.5701429358032 28.07305012298605 0.31498022197786657
1.0920678177210141 13.052695850675189 2115.8738040954295 29.353543300843484 0.31965210277914224
1.1185649553390602 13.058533019294261 1868.804220049897 30.691538830169815 0.3244222399634525
1.1451941843114144 13.06398722381148 1652.1093704073176 32.09045065248119 0.32929878737407126
1.1719572842909634 13.069001498568648 1462.2497012437889 33.55220289352209 0.33427933351679984
1.1988120695192863 13.073462664544122 1295.5578289244368 35.08134547560729 0.3393774973877872
1.2257579851286262 13.07732715917073 1149.198294146376 36.67991100314115 0.3445900986942225
1.2527529829454693 13.080496066370934 1020.2681157128029 38.35294145309889 0.34993151199527955
1.279793898521807 13.082933782374974 906.7980292280192 40.10266893863122 0.3553982766491192
1.306837369462222 13.084522640134452 806.841075744187 41.93458359709195 0.3610050637799185
1.333874353756335 13.085239059446797 718.6764092146198 43.852141075264456 0.36675364761633833
1.3608811944748176 13.085037172939339 640.690897677664 45.86006275075934 0.372651967223661
1.3878117682388709 13.083776215732634 571.8790362994467 47.96366441347621 0.37870988588988397
1.4146681199746234 13.081486337372608 510.87971500614765 50.167680954279085 0.3849329471216862
1.4413911473369614 13.078035277562686 456.9289656440021 52.47737187854029 0.3913283312298172
1.4679859180742385 13.073440089794708 409.0603780402445 54.899132033503335 0.3979076223573804
1.4943940992170248 13.067577060134887 366.5797054037534 57.439149777677294 0.404679878996316
1.5206055994883798 13.060434189154135 328.8761028243329 60.10405144353438 0.4116548695180779
1.546588444567911 13.05195006804091 295.32265679146997 62.90094076325328 0.41884313061978706
1.572304358928563 13.042072048582972 265.49768170097786 65.83744206902281 0.4262560305416059
1.5977286535455082 13.030746021032495 238.94701657792893 68.92174765105676 0.43390583761378476
1.6228155571466087 13.017929540760882 215.26495083901503 72.1626697041099 0.44180579476025084
1.6475673213021642 13.003593274426601 194.10561748050782 75.56969734728226 0.4499702006613449
1.671917165874534 12.987658418281859 175.25410382722058 79.15278564633371 0.45841335573670855
1.6958538846127316 12.970116810433048 158.3859395471858 82.92208490207084 0.4671483637945609
1.719334338087863 12.950908301359963 143.2990998840595 86.89034845335398 0.4761968506560966
1.742320274754867 12.929971310758203 129.79362033028056 91.06918066857725 0.48557327116319593
1.7648002339364415 12.90732800807086 117.69185428313335 95.47260942839691 0.4952993079131782
1.786727523717427 12.882892811571722 106.8339314886389 100.11436109656638 0.5053927205369974
1.8080668713986037 12.856644778836463 97.09737791369399 105.01092688247164 0.5158790842245095
1.8287783103033195 12.828512457290001 88.34233856824297 110.17884356758394 0.5267809301510319
1.8488589585982793 12.798553050498331 80.47603628482744 115.6357074221639 0.5381215150160403
1.868244735400458 12.766649390028526 73.38789108779928 121.40178289808814 0.5499303883244914
1.8869164370418645 12.73280368416252 67.01776335330324 127.49845707847035 0.562237228861008
1.9048386388280956 12.696995207748008 61.26358882713427 133.94819597987905 0.5750714368817321
1.9219827187075058 12.659184708521698 56.08234237396899 140.77660486672352 0.5884690479201514
1.938297922812686 12.619300836703914 51.39901967520103 148.0113943789474 0.6024684628730425
1.9537962066762733 12.577464473892936 47.168417438059755 155.68110756915974 0.6171056142512499
1.9684139267932552 12.533542530491447 43.3435141027531 163.81933090245866 0.6324279117322619
1.9821312545191099 12.487548769160409 39.88472218764165 172.45978092024393 0.6484767470045164
1.9949216235511782 12.439481518082191 36.74934273215286 181.64183075058833 0.6653055922855142
2.0067611699907006 12.389326995049618 33.90759860472351 191.40742426367387 0.6829686921972263
2.017609616625317 12.337061603578915 31.332769842552153 201.80258120317376 0.7015252613303282
2.0274495080346555 12.282682146519551 28.995285018034505 212.87728523829222 0.721038119001218
2.0362618645124346 12.22622481352982 26.87303913546465 224.68690444747256 0.7415772417983281
2.0440099517514025 12.167637771921443 24.945836600133813 237.29268503496408 0.7632200725160295
2.0506720247022066 12.106940773464366 23.19071680014943 250.76142021955923 0.786049012677543
2.0562480976340187 12.044202936514317 21.59658145078389 265.1661528200649 0.8101520852925099
2.060698266663352 11.979360898665245 20.144570142622285 280.5887130475951 0.8356293302142382
2.0640064091387447 11.912471550200511 18.823352545966745 297.11867516002934 0.8625872707743671
2.066170555722211 11.843582061819074 17.620596737848533 314.856440731355 0.8911465408923259
2.067167571922673 11.772699362101001 16.525809732534015 333.91142215914374 0.9214331017823963
