M[M_sun], R[km], Lambda[1], P_c[MeV/fm^3], rho_c[fm^-3]
0.24162668629717493 15.618656898711224 2160425.4255784233 3.5677272577965504 0.1711233750220791
0.25364180320438334 15.27734784416085 1723212.7752120574 3.784799660385484 0.17388792444062467
0.2660380974834257 14.981283835317361 1383000.7646003882 4.0113595567274904 0.17666615444994557
0.27881187456215595 14.7235470320791 1116511.1577573568 4.247663658945389 0.17945676547014913
0.29196455191890514 14.49850431120454 905973.402530425 4.494336821358942 0.18226631774153793
0.3054985284602724 14.301297632519601 738687.4845491503 4.751532758779103 0.18509048051990262
0.31941329261238594 14.12823372767017 605198.5514345755 5.019936853508486 0.18793594067913222
0.3337101711337105 13.976052719951767 497736.65872187377 5.299768876103514 0.19079923751479794
0.34838926751389676 13.8421251555698 411067.3071578486 5.591762377656955 0.19368676769507237
0.363449935578943 13.724094647696775 340700.26050943445 5.896078393865857 0.1965934790099554
0.3789023166420119 13.62008216284951 283353.59451355896 6.213583545577298 0.19952710580798338
0.3947313437582719 13.528561569136247 236436.08625186753 6.544539609587481 0.202483904229684
0.41095484160379503 13.447957784605952 197905.53015867763 6.88964023440649 0.20546743787939048
0.42756160826473233 13.377130491731968 166114.29249634978 7.249594279235872 0.20848085027661578
0.44455421096684805 13.314999506220659 139832.3560517697 7.624667018548911 0.21151978933969853
0.461932634797296 13.260646391375907 118011.37696476349 8.015794802311529 0.2145902220642622
0.47969575146843124 13.213231474353757 99846.14900320448 8.423688223799912 0.21769388878168439
0.4978497475795145 13.172054892838835 84668.16564549449 8.848796751663071 0.22082838264374283
0.5163872901395803 13.136441469251157 71961.76824009289 9.291976405176872 0.22399686829171045
0.5353017599988594 13.105894709156269 61296.231574769416 9.754119768364681 0.2272023819032465
0.5546058438752347 13.079858309253341 52315.46283413834 10.23603609653905 0.23044627388062888
0.5742858931351179 13.057878705082034 44340.90879027111 10.738208503547417 0.23372539434696202
0.594339151337607 13.039574985576287 38341.339940105834 11.261857679762826 0.2370456313596346
0.6147743194868024 13.024525362284908 32913.2851172214 11.807932136863004 0.24040874485571204
0.6355720409302931 13.01245326887721 28304.11720311406 12.377410454847167 0.24381636702232842
0.6567408658281414 13.003051513194697 24379.986454525006 12.970998045621881 0.24726663546177785
0.6782706089697704 12.995990911157321 21035.875027659484 13.589988649129 0.25076396802073003
0.7001558569676061 12.991076579497365 18179.80449917282 14.235595072466477 0.25431117950484844
0.7223873682269533 12.98800552894991 15735.225786583094 14.909006448428597 0.25791025347393437
0.744970877236133 12.986644481719463 13639.929390222285 15.611273047829627 0.2615612957597645
0.7678877686431276 12.986757479032965 11840.40689750948 16.343619439996836 0.2652657886793878
0.791129439331955 12.988135621727952 10292.961085428902 17.10768072502412 0.2690286227158094
0.8147008538542168 12.990656939069154 8960.226731375527 17.904911216604635 0.2728522290056036
0.8385787816656113 12.994126741499194 7810.459714566328 18.736699975556057 0.27673790469476467
0.8627582646673603 12.998391004241466 6775.4460689985135 19.60434323617386 0.2806857032804267
0.8872289510782103 13.003325877640535 5958.484591235904 20.50994879528299 0.2847021917521712
0.9119868595067038 13.008826979031813 5213.753648431948 21.455309799404183 0.28879038150868314
0.9370025283254181 13.014718926677654 4567.520001417107 22.44194045186512 0.29295043990047676
0.9622780016260086 13.020914920500969 4006.633142360587 23.47180479555157 0.29718567874314383
0.9877996113132256 13.027314307621712 3518.245318690931 24.547353083277013 0.30150243380400576
1.0135397877356456 13.03375894828861 3093.7501825582276 25.670562871222938 0.30590260295428034
1.0394986115196092 13.040217093224477 2722.889406378273 26.843323174910132 0.3103869161491858
1.065649771125655 13.046551208400038 2399.459175243416 28.068763530146505 0.3149643640069997
1.0919747068355294 13.052676837711244 2116.833593296238 29.3489793924243 0.31963567551108724
1.1184700086322303 13.05851327358368 1869.5969214403706 30.686643122951487 0.3244049700390059
1.1450969293542688 13.0639669452218 1652.9840378158294 32.0852391238732 0.3292808810750891
1.1718574631461425 13.068981468524946 1462.9710033527904 33.546614419076604 0.33426049978172273
1.198709798532544 13.073442704157804 1296.190812264852 35.07535368201082 0.3393576841507426
1.225652789284171 13.077317572819036 1149.7103528334653 36.67353327670645 0.34456952513599504
1.2526446858262532 13.080484274000364 1020.7624177009883 38.34610442263913 0.3499098537816091
1.279684194640571 13.082924674532231 907.24620016571 40.09539042539085 0.3553757593607477
1.3067242299321484 13.084518396807912 807.2235189156698 41.92683351795991 0.36098163411657047
1.3337593968183372 13.085228941194968 718.9677078010816 43.843832549002265 0.3667289503794337
1.3607652159772197 13.085035866636593 641.0223470723638 45.8512131848279 0.37262623388805505
1.3876945027920677 13.083785921093432 572.153334943529 47.95423601313754 0.37868304961896626
1.4145485304971845 13.081500409655165 511.1449823779332 50.15757034673852 0.38490461608514553
1.441269724425787 13.078057543055035 457.13521822014894 52.466595112431364 0.39129874226778744
1.4678633072374572 13.073462723737542 409.268154953229 54.8876413962739 0.3978766916285048
1.4942692175143661 13.067605286210886 366.7698076196607 57.42689369227958 0.4046475161783567
1.5204803530310724 13.060470427583962 329.0446366784864 60.090974122454305 0.41162097727574626
1.546463376099234 13.051993113594557 295.4852685376321 62.88698182802138 0.41880760401983735
1.5721777210466625 13.04212395858726 265.63725450947106 65.82253613136226 0.426218756409532
1.5976004909843042 13.03080808667987 239.07426391019067 68.90582385135816 0.4338666938258007
1.6226814144628465 13.017972517992929 215.37469001365676 72.14565120239068 0.4417646494634745
1.6474397119800954 13.003673114976234 194.22898025159407 75.55150076119007 0.44992691141426006
1.6717884472429276 12.987749813653858 175.34536250860998 79.13341543130544 0.45836816524665724
1.6957269931228245 12.970215584712683 158.465348361727 82.90135209868302 0.46710071987275936
1.7191896451209794 12.950978491049291 143.38125851027166 86.86814635033018 0.4761465738163902
1.7421946065776144 12.93009563510269 129.86973239740783 91.04550002386942 0.485520590445253
1.7646761995554192 12.907460710945214 117.75729936377445 95.44722215289796 0.4952436025620304
1.786604579131529 12.883041638257378 106.89356335434131 100.08724508593662 0.5053342053624531
1.8079449954077949 12.856799824208355 97.15008727642916 104.98194154662575 0.515817533803085
1.8286581145942946 12.8286845860169 88.39195747035417 110.14778556642848 0.5267159145893281
1.848740241039619 12.79873454466994 80.51730028349876 115.60238267309263 0.5380526775839459
1.8681302566006341 12.766848647166157 73.43410799815366 121.36608078418395 0.5498577119039476
1.886804380242828 12.733018036710789 67.05547785781249 127.46017718551488 0.562160401421287
1.904731305174743 12.697221444710348 61.300335228417474 133.90725969321016 0.5749906159412436
1.921878041486484 12.659428805010785 56.112813456230235 140.73263647674517 0.5883833807761399
1.9381967671336442 12.619559012050008 51.4273906322142 147.96413062617316 0.6023775486930629
1.9536998057150217 12.57774856223574 47.1981179362677 155.63041494975522 0.6170095466630756
1.9683220377440627 12.533835843814606 43.368361896676895 163.76486392010207 0.6323261087894214
1.9820463069724639 12.487862621101238 39.90493736864163 172.4011152179994 0.6483684271996971
1.9948410853921485 12.439808425047207 36.77080654114863 181.57871533986452 0.665190626689736
2.00667932590457 12.389659158322097 33.9265680062486 191.33944935401874 0.6828464928869029
2.0175403489644004 12.337424653953489 31.348789859809642 201.7292947525446 0.7013951851095737
2.0273858816456154 12.283067242108897 29.010693122645897 212.79837281926876 0.7209000664453165
2.036203764308067 12.226626224666001 26.88696091142115 224.60163580107934 0.7414298529130788
2.04395816713951 12.16805881724172 24.958112368132504 237.20064482041684 0.7630631354952684
2.050628086405397 12.10738268812226 23.202497599997717 250.66177808023926 0.7858810923833675
2.0562053858219937 12.04464194853687 21.60643618930622 265.0582974836999 0.8099726077465356
2.0606718119515106 11.979844009888822 20.15595635068729 280.47206909212616 0.8354380069786264
2.063992447235221 11.91298817550439 18.833274545902363 296.9921260958062 0.8623822386151233
2.0661591574673035 11.844102685273162 17.629579136706045 314.718970576318 0.8909264782124101
2.0671638915604764 11.773241431207243 16.533170082081053 333.7621243985467 0.9211972978953542
