M[M_sun], R[km], Lambda[1], P_c[MeV/fm^3], rho_c[fm^-3]
0.24162668629717493 15.618656898711224 2160425.4255784233 3.5677272577965504 0.1711233750220791
0.25364135934354376 15.277374084198264 1723227.2286567392 3.784788228564295 0.17388778194848845
0.26603611022796764 14.981331825914102 1383022.279070752 4.011335524962352 0.17666586404024645
0.27880861059942424 14.723647462787994 1116521.2241077346 4.247626214414844 0.17945633117002252
0.29196246571697987 14.498499761181886 905982.649252882 4.494284981707924 0.18226574049499247
0.30549474201186394 14.301402930068948 738772.2073353592 4.751464764064831 0.18508974604721865
0.31940834109466265 14.128289713576741 605199.2083863437 5.0198522030955 0.18793506239842545
0.33370464580655335 13.976087484349982 497786.1622063234 5.299665341680651 0.19079819509495438
0.348383462099744 13.842169132117244 411097.0026374023 5.5916397009619825 0.19368558076430134
0.36344276922060315 13.72413425203599 340741.53259685374 5.8959338191595725 0.1965921211337187
0.3788944741960877 13.620145319273274 283376.621345471 6.213415323654205 0.19952557182659716
0.39472247056256843 13.528589282044084 236467.80253655664 6.544347915341389 0.20248222333011198
0.41094473768563244 13.448028531423075 197931.24908064972 6.889421367678257 0.205465573918489
0.4275487380314905 13.377199318509595 166136.15710397248 7.249346186638719 0.2084787978701402
0.4445421118514275 13.315034911189098 139855.48907739134 7.624390386002543 0.21151758716675528
0.4619190634197528 13.260682267115877 118026.04971560996 8.015484805333642 0.21458782398701645
0.479680569288584 13.213261397807509 99852.31804216855 8.423342445603932 0.21769128901303966
0.4978334608022627 13.17208953892534 84679.73813849216 8.848416467365025 0.220825629222942
0.5163679646825353 13.136500405685782 71968.41296357501 9.291555461453415 0.22399390482165452
0.5352828199901628 13.105921117520328 61305.51650868824 9.753655311739193 0.22719920198733717
0.5545849492472843 13.079900645960574 52324.421614308034 10.235525100173792 0.23044287084417658
0.5742629436316091 13.05790912908723 44753.051157428315 10.737653187809107 0.23372182904790678
0.5943160217316082 13.039585441136403 38348.79534710915 11.261249694753644 0.23704183265829495
0.6147495430525655 13.02456898899248 32919.53749663862 11.80726789171343 0.24040470513693407
0.635546453066174 13.01247887934931 28309.93442248963 12.376686134697188 0.2438120782689737
0.6567139108185619 13.003049603182449 24384.576128499295 12.970216976610415 0.24726217119160074
0.6782415327272073 12.996000715179996 21039.93618755166 13.5891397416837 0.2507592415315105
0.7001242910915093 12.99108208066407 18183.799715101857 14.23467377594118 0.25430618142623485
0.7223542862692091 12.988012884401648 15739.169230765843 14.908007919833599 0.25790497387685446
0.7449375369362631 12.986642059243984 13642.714054180155 15.610201874175958 0.2615558206305845
0.7678517520170581 12.986761984885325 11842.947619710465 16.342461117877924 0.26526001473414224
0.7910926623199148 12.988123014650684 10295.764046458846 17.10642944244344 0.2690225381523394
0.8146633064964048 12.990650078266562 8962.527928711772 17.90356077629491 0.272845821262895
0.8385393398754242 12.994105139007006 7812.225853009829 18.735256366706373 0.27673127205904363
0.8627142945415561 12.998376521141525 6819.456748385412 19.602787691904147 0.2806787245343189
0.8871831697244684 13.00332569797901 5959.63139575026 20.508273830631833 0.2846948517973624
0.9119406852047729 13.008817233948688 5214.966243319085 21.453507416935036 0.28878266422889676
0.9369544936359495 13.014701487753563 4568.53084205234 22.440018158731093 0.29294245578918576
0.9622284495847064 13.020898251368164 4007.6357744535826 23.469738473283442 0.29717728679444877
0.9877486725925706 13.027292257437974 3519.30806229994 24.54513300836678 0.30149361450030643
1.0134857433601605 13.03375132289442 3094.266587576976 25.668197636057076 0.3058934750562567
1.0394438244380657 13.040205407016877 2723.6460506740736 26.84078387030954 0.3103773231136562
1.065592603238639 13.04654437920155 2400.116739490703 28.066038272845176 0.31495428209520937
1.0919157833668884 13.052664905611827 2117.439278876617 29.346077839648668 0.31962523170265744
1.1184095172424184 13.058502830554849 1870.1529822206148 30.683530641132357 0.3243939905577052
1.1450354258182895 13.063962364082085 1653.3976978890603 32.081925869718326 0.32926949706015535
1.1717933158074776 13.06897681945051 1463.3772809561526 33.54306153790755 0.3342485262058656
1.1986444535868668 13.073431141375638 1296.5423822673527 35.07154440972098 0.33934508791997614
1.225586365772773 13.077302477824414 1150.0248154747294 36.66947866535846 0.34455644558742676
1.2525762789056867 13.080477414689646 1021.0802786097468 38.34175783375604 0.3498960847408945
1.2796142824190446 13.08291615988909 907.5272406940574 40.09076318732447 0.3553614442320307
1.3066536653287397 13.084518200487745 807.4288477587844 41.921906508551125 0.36096673902068904
1.3336868048740582 13.08523427244061 719.2146365798591 43.83855054332288 0.36671324952690243
1.3606923929578443 13.085039597487926 641.2206132341385 45.845587247923056 0.3726098744277615
1.3876182340208463 13.083790374761781 572.3252458675885 47.948242121496335 0.3786659890684851
1.414471748694879 13.081508404298347 511.29919507303106 50.15114279431039 0.38488660537491104
1.4411999668481104 13.0780882465696 457.3023352770901 52.45974410026121 0.39127993195522065
1.4677843294079567 13.073480261625278 409.40186255381707 54.88033659745696 0.39785702842382903
1.4941905757913174 13.06762493834305 366.8806461823199 57.41910232381579 0.40462694267294574
1.5204010945498072 13.060493467560432 329.15433509124074 60.08266072538976 0.4115994316039542
1.5463822660750108 13.052022854910756 295.58203475980594 62.87810802565563 0.41878501948731794
1.5720977650982693 13.042156273339504 265.73018411591477 65.8130603630806 0.4261950610844558
1.5975203539613456 13.030847278482852 239.16321447530575 68.8957010793488 0.43384181008895106
1.622607206811567 13.018046785984845 215.4511338962848 72.13483258817128 0.44173849351272687
1.6473585713979622 13.003721366121262 194.29354628927257 75.53993330848616 0.44989939271840657
1.671708202285596 12.987807681822476 175.41389149484766 79.12110197062835 0.45833943808377275
1.695645964075515 12.970280179643542 158.520964107283 82.88817253312995 0.46707043326950354
1.7191116186586577 12.951054983784347 143.42522572797074 86.8540328579453 0.4761146137001088
1.7421150439485398 12.93017344137288 129.91462528820924 91.03044672915479 0.4854871024054315
1.7646006023624865 12.90755340385041 117.79508301725343 95.43108409334785 0.49520819205592387
1.786526937004987 12.883131925175018 106.93021021014292 100.07000821126714 0.505297008934717
1.8078674175621434 12.85690046490963 97.18125650941282 104.96351650435162 0.5157784081871956
1.8285824079362205 12.82879143973083 88.42184750851985 110.12799696784103 0.5266744147629518
1.8486667396817613 12.798853311296202 80.54891984624544 115.58119948841848 0.5380089204341642
1.868057101769444 12.766973490614026 73.4596045431056 121.34338655342667 0.5498115147666335
1.886733264975083 12.733154686799633 67.07571202822443 127.43584454006697 0.5621115659960266
1.9046631388868431 12.69736478556405 61.32106815085788 133.88123866735225 0.5749392423567433
1.92181136477913 12.659582308849359 56.13225774627249 140.70468830447135 0.5883289271083977
1.9381396176042376 12.619753140430538 51.44627945441479 147.93408800445275 0.6023197602154701
1.9536341181038694 12.577909981606595 47.21234085297658 155.59819303164997 0.6169484829028067
1.9682629287302598 12.534021851518805 43.381229750868755 163.73016628149531 0.6322611397501421
1.9819905293007716 12.48805896298957 39.92160648827663 172.3638259128843 0.6482995765749303
1.994789791125095 12.440015206235154 36.78179687027616 181.53859800252624 0.665117552403516
2.0066304214790733 12.389879099720163 33.9395693314695 191.29624357201098 0.6827688213344121
2.0174954808125776 12.337656676314907 31.35944209407458 201.6827132671996 0.7013125075679709
2.027344519742427 12.283312360987038 29.021103783126733 212.7482158151022 0.7208123197673253
2.03616791171124 12.226881774288733 26.89723721607597 224.54743923914504 0.7413361728655382
2.0439257315140296 12.168330323531254 24.96687202383873 237.1421447647322 0.7629633875264193
2.0505997998757888 12.10766284969082 23.20992379372854 250.59842512078487 0.7857742936139607
2.056182038694382 12.044935027477559 21.613830859389477 264.9897467480121 0.8098585353396374
2.0606512113930617 11.980148679060719 20.160853365797422 280.3978571351344 0.8353161585839235
2.063979953170035 11.913306647348989 18.83978485653978 296.9116955274944 0.8622519266828191
2.066151604633254 11.844434780864733 17.63491802138055 314.63159982147045 0.8907866148184042
2.0671624358858804 11.77358534834461 16.53854735564237 333.6672374477096 0.9210474315360233
