M[M_sun], R[km], Lambda[1], P_c[MeV/fm^3], rho_c[fm^-3]
0.24162668629717493 15.618656898711224 2160425.4255784233 3.5677272577965504 0.1711233750220791
0.2536406558703072 15.277374268190561 1723267.360932283 3.7847748922758586 0.17388761571808672
0.2660344476616226 14.981388622303593 1383140.1655221249 4.011307489791207 0.1766655252517484
0.27880720298550576 14.723664621611785 1094105.6249921997 4.247582532267142 0.17945582452293676
0.2919587153791584 14.498572667238683 906059.2659429238 4.494224506723617 0.1822650670920067
0.3054904780887298 14.301430740657324 738823.1567963104 4.751385443294447 0.1850888892315125
0.31940430783157503 14.12832677099053 605263.2657396157 5.0197534526571985 0.1879340378245139
0.3336987412883625 13.976176290015989 497838.779989104 5.299544562287992 0.19079697904687956
0.34837501495793305 13.842255156313497 411143.33390528744 5.591496591485714 0.19368419614075036
0.36343510013981895 13.72417877593276 340752.25716150214 5.895765165095645 0.1965905370990593
0.37888414496324857 13.62020576323576 283416.50051787135 6.213219084679733 0.19952378236343707
0.3947123396650139 13.528647433926036 236511.89329581894 6.544124295627534 0.20248026248731693
0.41093286010626295 13.448083384538716 197956.9748141181 6.889166051125503 0.20546339953558632
0.4275370874846336 13.377247978685816 166164.6473022627 7.249056778154646 0.20847640366792053
0.44452714915389596 13.315088748810334 139876.88963416778 7.624067685873128 0.21151501826622965
0.46190324085480017 13.260752106220975 118045.07974500056 8.0151231860504 0.21458502656950396
0.4796628303180261 13.213309708875839 99867.5816912617 8.42293908824094 0.21768825632955321
0.4978147873587081 13.172125299015462 84694.38823173018 8.84797285948397 0.22082241731234412
0.516347505254245 13.13653083972209 71984.3352756505 9.291064425621503 0.22399044789878533
0.5352605813518603 13.10595623891896 61314.2998975317 9.75311351972284 0.227195492592406
0.5545625089575918 13.079935880558118 52338.10038222752 10.234929021551585 0.23043890119308372
0.5742337261385788 13.05797473305009 44760.522112892904 10.737005412700958 0.23371767013105685
0.594288312923219 13.03960719776081 38354.004279558416 11.260540483763577 0.23703740149519492
0.6147213473850259 13.024572096846926 32925.3505827258 11.806493056603138 0.24039999284667965
0.6355160265487434 13.012505900202688 28316.40082797475 12.37584122599627 0.24380707550186081
0.6566838648377754 13.003067959719457 24390.516423979683 12.969305874178142 0.247256963703713
0.6782072864865345 12.996024244586431 21045.130407452485 13.588149510807147 0.2507537281912886
0.7000896022397942 12.99108376228975 18187.61999289082 14.23359910903216 0.25430035130580425
0.7223166465441607 12.988017190424006 15742.95865509325 14.906843168359183 0.2578988153967528
0.7448974302161809 12.986644238133893 13645.942957393276 15.608952388578896 0.26154943408902886
0.767810528904625 12.986760717948934 11846.400463099033 16.34110998195547 0.26525327966044543
0.7910483859268899 12.988128913798745 10298.225907866603 17.10496987756682 0.26901544078259454
0.8146161564576307 12.990646801843308 8964.66449431925 17.901985554522376 0.2728383469482181
0.8384924579057157 12.994102240224327 7814.4844079202085 18.73357247380576 0.2767235354424349
0.8626652057720169 12.998368423277542 6821.179410980488 19.600973239398282 0.28067058423024044
0.8871329832015783 13.003307985847817 5961.410633666504 20.50632008884323 0.2846862901979123
0.9118857935564577 13.008804641281563 5216.202157724511 21.451405058535038 0.28877366253904363
0.9368971512611131 13.014693512084945 4569.795004392626 22.437775939775918 0.29293314288817185
0.9621700638964163 13.020885263276279 3986.339197338047 23.46732826417479 0.29716749821911564
0.9876882298957571 13.027275443456388 3520.2800529345254 24.542543468834886 0.3014833274890584
1.0134275042264347 13.033743101969378 3095.475627765182 25.6654387877195 0.3058828281291978
1.0393788677062847 13.040191978123973 2724.5090548538205 26.837821996694302 0.31036613368848104
1.0655255020174703 13.046526873695951 2401.039417991531 28.06285951501625 0.3149425224877703
1.091845876511691 13.05265458997605 2118.00269493922 29.3426934609497 0.3196130500173603
1.1183386971258995 13.058487706280925 1870.759200725351 30.679900249505238 0.324381184115997
1.1449642155186457 13.063955796601261 1653.8780542368438 32.07806131089404 0.3292562188166789
1.171718966741537 13.068955530505969 1463.865481219362 33.53891749741662 0.3342345603621427
1.19856777848081 13.073424864616872 1296.985780986548 35.06710133681644 0.3393303958824006
1.2255074554592194 13.077296382975916 1150.4101528079427 36.664749449752684 0.34454118986994936
1.252496779994892 13.080464436327738 1021.4020586935891 38.33668808409198 0.3498800248853584
1.2795325669698885 13.082915664558675 907.8271403886939 40.08536611535898 0.3553447474944147
1.306571520488152 13.084511666092043 807.8069609573427 41.91615981358029 0.36094936589117177
1.333601756411677 13.08523348549539 719.4625210276903 43.832389821388524 0.36669493667522274
1.3606051845186924 13.085038969540456 641.457622229102 45.83902540342492 0.37259079347532015
1.3875315096025442 13.083796663356404 572.5402829993392 47.94125113815276 0.37864609047315073
1.4143824666592821 13.081516715198603 511.486098858904 50.14364604644779 0.3848655986612413
1.4411095742305626 13.078101782671366 457.4625949026882 52.451753484398346 0.39125799271788625
1.4676918382994582 13.073499363676497 409.5561765215263 54.87181674694257 0.397834094518506
1.4940984239071518 13.067649075466486 367.04477390441065 57.410015007986274 0.404602947152485
1.5203076838300507 13.060521468701559 329.28671245545985 60.072964593219965 0.411574302324099
1.5462890033461187 13.052056628777738 295.7001961171071 62.8677583238375 0.41875867867335304
1.572003123474791 13.042194374385943 265.8327861168331 65.80200862568309 0.4261674248546002
1.5974250664932481 13.030891502759593 239.2434453209725 68.88389478586656 0.43381278792981226
1.6225118816765995 13.01809489514574 215.5215156811018 72.12221478637552 0.441707987701574
1.6472642510808568 13.003780242254582 194.36774138607984 75.52644219804867 0.4498672976863924
1.6716131413640518 12.98787227937219 175.4763239021538 79.10674085102139 0.45830593375603157
1.6955520535338062 12.970352183289897 158.59649945793683 82.87280135840294 0.467035110354749
1.7190244323150166 12.951160086848953 143.48516861733302 86.8375725408775 0.4760773391805804
1.742022944254427 12.930264263732658 129.97364591720915 91.01289041677498 0.48544804607263276
1.7645088800952096 12.907649417734548 117.8483924711988 95.41226274769882 0.4951668938209676
1.786435292301806 12.883240604092203 106.97189662166214 100.04990544679241 0.5052536280411143
1.8077770738701524 12.857015493181223 97.22217041981636 104.9420281286918 0.5157327775764405
1.828503734537537 12.828942381460795 88.46192469225618 110.10491846863883 0.5266260154937624
1.8485796101086003 12.798988902426913 80.58055170570114 115.55649468113855 0.5379578888272974
1.8679721857190619 12.767120830901565 73.48671664103078 121.31691963967114 0.5497576378292691
1.8866505288052569 12.733312793927608 67.10588449561178 127.4074670027506 0.5620546125050611
1.904581204179951 12.697534361844241 61.34589897680229 133.8508922404474 0.5748793290875511
1.9217336850183524 12.6597636524305 56.153943602439014 140.67209458428115 0.5882654221467019
1.938065935287717 12.619944165983913 51.46707868632558 147.89905191402946 0.6022523665523867
1.9535586130153617 12.578094879553888 47.23084956021889 155.560615634293 0.6168772699732646
1.968194260599912 12.534234147987227 43.40019116853916 163.68970195334091 0.6321853729651147
1.98192610617594 12.488289004314396 39.936789282396695 172.3203394577353 0.6482192835902083
1.994725608846151 12.440257337486363 36.7956201794705 181.4918138233774 0.665032334372497
2.006572601595462 12.390136153976107 33.95237684897825 191.24585803713762 0.6826782426540867
2.0174423413979685 12.337926250888819 31.372358169900327 201.628391446757 0.701216091695091
2.0272961805628356 12.283593659825675 29.03329242748171 212.68972472729496 0.7207099931086172
2.0361237500635707 12.227180549373509 26.906667751890804 224.4842378544073 0.7412269277674075
2.0438877086145895 12.168643942267341 24.975065338217465 237.0739253465213 0.7628470671516273
2.050568232661958 12.107996401157259 23.2191092210503 250.52454711861873 0.785649752001611
2.056155376216619 12.045275662260455 21.622002711828483 264.90980806871636 0.8097255127329498
2.060629990865022 11.980508717281795 20.16874025092676 280.31125027323174 0.8351738499747267
2.063965060990408 11.913679623818899 18.84598623547053 296.8179049927762 0.8620999692110832
2.0661421901792814 11.844822553265473 17.64128109956227 314.52971719205 0.8906235207674729
2.0671596423975718 11.773992954847115 16.544533374351666 333.5565911756827 0.9208726745877186
