M[M_sun], R[km], Lambda[1], P_c[MeV/fm^3], rho_c[fm^-3]
0.24162668629717493 15.618656898711224 2160425.4255784233 3.5677272577965504 0.1711233750220791
0.2536422690083211 15.277365835499054 1723207.8251467661 3.7848071959288254 0.17388801836753717
0.26603777772247267 14.981337926641412 1382982.375702693 4.0113753978650095 0.1766663458807437
0.2788120751690904 14.723603182670907 1116487.5955000734 4.247688341526585 0.17945705175089516
0.29196618075922703 14.498485858988612 905907.778117109 4.494370992989882 0.18226669825057926
0.30550058907125816 14.301294988826909 738671.5625958282 4.751577579647323 0.1850909646708213
0.3194159965536722 14.128190275688084 605181.515292833 5.0199926536867805 0.18793651962751892
0.33371344182565943 13.976002078580022 497730.7692068176 5.299837124540408 0.19079992466331283
0.3483930745219328 13.842088935171963 411042.3836565528 5.591843244660121 0.19368755010557376
0.36345526183828564 13.724032094027285 340693.15123149194 5.896173696083005 0.19659437410854697
0.3789072073584597 13.620059213482271 283337.65268785326 6.21369443616184 0.19952811699659345
0.39473755760464135 13.528520839514504 236424.05280569868 6.544665973315268 0.20248501226886764
0.41096203414344534 13.447923018543758 197896.73525866083 6.889784510529716 0.205468666595399
0.42756983162952916 13.37709010506731 166108.43320779086 7.249757821453227 0.20848220321946767
0.4445624546218999 13.314972678594781 139817.6218485191 7.624849374762742 0.2115212410124153
0.4619425473020532 13.260607999733766 117995.32331901517 8.015999152991787 0.21459180288198443
0.4797040124893612 13.21321668985554 99829.60414489699 8.423916162234597 0.21769560256006112
0.4978605219375339 13.172034154883143 84660.75018451021 8.84904743733908 0.2208301977151469
0.5163967910331697 13.136445174739036 71951.41223828366 9.292253894626702 0.22399882183473668
0.535313832689812 13.105885200906162 61288.55198599657 9.754425942787508 0.22720447813541272
0.554619538365353 13.079836427009626 52311.16286875901 10.236372951432394 0.23044851720281104
0.5742994591717334 13.05786783768789 44740.49434420021 10.738574575243446 0.23372774464064536
0.5943546655297623 13.039543866591666 38336.89029285618 11.262258472952185 0.2370481355227346
0.614789793431304 13.02452143693739 32909.157985198035 11.808370018914971 0.24041140790917806
0.6355896537037817 13.012443338393211 28069.246089524797 12.37788794081132 0.24381919425215307
0.6567602028887994 13.003029606087413 24375.97912597337 12.971512942828554 0.24726957840306765
0.678290633605121 12.9959814603742 21033.753503663833 13.59054826852035 0.25076708383157004
0.7001763879928767 12.99106282831403 18040.818227839303 14.23620241420844 0.25431447436343996
0.7224077557198287 12.988009765769668 15734.083053807204 14.909664705435842 0.25791373392686356
0.7449937436440981 12.986655138606332 13637.697468609435 15.611979196152282 0.2615649051215832
0.7679123921504801 12.986751994003841 11838.979444536038 16.344383041344777 0.26526959504058945
0.7911542764807986 12.988139222838972 10291.762312339533 17.10850561120248 0.2690326338579649
0.8147269029800156 12.990655525099593 8958.973711045477 17.90580147343958 0.27285645321062896
0.8386080651487589 12.994113977247848 7809.9061996463915 18.73765165462706 0.27674227716768396
0.8627842897078863 12.998397069944245 6816.503267434341 19.605368710190298 0.28069030393560584
0.8872601742968295 13.003325925671943 5956.8514498966615 20.51105299909154 0.2847070305444698
0.9120167066728462 13.00883609185648 5212.915662349377 21.456498005747108 0.28879546906415443
0.9370346925286233 13.01472409498011 4566.693872138188 22.443207711479786 0.2929557033754479
0.9623114329123801 13.020923923745714 4005.8913847708736 23.47316700963746 0.29719121109929986
0.9878340073831848 13.027319697698282 3517.6926654177223 24.548816662650854 0.30150824791006425
1.0135735932420153 13.033770514789616 3093.131009347685 25.672122151065004 0.3059086205154912
1.0395350571065918 13.040233117660286 2722.4439124337414 26.844997215162984 0.31039324037181737
1.0656846967891067 13.046551145801981 2399.1670724332034 28.070560165666947 0.3149710105430268
1.0920129999854646 13.052680707574575 2116.463541965774 29.350892256258813 0.31964256064638713
1.1185100098238736 13.058518129443655 1860.1263173655525 30.688695049464332 0.32441220834274154
1.1451382301672548 13.063977590963882 1652.7009198565304 32.087423416734694 0.329288386090217
1.1718990363689594 13.068992149349462 1455.836123095509 33.54895669591608 0.3342683934961706
1.1987513821635558 13.073449921569548 1295.8775546260383 35.077864995930774 0.3393659883850571
1.2256964781377955 13.07731897157932 1149.5004479645688 36.6762063409524 0.344578148027471
1.2526903498836177 13.080482627565512 1020.5647207445392 38.348969987283304 0.34991893126220763
1.279729435896413 13.082933862489247 907.0291834788178 40.09844102143896 0.35538519688578224
1.3067727664425868 13.084522817909903 807.0692706677728 41.93008175328113 0.36099145402405197
1.3338078489036114 13.085234483572467 718.8595680537445 43.84731483548218 0.36673930153575796
1.360815462815736 13.085036002629256 640.8808185151884 45.85492222695668 0.3726370192787302
1.3877444582959653 13.083783008078647 572.0336068813784 47.958187650619834 0.3786942972548572
1.414598356821239 13.08149671149814 511.03270387998674 50.16180790270736 0.38491649018395857
1.4413211157796322 13.07804898319495 457.07336528396564 52.471111860926015 0.39131114356687435
1.467913751451498 13.073454260734875 409.19415305163244 54.892457333377855 0.39788965526506126
1.494322215983252 13.067594718160523 366.69667543429796 57.432030433609555 0.4046610800055635
1.5205324924549977 13.060456318991537 328.9711123491978 60.09645504814374 0.4116351820857781
1.5465151815288631 13.05197559693217 295.41383126135446 62.89283224216946 0.41882249378897274
1.5722312506387708 13.042100481469594 265.5758055410545 65.82878343755745 0.42623437856773017
1.597654536439003 13.030781153574498 239.02414148903773 68.91249774608531 0.43388309955340165
1.6227345380879072 13.017944542312595 215.32599809134214 72.15278388834793 0.4417818940179814
1.6474933675880763 13.00363824452014 194.18038648214005 75.55912718279677 0.4499450544905291
1.6718420984375295 12.987712523505552 175.3058413864243 79.14153372164805 0.4583871051251473
1.6957801051771753 12.970174145407883 158.43529133851376 82.91004144759366 0.4671206879712485
1.7192445217800296 12.950936256139112 143.34631407277976 86.87745147865594 0.4761676453538378
1.7422475842301044 12.930042182384774 129.8364303994967 91.0554248051613 0.4855426694304467
1.7647283323316574 12.90740504599369 117.73195366088875 95.45786217465763 0.4952669491455725
1.786653592132679 12.882982642060654 106.86501041400639 100.09860961206991 0.5053587295168127
1.8079959159315502 12.85673555764485 97.12783235093522 104.99408949561405 0.5158433299982248
1.8287081944645642 12.828613504603126 88.37114476653882 110.1608311948605 0.5267432710710982
1.848789742791932 12.798659471278729 80.50154817622817 115.61634923317538 0.5380815276775875
1.8681778185569378 12.766766017954577 73.41527769811533 121.38104367450708 0.5498881708653579
1.8868511774667303 12.732928847850419 67.03680327649094 127.47622039441146 0.5621926000135314
1.9047764051019662 12.697126588075877 61.28419034809367 133.9244161669542 0.5750244881474521
1.9219222164316208 12.659326780476862 56.09876837939528 140.75106366359785 0.588419283943634
1.9382384944701196 12.619451814562002 51.41663431679324 147.9839388499961 0.6024156507971069
1.9537502179775101 12.57766075893338 47.18310555751648 155.65166015888943 0.6170498084610603
1.9683600687746359 12.533713740936282 43.35813793914821 163.78771318039398 0.6323688495646834
1.9820797992738064 12.487731347770307 39.89628713413574 172.42570180201758 0.6484138236388451
1.9948762889478995 12.439670538467691 36.762045392121095 181.60516670863726 0.6652388082247246
2.006710768687023 12.389511094030087 33.92019963511414 191.36793723518676 0.6828977058925394
2.017569507719607 12.337271892585864 31.341651070253747 201.76000857892282 0.7014496991217258
2.027411664212708 12.282905262423403 29.00427643466076 212.8314443564172 0.7209579231209504
2.0362279184596743 12.2264572916421 26.88136585825157 224.6373710672478 0.7414916221713871
2.043979612085997 12.16788264260576 24.952893476181472 237.23921786834197 0.7631289060853612
2.0506467354208984 12.1071974015119 23.19838800337571 250.70355123380182 0.7859515124779162
2.0562202979960333 12.044449111489097 21.602353047330038 265.10349817417557 0.8100478243215918
2.060681580185508 11.979640335976738 20.15054746574638 280.5209528154758 0.8355181876625067
2.0640014711526793 11.912778076094366 18.82964717344972 297.04516071172065 0.8624681641957063
2.066164142121 11.843884087950881 17.626011998068602 314.77658182684155 0.8910187024932374
2.0671661699966104 11.773012940647869 16.530654078074278 333.82469215560553 0.9212961186697515
