M[M_sun], R[km], Lambda[1], P_c[MeV/fm^3], rho_c[fm^-3]
0.24162668629717493 15.618656898711224 2160425.4255784233 3.5677272577965504 0.1711233750220791
0.2536439595614733 15.277294511511146 1723253.4488398824 3.7848190626832823 0.17388816628090675
0.26603979345636186 14.981253540336558 1382987.839211843 4.011400344118312 0.1766666473414926
0.2788147437926695 14.7235162229737 1116446.680081569 4.247727211215398 0.17945750258071003
0.29196872551421615 14.498412686699954 905873.7976682587 4.494424806049251 0.18226729747148468
0.30550412521734455 14.301242298477973 738660.2597503336 4.7516481632381415 0.18509172710831295
0.3194205112236527 14.128156051058005 605120.0207980378 5.020080527706996 0.18793743135439492
0.33371971343819223 13.97592297730805 497688.3902112947 5.299944602419559 0.19080100678721781
0.3483996195498939 13.842038280420718 411012.50310962886 5.591970594703802 0.19368878225227917
0.36346223115728366 13.723994036538132 340657.84771782387 5.896323779320664 0.19659578372207603
0.37891544404987526 13.62000880506829 283294.8197566476 6.213869068747284 0.19952970943550138
0.39474758620214134 13.528464698068472 236399.307789088 6.544864973895318 0.20248675723511805
0.4109721242485861 13.447913399284914 197875.23129576258 6.890011720703905 0.20547060161258746
0.4275794261293905 13.37707715250565 166088.40637794638 7.250015373248486 0.208484333879465
0.4445747260162037 13.314935619031814 139803.40080870467 7.6251365562961455 0.21152352716207828
0.46195590759884697 13.260578514669701 117981.15374238053 8.016320973263833 0.2145942924219692
0.4797203014531849 13.213160595120367 99816.19371256353 8.424275130644586 0.21769830150067562
0.4978767799550363 13.171997112115458 84646.23080974938 8.849442230285206 0.2208330561847589
0.5164147224715371 13.136412889261559 71941.25911290893 9.292690900911555 0.22400189838622622
0.5353336335628124 13.105847450269678 61278.89747865277 9.754908125296692 0.22720777941210468
0.5546403767519554 13.079836633794011 52302.01973853181 10.236903453083084 0.23045205013685527
0.5743222492283665 13.057843262950682 44730.873875083045 10.739151090992687 0.23373144605033772
0.5943782000367795 13.039529027599142 38329.20203187178 11.262889672500853 0.23705207926893704
0.614815100405016 13.024504287380015 32624.8562433178 11.809059630917801 0.2404156019007475
0.6356201014420675 13.012428861810063 28293.43341311954 12.378639926537085 0.2438236468154349
0.6567890323356641 13.003037226100274 24372.26036228993 12.972323849051019 0.24727421321050752
0.6783209388399233 12.99597374334543 21029.261231015276 13.591429609909358 0.2507719909042986
0.7002079009516408 12.991066014817989 18173.31823060802 14.23715891615115 0.2543196634331612
0.7224423999945128 12.987994750964722 15730.619842712304 14.910701396925273 0.257919215305552
0.7450284757497114 12.98664951217517 13634.759883677056 15.61309131464794 0.26157058953363566
0.7679494906122484 12.986756897707064 11836.894268123075 16.345585646704148 0.2652755897266821
0.7911931897691044 12.988143858317782 10289.400698634392 17.109804738762733 0.2690389510753689
0.8147660112497896 12.990668616051815 8956.772557134736 17.907203558661173 0.2728631060047515
0.838649151021974 12.994121712381414 7807.853592500934 18.739150478828627 0.27674916348937767
0.8628300750661188 12.998394724353595 6815.191658981656 19.60698376093196 0.2806975496497245
0.8873090002015237 13.0033505702174 5955.645164497762 20.51279204918129 0.284714651331607
0.912064747130737 13.008847666655242 5211.515339823515 21.458369360239914 0.28880348166217273
0.9370845570409552 13.014730180620752 4565.606753073084 22.44520357520789 0.29296399305710197
0.9623619565318522 13.020936397885889 4004.609450774921 23.47531242812489 0.29719992428124326
0.9878871894300737 13.027332755889178 3516.7356043573086 24.55112173363525 0.3015174048628167
1.0136296686256931 13.033784774503674 3092.0331132703286 25.67457795221582 0.30591809792509284
1.0395926923619128 13.040240376561973 2721.655686556961 26.8476337676522 0.31040320079235884
1.0657432934013475 13.04656645471502 2398.454269433675 28.0733898103924 0.31498147862929005
1.0920741981602762 13.052696026769251 2115.899275216912 29.35390496483472 0.3196534045474479
1.1185723936119867 13.058536376015901 1868.743908527671 30.691926788621092 0.32442360851202845
1.1452027197330623 13.063987469758928 1652.238795230176 32.090863639182565 0.3293002063556996
1.1719649769912412 13.06900130315849 1462.1699263398073 33.55264575272091 0.33428082599796055
1.1988206614582217 13.073460354261567 1295.5114187181562 35.0818202974867 0.3393790674950179
1.2257668821883179 13.07733134246259 1149.1664294547597 36.6804164098134 0.3445917290579119
1.2527620943219717 13.080488634640433 1020.2708054331188 38.35348113624462 0.34993321586384746
1.2798024047791694 13.082934982628819 906.7822091926948 40.10324573234234 0.3554000610561671
1.3068460283618653 13.084523625014612 806.7999496182302 41.935197762340614 0.3610069204945108
1.3338824013925084 13.085237078760686 718.6515805980488 43.85279949778121 0.36675560478856917
1.3608903418425515 13.085035040464557 640.6808970129977 45.86076405094236 0.3726540065093288
1.3878213429919293 13.083778041007422 571.8359984009064 47.96441158674749 0.3787120125862068
1.4146784049095642 13.081486430037952 510.86461328895996 50.168482193524746 0.38493519228235096
1.4414010506470003 13.078034740919868 456.91655328573995 52.478225911828495 0.391330676085248
1.4679951153982478 13.073437240281589 409.04352003293866 54.900042642348424 0.397910073552622
1.4944039077765814 13.067576488154673 366.55356619992983 57.44012104989833 0.4046824436901035
1.5206160694231838 13.060431073751984 328.8679131973037 60.105087800679776 0.4116575554250231
1.5465988363771108 13.051945084986802 295.31325527701154 62.90204699076149 0.41884594605674447
1.5723146631654916 13.04206842639219 265.4882249483482 65.8386233494232 0.4262589844786652
1.5977387638953402 13.030741835290902 238.94425219632572 68.92300960055466 0.4339089397303981
1.622825826485516 13.017923430605787 215.25669344243528 72.16401841293812 0.4418090555070497
1.647577147649355 13.00358632589378 194.11407741275886 75.57113942424982 0.44997363132827595
1.6719262980948397 12.987652954914727 175.24644223077567 79.15432073820155 0.45841693708847364
1.6958643882880877 12.970108938371654 158.3789001371884 82.92372798577077 0.46715213959611784
1.719344400340817 12.950899483856572 143.2898711453459 86.89210798686865 0.4762008351338004
1.7423303587764567 12.929961172990401 129.79362490581505 91.07105738430558 0.48557744616489723
1.764810083193425 12.907316179684418 117.68850426754653 95.47462140502417 0.495303722639151
1.7867371791737263 12.882882603970737 106.82809840346646 100.1165100859658 0.50539735796289
1.8080760007524388 12.856631983616644 97.09155415690196 105.01322402801087 0.515883962217877
1.8287867525335746 12.828501223276291 88.33761567239024 110.18130102396739 0.5267860680386273
1.8488666644797571 12.79853904239149 80.46919936520614 115.63834849807186 0.5381269705675009
1.868253342145458 12.766634589069206 73.38582803236885 121.40461239870788 0.5499361481508569
1.8869242812191462 12.732788707929222 67.01450323477393 127.50149088935032 0.5622433176952369
1.9048472716124751 12.696977820986335 61.259780042745184 133.95144033197033 0.5750778422401227
1.9219911512194254 12.659165038634654 56.07983403078908 140.7800895407323 0.5884758373902751
1.9383065238406507 12.61929360776977 51.39670900423695 148.01514024221012 0.6024756682273966
1.953804226383361 12.577441302675457 47.16640286608153 155.68512520353076 0.6171132280705538
1.9684216585231205 12.533519334195246 43.343213000054895 163.8236446540069 0.6324359698560037
1.9821382716932767 12.487524557440052 39.883084926976004 172.46443050675052 0.6484853319576256
1.9949275264314643 12.4394560926677 36.74803098514579 181.6468330267888 0.6653147040009739
2.006767477291977 12.38929893931708 33.90578098639134 191.41281171270367 0.6829783772789599
2.0176164552486635 12.337032135880548 31.33069007311404 201.8083896576563 0.7015355707640779
2.0274543797767275 12.2826522785771 28.99376045244464 212.8835396218239 0.7210490606710187
2.0362672835487725 12.226192262861844 26.872302863804702 224.6936626479482 0.7415889235087402
2.044014761451593 12.167604496909819 24.94491320003491 237.29997997577456 0.763232511060236
2.0506749453135478 12.106905326373928 23.18958468535074 250.76930460307256 0.7860622790919093
2.0562515891103854 12.044165952764038 21.595748509550674 265.1747013449595 0.8101663105345933
2.060700059230972 11.97932363537613 20.143552029011804 280.59795820624197 0.8356444944262109
2.0640080294748353 11.912432008525746 18.822661664339567 297.12870546056433 0.8626035216584743
2.0661724627915263 11.843539880820316 17.62016899247115 314.86733671446456 0.8911639832182093
2.0671682402164446 11.772656465415597 16.52463634940743 333.92325568707145 0.9214517918945025
