M[M_sun], R[km], Lambda[1], P_c[MeV/fm^3], rho_c[fm^-3]
0.24162668629717493 15.618656898711224 2160425.4255784233 3.5677272577965504 0.1711233750220791
0.25364531484843333 15.277263963030402 1723248.9683658483 3.7848454496825914 0.17388849518212363
0.2660424239038262 14.981208527369327 1382940.391918774 4.011455815181685 0.17666731767655666
0.2788189458479849 14.723481550399523 1116373.7361618986 4.247813643349259 0.17945850506321234
0.29197523964211225 14.49834042764644 905822.7437184362 4.494544467643908 0.1822686299311132
0.3055122078005537 14.301143135952888 738581.7879397515 4.751805117756993 0.18509342251666877
0.31943045113016455 14.128022770855411 605011.1826180366 5.0202759316764025 0.18793945874599652
0.33373064029997973 13.975868982799525 497621.2683070983 5.3001836007525425 0.190803413103861
0.3484137850606206 13.841878774157792 410931.69455183414 5.592253784488925 0.19369152219135305
0.3634794224581692 13.72385016337238 340649.63099938084 5.896657523351731 0.1965989183166436
0.37893314910496756 13.619938202754511 283245.1762157273 6.2142574063200104 0.19953325060657576
0.39476825643734 13.528355863853948 236364.19005355303 6.545307502183005 0.20249063761037464
0.41099569696629984 13.447771152604508 197818.13388078974 6.890516983388277 0.20547490464163282
0.42760592955532933 13.376960337130335 166038.98526534403 7.250588112266999 0.2084890720025847
0.4446039321965106 13.314829105891889 139770.16117177883 7.625775188996077 0.21152861108900922
0.46198541792671943 13.260477272992961 117944.55454430355 8.017036639837746 0.21459982868151
0.4797544459032003 13.21308146645601 99779.07091011656 8.425073412482977 0.21770430346412276
0.4979149606926164 13.171906882381077 84619.59769944238 8.850320184277955 0.22083941294678727
0.516456191612498 13.13632893014345 71918.43294809927 9.293662736285018 0.22400874016784228
0.5353771147556722 13.10578336738301 61257.53252232448 9.755980432220571 0.2272151209929107
0.5546869613854954 13.079765427471166 52287.89900780472 10.238079474327499 0.2304598587487119
0.5743716640947799 13.057810497163594 44715.31625030404 10.74043319637283 0.23373967756402478
0.5944314795508213 13.039506924418056 38314.72801727598 11.264293396850498 0.23706084976407585
0.6148716016563786 13.024468918377492 32612.860838431105 11.81059326788924 0.24042492897235063
0.6356784580308109 13.0124169488384 28281.127622338965 12.380312287250195 0.24383354898731133
0.6568525347547348 13.002993215411642 24360.500056559704 12.974127253686977 0.24728452073188578
0.678387210734641 12.995966381537043 21019.108551755762 13.593389669633204 0.2507829039917095
0.7002791138480363 12.991045588618352 18164.956370274176 14.239286141932984 0.254331203736847
0.7225167333762268 12.987996357069354 15722.535872361968 14.913006975145246 0.25793140576669527
0.7451076957647389 12.986645688877935 13627.776799252017 15.615564653042188 0.26158323159887686
0.768031310161226 12.986755453454785 11831.037711428895 16.348260242804805 0.265288921917432
0.7912789841185053 12.988151427795867 10285.22334414405 17.11269401770795 0.26905300066048754
0.8148570696433487 12.990683904549641 8951.994476907112 17.910321835738117 0.27287790200651413
0.8387440515495399 12.994146855898743 7803.851139841116 18.742483922522084 0.276764478938379
0.8629276870350084 12.998420506156707 6810.74245824039 19.610575718729322 0.280713664499032
0.8874129378249433 13.003374461284379 5952.351927360791 20.51665981157342 0.2847316004661154
0.9121717530235988 13.008864412540747 5208.532745492301 21.46253140183388 0.288821302319005
0.9371954412464873 13.014770550318287 4562.780399823567 22.449642557294208 0.29298243006151536
0.9624824076200533 13.020971717674106 4002.3900354815523 23.48008406306069 0.29721930330850843
0.9880043813833127 13.027360775807724 3514.9888369941855 24.55624848433828 0.301537771009577
1.0137525106758172 13.033815936236564 3090.4979906483927 25.680039972187746 0.30593917691209016
1.0397206936974028 13.040268812793412 2719.925139606631 26.853497839062083 0.3104253541982047
1.0658747224896865 13.046599690692778 2396.8219131752526 28.079683386797964 0.315004761305071
1.0922101952204768 13.05273314378176 2114.566426699118 29.360605738748067 0.31967752321923976
1.1187113494143914 13.058564314342549 1867.326352972699 30.6991147702922 0.3244489645831429
1.1453456804752595 13.06401524278229 1651.090686298734 32.09851536635441 0.32932649693659727
1.1721115672113167 13.069033973813244 1461.1732162489286 33.56085099051747 0.33430847849533035
1.198972190426846 13.073484783549189 1294.6235019354594 35.0906177786006 0.33940815838005906
1.2259206634176796 13.07734590770529 1148.3657611951658 36.6897806020511 0.344621936492525
1.2529199749153237 13.080505272640403 1019.6122172420645 38.36345004675429 0.3499646070073574
1.279964232757178 13.082948856040407 906.149706829858 40.113932683318616 0.3554331229122081
1.3070178787106175 13.084552263063754 806.2521792922023 41.94657718816148 0.3610413222227427
1.3340508651696998 13.085241994939917 718.1081472137071 43.86499899811297 0.3667918680126721
1.3610614554873903 13.085027713320518 640.2110439645726 45.87375806082391 0.3726917913249615
1.3880016532476398 13.083780528590138 571.3941828077152 47.97825561491494 0.3787514171593209
1.4148461319708983 13.08145258205832 510.48318180000064 50.18332806589889 0.3849767920527922
1.4415798208837285 13.0780101373528 456.5757605852034 52.494050058080084 0.3913741232620596
1.4681751784425443 13.073403729886197 408.7460921804481 54.91691513991497 0.3979554912816186
1.4945859908119818 13.067530256604662 366.2865361778731 57.458117653068555 0.4047299646377294
1.520798960346319 13.060377172498946 328.6229184001613 60.12429044890529 0.41170732256028597
1.5467839175753118 13.051880000166411 295.0934400262441 62.92254436769534 0.4188981135106548
1.5725015633014525 13.04198964451655 265.2891750633874 65.86051149833199 0.42631371848949084
1.5979147848281885 13.030645365655847 238.74995191293937 68.94639260244233 0.4339664196840302
1.623023547992872 13.017830812110894 215.0786118384448 72.1890091344956 0.4418694750828797
1.6477656055083596 13.003468037506652 193.94882726740113 75.59786034363184 0.450037199762245
1.672113773275822 12.987525329073959 175.11816852637844 79.18276530618417 0.4584832979401501
1.6960507204138335 12.969960784666865 158.2452838578076 82.95417376804745 0.46722210391511715
1.719529669077553 12.950738609225805 143.17632413806618 86.92471173533204 0.4762746665827205
1.7425112025903036 12.92978925448321 129.68745806747418 91.10583266908213 0.4856548083732029
1.764992245071906 12.907124287536732 117.58863012556313 95.51190328506318 0.49538552740859587
1.7869042178684076 12.882642897407305 106.74990818669352 100.15633102539952 0.5054832898226054
1.8082540854976816 12.85640200839842 97.0180456528211 105.05579055063372 0.5159743523178896
1.8289576604157287 12.828247533781846 88.27208223126604 110.22683839912563 0.5268812745767878
1.8490391102821693 12.798267118642395 80.41159052178207 115.68728873007252 0.5382280641988386
1.868411092979886 12.766313128594359 73.33324059051021 121.45704454187617 0.5500428807801105
1.8870855363295689 12.732479662524728 66.9585058402345 127.55754843776839 0.5623555728505151
1.905007656872337 12.696642844381842 61.21259859954032 134.01156062126745 0.5751965383583794
1.9221449207313452 12.658807532580573 56.035114392954696 140.8446636151812 0.588601652243581
1.9384541940778581 12.61890195336676 51.35574905124373 148.08455487029605 0.602609190718113
1.9539456072162065 12.577039177540764 47.13060118646867 155.75957650641067 0.6172543207421918
1.9685546230723439 12.533089382060341 43.30944564017467 163.9035838807558 0.6325852969959119
1.9822666952069108 12.487071340126167 39.85201861742397 172.5505938427232 0.6486444231365949
1.9950485105073692 12.438969198219942 36.720382445889896 181.7395328679103 0.6654835580469327
2.0068797247641093 12.388790916951686 33.87905344373847 191.5126501481213 0.6831578580316922
2.0177202330894732 12.336496600188374 31.306919044189193 201.91603086885328 0.7017266232960226
2.027549596949487 12.28209580492215 28.971508273107005 212.99944556972162 0.7212518311924332
2.036353725668287 12.225602096050649 26.852047089217137 224.81890636232842 0.7418054102506764
2.0440883721852905 12.166987651204135 24.925630582129426 237.4351717139712 0.7634630253927859
2.0507403823667034 12.106257715450063 23.1721948077393 250.91542127818227 0.7863081378016675
2.0563040186130257 12.043487457225899 21.579641427402244 265.3330102523319 0.8104295586127297
2.0607419404530383 11.978615412353726 20.129085492795713 280.76929640227473 0.8359255289463204
2.0640381768057576 11.911694830939249 18.80918997544563 297.31459625999395 0.8629046980616709
2.066186636548826 11.842768184109591 17.608594417034894 315.0692731378417 0.8914872437141985
2.067173033828588 11.77185930665986 16.513132309962916 334.14256986367747 0.921798181117759
