M[M_sun], R[km], Lambda[1], P_c[MeV/fm^3], rho_c[fm^-3]
0.24162668629717493 15.618656898711224 2160425.4255784233 3.5677272577965504 0.1711233750220791
0.25364472179615205 15.277297666421383 1723112.4351924523 3.7848429339842613 0.17388846382515757
0.26604223340286576 14.981234428244553 1383029.2145440714 4.011450526627088 0.17666725376749545
0.2788192391523858 14.72346255438099 1116439.2115801785 4.247805402962187 0.1794584094871403
0.2919745466921224 14.498332106097562 905811.4300347243 4.494533059132187 0.1822685028946874
0.3055117817507365 14.301134356789781 738537.9572697601 4.7517901536816725 0.18509326087609593
0.31942951413392207 14.128056995620296 605029.0766138041 5.020257301747517 0.1879392654532938
0.33373014438412224 13.975828663563787 497630.67271630256 5.3001608144166275 0.1908031836832677
0.3484124704267733 13.841930635104305 410944.1970566992 5.592226784791717 0.1936912609618552
0.36347759982777894 13.723861572706843 340615.7143502176 5.8966257036148555 0.19659861945894108
0.37893202037554136 13.619918797696647 283249.34574210725 6.2142203813903185 0.19953291298379788
0.39476605813128696 13.52837534063462 236361.15297168348 6.545265310439732 0.2024902676457844
0.41099345615912863 13.44778147363646 197822.3587695291 6.890468810201488 0.20547449437855902
0.427603496218014 13.376972025576258 166041.91813000018 7.250533505478949 0.2084886202546217
0.44460150252109754 13.314833310113945 139765.2693873344 7.625714299477051 0.21152812636928595
0.46198252865924067 13.260516438417588 117949.33317247005 8.016968405370344 0.21459930083273945
0.47975114206209774 13.213093433014063 99795.38216061221 8.424997300857884 0.21770373121110417
0.49791133904243395 13.171916123431316 84621.06905058074 8.850236476083463 0.2208388068636934
0.5164523681755696 13.136335400769639 71201.86638364005 9.293570076653161 0.22400808783825735
0.5353727270671176 13.105793784800746 61258.217064885175 9.755878192742468 0.22721442100732508
0.5546806051035366 13.079788755156015 52288.83240504563 10.237968082378067 0.23045912370258187
0.5743667148259294 13.05782442983128 44715.43668820795 10.740310952728885 0.2337388927219643
0.5944265141704971 13.039490815795727 38316.32615249185 11.264159556820635 0.23706001352914727
0.6148663356269057 13.024472474281284 32891.834008393664 11.810447040614573 0.24042403966654585
0.6356732532961463 13.012429412943359 28282.278411583346 12.380152832523828 0.2438326048440445
0.65684646887039 13.002994904691727 24362.08752697734 12.973955303763132 0.24728353793663246
0.6783812048975032 12.995976466984368 21020.129227929374 13.593202782360201 0.25078186345344355
0.7002717008722006 12.991046630974369 18165.786509351223 14.239083314997922 0.2543301033908253
0.7225090851880801 12.988004100663384 15724.236036214548 14.912787141824163 0.2579302434250599
0.7451012120362548 12.986636178672939 13628.76522084171 15.615328823319839 0.26158202619376825
0.7680235960448715 12.986758665182856 11831.39688275445 16.348005222460454 0.26528765070497673
0.7912719472305276 12.98814436554028 10285.79788431508 17.112418526515565 0.26905166104010814
0.8148480921366122 12.99067861985995 8952.386046713924 17.910024508580477 0.272876491210411
0.8387344094705581 12.994150146787367 7804.297360645113 18.742166078290715 0.27676301860859287
0.8629170152370649 12.998424669034296 6810.940332223852 19.610233223856174 0.2807121279405364
0.8874029771027088 13.003370157977866 5952.704129006058 20.516291017202207 0.28472998435199826
0.9121619185314714 13.008873888723569 5208.838019354751 21.46213454618032 0.2888196030980207
0.9371850919231153 13.014764720221137 4563.1592831904545 22.449219293722255 0.29298067206560724
0.962472319836859 13.020964446251702 4002.655182808486 23.47962907878807 0.2972174554821883
0.9879958198258745 13.027355683887382 3514.9221641241293 24.55575963721646 0.30153582905202864
1.0137406484692495 13.033813600687916 3090.69842072247 25.679519154754278 0.3059371669773106
1.039708351653259 13.040266676646459 2719.9884414379417 26.852938682802126 0.3104232418065416
1.0658623078657568 13.046599233069164 2397.0270491337383 28.079083273600077 0.3150025412254028
1.092197205662741 13.052732456361683 2114.7422304289507 29.359966795869603 0.31967522341719024
1.1186984112443015 13.05855788518665 1867.4329284621867 30.69842936762607 0.32444654678082513
1.1453315603388572 13.064011789458316 1651.1923278109919 32.09778574130755 0.3293239900168014
1.1720988334976103 13.069027721058603 1461.3035253413975 33.5600685826199 0.3343058417000459
1.198956987840084 13.073483030426944 1294.7275172494528 35.08977889401368 0.33940538441615226
1.2259060186505792 13.077351036037326 1148.4413398110407 36.68888767562369 0.3446190560500922
1.2529043208910873 13.080508496115213 1019.6068922032351 38.36249945387006 0.349961613681495
1.2799486858442868 13.08294230656166 902.3299674645799 40.11291361672711 0.3554299702606221
1.3070013313409763 13.084549634356442 806.3244604437471 41.945492085948906 0.36103804179436183
1.3340355867782454 13.085242278123529 718.1308725771217 43.86383569127337 0.36678841006312685
1.3610448803973447 13.085028151709958 640.2640291872455 45.872518987413265 0.37268818826779876
1.3879840055067147 13.08378505712475 571.3837125471416 47.97693548110109 0.3787476596323382
1.4148304886115313 13.08145601186104 510.55439544228625 50.18191239197914 0.3849728251784586
1.4415623377212878 13.078009808294928 456.6111198226107 52.49254109193518 0.39136998020638647
1.4681573460273754 13.073408525631045 408.7702019855143 54.91530619818389 0.3979511602998404
1.494568451606218 13.067535225657945 366.31482364942565 57.45640151093928 0.40472543307699693
1.5207814045664434 13.060381400361292 328.6552455616713 60.12245929162843 0.4117025767850775
1.546765708856693 13.051885641342018 295.11250116219054 62.92058973725839 0.41889313882079277
1.5724834548152884 13.041997577295179 265.2986820132361 65.85842423475603 0.4263084990299725
1.5978971104560267 13.030655242985071 238.76305294469896 68.94416277909555 0.43396093834578303
1.6230053760897627 13.017841110706536 215.0907884897691 72.18662598674653 0.441863713393454
1.6477479330339118 13.003480506038388 193.96783185072476 75.59531219007731 0.4500311377653257
1.6720970180669188 12.987535786192678 175.12974872381335 79.18005277168774 0.45847696962820333
1.6960324122291108 12.969975141045978 158.2620831415684 82.95127037927678 0.4672154319361782
1.7195124772713672 12.950753002121301 143.18928504208327 86.92160254169953 0.47626762578889525
1.742494621012425 12.929805085601977 129.69896500022764 91.10251637658523 0.48564743084308065
1.7649755088027688 12.90714192646111 117.60005876523454 95.50834793612297 0.4953777261791502
1.786886090265615 12.882663901751867 106.75463684893018 100.15253352394559 0.5054750949792178
1.8082374216129733 12.856423842829976 97.02478835421033 105.05173119866755 0.5159657322754807
1.828941837204793 12.828268217991422 88.26995216442482 110.22249571054688 0.5268721951701586
1.8490225370084077 12.79829179005658 80.41685185585435 115.6826214994496 0.5382184233109091
1.8683941978807328 12.766341727527104 73.33631293619344 121.45204427546085 0.5500327020700823
1.8870702041506284 12.732509367954478 66.96235477392187 127.55220607074307 0.5623448805258892
1.9049916061936136 12.696675781680849 61.21863940209302 134.00582710412857 0.575185218615306
1.9221297181895076 12.658841995754617 56.037644175605756 140.83850531610153 0.588589653535091
1.9326191459731905 12.624094459313342 52.60209911158637 149.2487348982687 1.609014340637243
