M[M_sun], R[km], Lambda[1], P_c[MeV/fm^3], rho_c[fm^-3]
0.24162668629717493 15.618656898711224 2160425.4255784233 3.5677272577965504 0.1711233750220791
0.2536445648360683 15.277298482936144 1723104.0740747233 3.784843229178313 0.173888467504609
0.2660422233554311 14.981211759875896 1382925.8881985422 4.0114511471900824 0.176667261266633
0.27881916574165044 14.72343978254064 1116327.0516210997 4.247806369895025 0.1794584207021041
0.291974652522604 14.498356937411762 905822.2829467878 4.4945343978144905 0.18226851780122555
0.3055117889100604 14.301140159668398 738597.5158842845 4.7517919095754655 0.18509327984310006
0.3194295231998278 14.128054768978414 605034.5768215306 5.020259487794 0.18793928813436983
0.3337299946947116 13.975828258421824 497617.7926069838 5.300163488177245 0.19080321060360056
0.3484126304337589 13.841929615204231 410940.7389513921 5.5922299529492046 0.19369129161465043
0.36347773623298846 13.723865509659854 340629.00702960923 5.896629437356725 0.19659865452703487
0.3789325658634601 13.619905802986715 283249.84076618165 6.21422472591016 0.1995329526005877
0.39476613922504855 13.52836782163481 236350.85229143864 6.545270261233794 0.20249031105756013
0.4109936811042538 13.447777233542073 197820.69155428623 6.890474462858165 0.20547454251895533
0.4276037454492774 13.37697318594684 166043.20996538806 7.2505399130540695 0.20848867326284853
0.44460171684456484 13.314842475055313 139771.11392887813 7.625721444267149 0.2115281832464092
0.46198252511213167 13.260488571376198 117948.36269354336 8.016976412015499 0.2145993627706128
0.47975169341751167 13.213092283189583 99792.54457321596 8.425006231806984 0.21770379835935616
0.4979117592040673 13.1719152018618 84620.75956142014 8.850246298412015 0.22083887798154886
0.5164526655424518 13.136335551791776 71920.54721190334 9.293580949340486 0.22400816438265395
0.5353720978472961 13.10582465151456 61258.30398120925 9.755890189525362 0.22721450314365105
0.5546837721948028 13.07976174273162 52288.93114019662 10.237981153108212 0.23045920995288685
0.574367321583651 13.057815210591336 44716.04138576367 10.740325296791715 0.2337389848152909
0.5944272790506046 13.039492615025562 38316.28369155969 11.264175261597321 0.2370601116528762
0.614868262223449 13.024462960156912 32891.18900623597 11.810464198903443 0.24042414401757015
0.6356742297746436 13.012422468002354 28281.370885465032 12.380171542913612 0.24383271562965078
0.6568471751813324 13.00299544576225 24361.765891871124 12.973975480331331 0.2472836532576225
0.6783824640743873 12.995972302995979 21019.908603277425 13.593224711666211 0.2507819855499442
0.7002729050121467 12.991048185130067 18165.752497393947 14.239107114651627 0.25433023250510817
0.7225102977616626 12.987991454831343 15724.252582017947 14.912812936993353 0.257930379813843
0.7451011829107146 12.986645465745058 13628.486841887003 15.61535649549351 0.2615821676355644
0.7680245345127746 12.986758726946292 11831.335866475054 16.348035146444335 0.2652877998685312
0.7912728198442779 12.988145541938975 10285.748069854184 17.112450852529218 0.269051818230566
0.8148488567086152 12.990679205526588 8952.004351193955 17.910059396804368 0.27287665675253875
0.8387361664348292 12.994145282552074 7804.439528959068 18.74220337396739 0.2767631899629299
0.8629182081274219 12.998430456101497 6811.061028322432 19.61027341201222 0.2807123082394472
0.8874043243711762 13.003369808897217 5952.66912728156 20.516334291311306 0.2847301739858541
0.9121630096729504 13.00886773963714 5208.791093377753 21.462181112966825 0.28881980248351535
0.9371858895886517 13.01475873460852 4562.9930231130575 22.44926895918258 0.2929808783476542
0.9624737489414504 13.020964782608187 4002.569955359384 23.479682466314678 0.29721767230479684
0.9879970542846754 13.027350428417035 3514.863638060096 24.555816998164723 0.3015360569198456
1.0137419151054365 13.03380918292688 3090.569004003413 25.679580267056604 0.3059374028214549
1.0397081265676662 13.040276632436322 2720.082453343679 26.85300429372774 0.31042348967280403
1.065863736554614 13.046601510953634 2396.961229126614 28.079153690352246 0.3150028017275886
1.0921996682268753 13.052734821161986 2114.7167834639363 29.360041768839658 0.3196754932738488
1.1187002579387957 13.058560804035954 1867.4347342582796 30.69850979211464 0.32444683048341993
1.1453331289826314 13.064015151327858 1651.064972232459 32.09787135478142 0.329324284176265
1.1720999668850058 13.069024213969511 1461.2853967611345 33.5601603895454 0.33430615109885053
1.1989584035865113 13.073488314513183 1294.693414780049 35.08987732781666 0.3394057099100532
1.2259080415464 13.07735184099184 1148.4121986208634 36.68899245060394 0.34461939403795966
1.2529064228931928 13.080504697058176 1019.6117043014204 38.362610995331416 0.3499619649148637
1.2799504319958697 13.082942208266967 906.1793240995304 40.11303319276526 0.3554303401889364
1.307004317467188 13.084551869517599 806.3140383318852 41.94561941048432 0.361038426715722
1.334036268257354 13.085243934271029 718.167014431861 43.863972192185166 0.36678881581442974
1.3610468836496954 13.085029954454686 640.2370253429106 45.87266437862599 0.37268861104569545
1.3879867683119622 13.083782860257545 571.4508558824251 47.97709038377849 0.37874810053536173
1.4148308825916671 13.081457643042429 510.534741370508 50.182078505128445 0.384973290645809
1.4415644336586888 13.07801091591857 456.60728331436536 52.49271815179592 0.39137046634642547
1.4681597058446225 13.073407105753965 408.7736657204723 54.91549498896239 0.3979516684906628
1.4945707242046935 13.067534059468793 366.3044138335155 57.45660288037321 0.40472596480324735
1.5207835220815908 13.060381359595409 328.6491643566995 60.122674156676695 0.4117031336467038
1.546767811958961 13.051886890430852 295.1048182193739 62.92081909035775 0.41889372254266505
1.5724846414374942 13.041996231490256 265.29005100409023 65.85866915070915 0.4263091114724629
1.5978988746557496 13.030653343842003 238.76430876778082 68.94442442266096 0.433961581516411
1.6230076190971188 13.017841492483926 215.08998267202642 72.1869056210102 0.44186438945971157
1.6477500178327649 13.003478211630734 193.9686660305808 75.5956111856951 0.45003184906881477
1.672098192232293 12.987536148788594 175.1293707899829 79.18037105534296 0.45847771218032957
1.6960350565989217 12.969973223907695 158.26009149855244 82.95161105725542 0.46721621481318093
1.7195145623120622 12.950751181729084 143.18800388739797 86.921967368249 0.4762684519415317
1.7424964581607503 12.92980363888067 129.69551746579438 91.10290550354219 0.4856482965073274
1.764977643872847 12.907138932002272 117.5949644338359 95.50876511326756 0.49537864155895656
1.786888590114199 12.882662230417068 106.75698812480326 100.1529791145624 0.5054760565444374
1.8082397070233618 12.856420737350623 97.02223095345448 105.05220751404478 0.5159667437321827
1.8289437902888557 12.828265739685731 88.27423684750596 110.22300527177975 0.5268732605271492
1.8490238336865883 12.798289966328602 80.41440173760016 115.68316914141164 0.538219554550226
1.8683964047061974 12.766338365110087 73.33622390342191 121.45263099477778 0.5500338964156029
1.8870719365515989 12.732504962826269 66.96277001041548 127.55283293105094 0.5623461351371645
1.9049934496006893 12.696672507083901 61.215522884778004 134.0064998606825 0.5751865468456325
1.9221313341398703 12.658838529018894 56.037838465387026 140.83922791511324 0.5885910614327563
1.9384416634104753 12.618932144519993 51.35954485836599 148.07871166771255 0.6025979510272262
1.9539337343346896 12.57707266046416 47.1333630980558 155.75330929007384 0.6172424437398762
1.9685455908076765 12.533128899438797 43.31375555204742 163.89685465858668 0.6325727267529763
1.9822558689297216 12.48710875985117 39.85442637903518 172.54334063113745 0.6486310308744515
1.9950384199242228 12.439010267374943 36.72251654010435 181.73172936552598 0.665469343859138
2.0068709402888834 12.388833895935681 33.88265357858318 191.50424566159913 0.6831427491854746
2.017712544969782 12.336540424566833 31.309013036442636 201.9069694763535 0.7017105402181681
2.0275424447710813 12.282142979494537 28.973810044626507 212.98968837675102 0.7212347615670854
2.0363445277039705 12.225652673188232 26.853129365064877 224.80836302053333 0.7417871858333822
2.0440817916152803 12.167040464117786 24.927113731765424 237.42379084171162 0.7634436199601187
2.0507343100465194 12.10631183294197 23.17378578749864 250.90312061976658 0.7862874404787576
2.0563017826157517 12.043542983187976 21.580513038215976 265.3196985534853 0.8104074475623698
2.0607401034827952 11.978673630001264 20.13111688258846 280.75487227559404 0.8359018700213781
2.0640363268169333 11.911760219494136 18.810741937199982 297.29894689143686 0.8628793432805372
2.0661850001238142 11.842832773882693 17.60937887757726 315.052272809478 0.8914600295321954
2.067171391595483 11.771926880758702 16.514160996338962 334.12410640631145 0.9217690195617
