M[M_sun], R[km], Lambda[1], P_c[MeV/fm^3], rho_c[fm^-3]
0.24162668629717493 15.618656898711224 2160425.4255784233 3.5677272577965504 0.1711233750220791
0.25364460328460914 15.277281525823847 1723197.728245276 3.78484234308828 0.1738884564599242
0.26604238127199087 14.981222971580646 1353384.2445278 4.011449284433711 0.1766672387563216
0.2788184858989722 14.723446471708746 1116290.8051238179 4.247803467433618 0.1794583870379257
0.291974302589186 14.49832763541184 905763.9614403298 4.494530379465799 0.18226847305598026
0.30551161961440676 14.301153449437635 738623.0217405321 4.75178663887551 0.18509322290948127
0.3194293796421072 14.12805212667563 605036.9516097528 5.020252925897141 0.18793922005215727
0.33372849710846303 13.975874856860303 497639.86054843164 5.300155462300529 0.19080312979633937
0.34841215140791315 13.841933473327739 410943.8176868197 5.592220443033141 0.19369119960359643
0.3634776617858072 13.723867188920545 340615.8154169148 5.89661822971688 0.19659854926250966
0.3789312627378731 13.619921140220207 283256.9906169383 6.214211684888429 0.19953283368217192
0.3947659360946048 13.528364334837583 236357.7865454804 6.545255400349363 0.20249018074767972
0.4109929678397874 13.447783694097446 197829.97146592854 6.890457495182208 0.20547439801510667
0.42760283687430917 13.37697698442775 166041.9848844271 7.250520679328497 0.20848851414716607
0.44460081568377596 13.314841369194617 139774.77922915795 7.625699997632842 0.21152801251741
0.461981480248607 13.26049138764348 117944.3058319658 8.01695237833899 0.21459917685069463
0.47975016765729456 13.213098815986829 99789.36702726858 8.424979423634895 0.21770359679937917
0.49790895539333246 13.17193358281164 84617.64417487086 8.85021681457448 0.22083866450596765
0.5164513674933537 13.136343748717852 71923.17071622252 9.293548312627632 0.2240079346181608
0.535371949965227 13.105792020885783 61257.85033292983 9.755854178600949 0.22721425659380082
0.5546813695540631 13.079776406163042 52291.09381772518 10.237941918503308 0.23045895105406475
0.5743655329546143 13.05780445221968 44717.04809657235 10.740282240009138 0.23373870837740943
0.5944254099195625 13.039490912854093 38316.19626549988 11.264128120344479 0.23705981711347535
0.6148653160712382 13.024471634809313 32891.33125776159 11.810412694627079 0.24042383078563687
0.6356721182733772 13.012407614109895 28282.7886963257 12.380115379679365 0.24383238308297334
0.6568449857420586 13.003008660275103 24362.472667027578 12.973914916053975 0.24728330709704868
0.6783805039976916 12.99596780804788 21020.881531830564 13.593158886178063 0.2507816190512619
0.700270273014669 12.991059202203457 18166.131525697085 14.239035674922555 0.25432984494109134
0.7225075426304397 12.987990637984403 15723.044203880434 14.912735507306808 0.25792997041390286
0.745098320187731 12.986652903042742 13628.68303011195 15.61527343158515 0.26158174306796333
0.768021728036416 12.9867636824335 11831.866525487496 16.34794532325752 0.26528735212247334
0.7912704643753289 12.988149439080003 10286.10498887709 17.112353819149398 0.2690513463900982
0.8148464912098061 12.990669822446794 8894.173527275365 17.909954672417303 0.2728761598428103
0.838732403424783 12.99413802944359 7804.238534613297 18.742091423109827 0.27676267560666434
0.8629151734725812 12.998416505573475 6811.023461457209 19.610152778777703 0.28071176703420336
0.8874008535006714 13.003378050385233 5952.8574668088695 20.516204394949444 0.28472960475985565
0.9121595670404727 13.008860734240118 5208.9911367780605 21.46204133295274 0.28881920398597355
0.9371823813440038 13.014764160185054 4563.155011104362 22.449119877858024 0.292980259148706
0.9624701985859766 13.020962362903479 4002.677904346322 23.479522212440493 0.2972170214661977
0.9879928177865801 13.027360746428027 3514.814803210789 24.555644817247682 0.30153537292680027
1.01373829676223 13.033807722954439 3090.7320052308596 25.679396825677813 0.3059366948858453
1.0397053564246141 13.040271957956579 2720.1286603969643 26.852807348807925 0.31042274565036077
1.0658593833761774 13.046600392150902 2397.052748236117 28.078942319759264 0.3150020197758542
1.0922050822097014 13.052714351953346 2113.137286217673 29.359816721824707 0.31967468324277454
1.1186947582534876 13.058557366357158 1867.4369717048994 30.69826838125359 0.32444597889096455
1.145329911198457 13.064008271037245 1651.219504747035 32.09761436812056 0.3293234011954105
1.1720957451458835 13.06902485898075 1461.3403875020583 33.55988481197856 0.3343052223740371
1.1989542270455227 13.073480443100705 1294.7704921663353 35.08958185833063 0.3394047328725649
1.225901977195242 13.077344753799123 1148.4484878107398 36.68867794678479 0.3446183794973232
1.2529007396698366 13.080505986379663 1019.6340029928693 38.3622761805457 0.349960910615201
1.2799451390029422 13.082945239742267 906.207165037775 40.11267426057293 0.3554292297726448
1.3069988688907406 13.084547138721458 806.338851303114 41.94523721960959 0.361037271294806
1.334032050367785 13.085237593848715 718.1332310952332 43.863562456567934 0.3667875978682757
1.361041259167887 13.08503244728426 640.2526933540946 45.87222795697842 0.37268734199082776
1.3879810225038953 13.08378562435755 571.4525543235377 47.97662541155536 0.3787467770743184
1.4148258664795401 13.081458759296932 510.573427617555 50.18157988242771 0.3849718934500522
1.4415583676850747 13.078012469823252 456.60763770547356 52.492186670345866 0.3913690070974925
1.46815372904546 13.073407204931268 408.78089497437463 54.914928294815475 0.39795014305193704
1.4945651045504524 13.067534735060173 366.319919767054 57.45599842887933 0.40472436871828
1.5207773055722604 13.060381431051136 328.66392482032313 60.12202919540594 0.4117014621129433
1.5467615636585548 13.05188721250238 295.11390729975267 62.92013064031894 0.4188919703825821
1.572478912604597 13.041999973765263 265.3046893695592 65.8579339856742 0.42630727310179256
1.597892338854251 13.030657202610666 238.7682607001435 68.94363904638293 0.43395965090920063
1.6230021240850683 13.017844335748118 215.09888179676926 72.18606624209389 0.44186236010981994
1.6477436999711583 13.003482691308903 193.96902488310113 75.59471368985376 0.45002971394747737
1.6720919263035097 12.987538639923937 175.1317897041601 79.17941566264929 0.4584754832601056
1.6960283287712858 12.9699787171652 158.26378462202192 82.95058844359988 0.4672138648499788
1.719508307923188 12.950756666539299 143.19185430154806 86.92087226792401 0.47626597207809523
1.7424901833227413 12.929809807778195 129.6985263733653 91.101737460779 0.48564569804212043
1.7649711634261005 12.907146202041394 117.6017241219987 95.5075128723925 0.4953758938628649
1.78688195629114 12.88266913969108 106.75795827910363 100.15164158510585 0.5054731702138973
1.8082334113002099 12.856429330658878 97.02501021587229 105.05077775823788 0.5159637076427298
1.8289455743721814 12.828292225676739 88.27865435668527 110.22147572208047 0.5268700626456001
1.849018848267863 12.798297468567972 80.41868380651897 115.68152528504518 0.5382161589102241
1.8683897873754214 12.766348553777918 73.33839376312108 121.45086984018202 0.5500303113502371
1.88706661678984 12.732516139190313 66.96521887832557 127.55095128551692 0.562342369172605
1.9049875197342918 12.696683584738386 61.21785609772363 134.00448044874662 0.5751825598994492
1.9221263394784387 12.65885060983591 56.03969245737999 140.83705889148945 0.5885868353498992
1.9384357937620165 12.618946485167777 51.359398569563574 148.076380038971 0.6025934660233361
1.9539289966821454 12.577085759706383 47.13497164595895 155.75080846779903 0.6172377044313296
1.9685410238482213 12.533142264568093 43.31394639758063 163.89416948304262 0.6325677108227445
1.9822508207909346 12.487125373104394 39.85377668518194 172.54044636950448 0.6486256869367982
1.9950344902665078 12.439026633779642 36.72356065500585 181.728615522921 0.6654636719516571
2.0068674979756533 12.38885069312388 33.88375527942425 191.5008920102635 0.6831367202862475
2.0177073725779557 12.336560239142466 31.309050768201057 201.90335370227209 0.7017041225758404
2.0275391203557147 12.282162575787655 28.974172818799993 212.98579496013144 0.7212279502676452
2.036341626144801 12.225674742307646 26.85375428501371 224.80415591058846 0.7417799137436853
2.0440791755420133 12.167060918019823 24.927747131407294 237.4192495360654 0.7634358766168203
2.0507323585422528 12.106334187073442 23.174632763431052 250.89821229678017 0.7862791816407051
2.056297591420685 12.04356675254671 21.58136621937079 265.3143868009638 0.8103986246143108
2.0607365370289603 11.978701767879656 20.131150617158557 280.7491166380954 0.8358924294362674
2.064034452655533 11.911783160380011 18.810689199995693 297.29270235415163 0.862869226011232
2.066184392658054 11.842858125340015 17.609805455402068 315.04548920879625 0.8914491703217355
2.067172131857731 11.771953408809683 16.51451746453338 334.11673898474646 0.9217573833078435
