M[M_sun], R[km], Lambda[1], P_c[MeV/fm^3], rho_c[fm^-3]
0.24162668629717493 15.618656898711224 2160425.4255784233 3.5677272577965504 0.1711233750220791
0.25364136931415104 15.277380331286361 1723285.5432207976 3.784788724620846 0.17388778813159406
0.26603638614380687 14.981344848328444 1383085.9949666837 4.011336567761213 0.1766658766418553
0.2788094425913688 14.723624061409069 1116537.3203907125 4.2476278392241875 0.17945635001536236
0.29196215409663007 14.498533923724667 906022.7287324185 4.49428723115225 0.1822657655430771
0.3054950770213653 14.301352213200037 725582.4516798304 4.751467714509563 0.18508977791765274
0.3194093256002239 14.12825798365292 605202.747475767 5.01985587626195 0.18793510050894507
0.3337055912425053 13.976096729215906 497782.1854173088 5.299669834257004 0.19079824032774373
0.3483837225475368 13.842167185998616 411097.0559715858 5.591645024152315 0.19368563226763216
0.36344289799077234 13.724130271675147 340726.5811716243 5.895940092537285 0.19659218005460977
0.37889472161618565 13.620130493701202 283379.3770744536 6.213422623117146 0.19952563838891005
0.3947233923124047 13.528594601754989 236478.06855140894 6.544356233298137 0.20248229626735567
0.4109451803149744 13.448026514047335 197930.38174038974 6.889430864680458 0.20546565479894502
0.42754920633641985 13.377197173718683 166130.92072737645 7.2493569517820236 0.2084788869274119
0.4445425732748099 13.315040490117894 139856.61702039206 7.624402389521511 0.21151768272248453
0.4619198654053391 13.26067855944945 118024.45368709737 8.01549825656364 0.21458792804315535
0.4796808934259265 13.21328285177948 98779.96854268892 8.42335744940773 0.2176914018206693
0.49783415659662317 13.172086707869793 84676.52514039338 8.848432968411668 0.22082574869757005
0.5163710190433777 13.13646654158501 71971.08818977099 9.291573726735345 0.22399403341037802
0.535283813053483 13.105924117601937 61305.064636354495 9.75367546506614 0.22719933996768124
0.5545857729647735 13.079887055205695 52323.57514508541 10.235547272877154 0.23044301850573137
0.5742638040624743 13.057906853694933 44751.69332163295 10.737677283543809 0.2337219837499875
0.5943185605982754 13.039579344551512 38347.98504395142 11.261276075818207 0.23704199748766375
0.6147504536233591 13.024543185815267 32919.02696085876 11.807296713911128 0.24040488042398486
0.6355471987901259 13.012486395523236 28309.144270240842 12.376717563549663 0.24381226436154133
0.6567152440978139 13.003048445952306 24384.74286994058 12.970250867794253 0.24726236489970982
0.6782427242234482 12.995999727462475 21039.78435190919 13.589176576366473 0.2507594466171556
0.7001257720263524 12.991083394764859 18182.46702566043 14.234713751568126 0.254306398295962
0.7223559778381666 12.988008964264552 15739.644038669898 14.908051246533837 0.2579052029614507
0.744939177423932 12.986654103827075 13546.099325920919 15.610248352919173 0.2615560581990893
0.7678542937371424 12.98675432769083 11761.274693819369 16.34251137794937 0.26526026526799273
0.7910943165721129 12.988125077455146 10226.917216834323 17.106483736014308 0.26902280216358915
0.8146639025878017 12.990641112085335 8962.345680299492 17.90361937225212 0.27284609929652215
0.8385413327250121 12.99411599884861 7812.298375406226 18.735319005182767 0.27673155985043263
0.8627169301249186 12.998385965266271 6819.326532953855 19.602855187164064 0.28067902734298317
0.8871871712660593 13.00332003340604 5959.774064212584 20.508346507430662 0.2846951702783636
0.9119413683451798 13.008812570146912 5214.958858998866 21.453585622262555 0.288782999081462
0.9369565750809911 13.014701983327559 4568.469510144168 22.440101566860868 0.29294280221907143
0.9622306343414005 13.020898995350182 4007.5526665793936 23.469828130666272 0.29717765091972026
0.9877497734481059 13.027294749223591 3519.282014807696 24.54522933688 0.30149399716776015
1.0134879861965171 13.033756262407376 3094.225093751395 25.66830026289071 0.3058938711129725
1.0394460278373523 13.040203467175258 2723.6225366916447 26.84089404976402 0.31037773935179525
1.0655940919959783 13.046543486127494 2400.0077334268444 28.066156520500673 0.31495471954470505
1.0919179568643405 13.052668339369156 2117.387635511298 29.346203736497493 0.31962568485401216
1.1184121941674987 13.05850137951473 1870.1010346999044 30.68366568983089 0.32439446695074015
1.1450377719861387 13.063965158250461 1653.4090005617259 32.08206962959001 0.3292699910049147
1.171796015670551 13.068972364397407 1463.3219090261184 33.54321569474231 0.334249045730293
1.198646266450874 13.073441237107197 1296.4624774743543 35.07170969085621 0.33934563445988253
1.2255874481899145 13.077303981003134 1149.9743302224751 36.669654591274664 0.3445570130971997
1.2525788107194107 13.080475369177547 1021.0424309451516 38.341946427942716 0.34989668216593395
1.2796177155160429 13.082916347960197 907.5255285503806 40.090963958277705 0.35536206535028675
1.306657475246383 13.084513175712203 807.4764022085677 41.922120285914936 0.360967385302047
1.333689293242976 13.085232711671049 719.2043874378007 43.8387797231046 0.36671393076773673
1.360694702516679 13.085038419359705 641.2226519164702 45.84583135004745 0.37261058424358046
1.3876215102268572 13.083789054378274 572.3159792012383 47.94850218825204 0.3786667293024232
1.4144747399677455 13.081509454432764 511.27744957614703 50.15142167641774 0.38488738683330925
1.4412032413449514 13.078083815846165 457.28885655137765 52.460041355135296 0.3912807481057331
1.4677872238510064 13.07348083199585 409.39404514916134 54.880653540855675 0.39785788157845736
1.494193707222961 13.067624811176334 366.87667698386207 57.419440378052855 0.4046278353223831
1.52040426628436 13.06049238531596 329.15128159426575 60.083021428872584 0.41160036643225545
1.5463848553710222 13.05202254288753 295.56912667588557 62.878493043375215 0.4187859993880245
1.5721007930817372 13.042155262968222 265.7214172154613 65.81347149815794 0.42619608917832835
1.5975234661452296 13.030845425697454 239.15382120327124 68.89614028575846 0.43384288974348745
1.6226097737001808 13.018045759075894 215.44541835563314 72.13530198477407 0.4417396283636583
1.6473618110690103 13.003719594258431 194.28973378509403 75.54043519452165 0.44990058669339117
1.6717110904585908 12.987806877059738 175.40726510422908 79.12163622331573 0.45834068448918014
1.6956499871411075 12.970276700659792 158.5200683146612 82.8887443628292 0.46707174733248696
1.7191153819789038 12.951050417551073 143.43806265659785 86.85464520707919 0.4761160003696156
1.7421197595240188 12.930168310537304 129.91479249210283 91.03109985265415 0.4854885553648115
1.764604203120476 12.907550429570085 117.79467004304605 95.43178428029273 0.49520972842242506
1.7865294735284039 12.883129658673202 106.92769009881043 100.0707560712474 0.5052986227841094
1.8078707464738206 12.856895334995015 97.18408134371631 104.964315913854 0.5157801057349495
1.8285852624889998 12.828786926676466 88.41930859813256 110.1288555358797 0.5266762153161533
1.8486693182695844 12.79884842600925 80.54453555037043 115.58211856121629 0.5380108189214168
1.8680604239592828 12.76696844139436 73.45704904031696 121.34437118345079 0.549813519112536
1.8867364029345735 12.733148399279894 67.07468513704141 127.43690025301878 0.5621136848034972
1.9046662729998078 12.697359314636635 61.31946254275722 133.88236763098612 0.5749414712814966
1.9218141517080531 12.65957621249136 56.1308398439762 140.70590087718105 0.5883312896611543
1.9381418521911653 12.619746360627687 51.44476451529031 147.93539144434922 0.6023222674469612
1.9536366853026987 12.577903203936264 47.209968880767306 155.59959101972052 0.616951132230141
1.9682661332482725 12.534013238949761 43.38316744718978 163.73167167735676 0.6322639585045813
1.9819930207820198 12.488048987204229 39.919643775107886 172.3654437466583 0.6483025637281037
1.9947920748458636 12.440006417329766 36.78181552202196 181.54033852834397 0.6651207227954268
2.0066327120197327 12.38986798016037 33.939663229923944 191.29811808715857 0.6827721911727743
2.017497105201634 12.337646948458802 31.35912709504649 201.68473423355326 0.7013160945838968
2.027345674179293 12.28330199864373 29.019628224749585 212.75039190117963 0.7208161266997266
2.036169496764161 12.226870788706236 26.89640162882562 224.54979057562753 0.7413402372066256
2.0439284856339976 12.168316710089387 24.966185280200392 237.14468280170757 0.7629677151126104
2.0506010329501425 12.10765074974039 23.20985921281105 250.60117369221945 0.7857789270841153
2.056182937186337 12.044921952187094 21.613531615169812 264.9927208149972 0.8098634843598902
2.060652135595953 11.980135192541267 20.160304021983272 280.4010793021563 0.835321453107907
2.0639801714831623 11.913292824305085 18.83878190902599 296.9151849751147 0.8622575802132072
2.0661514901919853 11.844420869844743 17.63468340899852 314.6353903515583 0.8907926827115349
2.067162630564296 11.773570006564386 16.538483449800406 333.6713540479033 0.9210539333771975
