M[M_sun], R[km], Lambda[1], P_c[MeV/fm^3], rho_c[fm^-3]
0.24162668629717493 15.618656898711224 2160425.4255784233 3.5677272577965504 0.1711233750220791
0.25364431553253497 15.277267508845652 1723146.7175021337 3.78482473738224 0.1738882370132917
0.2660405914722011 14.981257537960847 1353410.5391903096 4.011412273491543 0.17666679150092784
0.2788159414481505 14.723493973839194 1116369.8877868939 4.247745798876333 0.17945771816956585
0.29197072637275534 14.498383689681956 905882.5309738028 4.4944505397772145 0.18226758402251805
0.3055061683780834 14.30122186971807 738640.9229155369 4.75168191684082 0.18509209171164162
0.3194234969637807 14.128099780545098 605116.3697504428 5.020122549847425 0.18793786735032092
0.33372186154874683 13.975895301123114 497669.4507156545 5.2999959994575 0.19080152427010677
0.34840267456368584 13.842013526755439 410998.13805645244 5.592031494990911 0.19368937147931004
0.3634663620730831 13.723956586014475 340634.5959885564 5.896395551102784 0.19659645781784224
0.37891963564070114 13.620014489743072 283295.2003265667 6.213952580598886 0.19953047096303317
0.39475085043373886 13.528464854002662 236407.18173661112 6.544960139135593 0.20248759170571334
0.4109771303681763 13.447877669075682 197859.2154442208 6.890120376536552 0.20547152697125393
0.42758576768072176 13.377043694642737 166080.92341267673 7.250138539325009 0.2084853528008513
0.44458098215557446 13.314932618528871 139794.45279529327 7.625273892222167 0.21152462044435613
0.46196272052159537 13.260558840548123 117975.17401103795 8.016474874561974 0.21459548297293418
0.47972751409658626 13.213159286252234 99806.66785855858 8.424446797458323 0.2176995921951291
0.49788510616395515 13.1719754522075 84639.91589931144 8.84963102967226 0.22083442317298893
0.5164239223875872 13.136390753210383 71935.04661199868 9.29289988830614 0.22400336967051296
0.5353429562834272 13.105836333378052 61276.587433820074 9.755138717739992 0.2272093581700312
0.5546498263769756 13.07981767959416 52298.0726988012 10.23715715372392 0.2304537396841543
0.5743325358195219 13.05784804340236 44728.10841654107 10.739426797512367 0.23373321617159726
0.5943900572331449 13.039517922930463 38323.553897033205 11.263191531227225 0.23705396528772193
0.6148271038533945 13.024518718269444 32900.64381048852 11.809389425154198 0.2404176075999543
0.6356317701777948 13.012447782080077 28290.82231655561 12.378999550845425 0.24382577617764975
0.6568026179853855 13.003013138378627 24369.709631291313 12.972711651975182 0.24727642973299596
0.6783349423648384 12.995979238532858 21026.535785867316 13.591851098477434 0.25077433763972207
0.700223890932816 12.991063258833632 18171.84895255009 14.237616350401678 0.2543221450362954
0.7224584566147338 12.988000584184286 15729.004903764086 14.911197182111959 0.25792183670872165
0.7450456606424117 12.986649307984667 13633.442488532748 15.613623173095814 0.2615733080412255
0.767966471317711 12.986765076952578 11835.416399810736 16.346160781076794 0.26527845662728106
0.7912121837135199 12.98813786197984 10288.447680053456 17.11042603565207 0.2690419722317529
0.8147875674507564 12.99067030916789 8955.680105063699 17.907874096041272 0.27286628765667437
0.8386702668949387 12.994129366604563 7807.1189337917585 18.739867282561118 0.27675245683164423
0.8628516272275464 12.998404505932436 6814.173628275213 19.60775615145633 0.2807010148788861
0.8873322385643778 13.003352968396424 5955.062760741383 20.51362374413789 0.2847182959478632
0.9120882099154305 13.008844311496151 5210.90091909729 21.45926433185025 0.2888073136714361
0.9371077821249432 13.014737215938029 4564.944783936865 22.44615809528711 0.2929679575900897
0.9623924674655379 13.020949636881921 4004.3482550500175 23.476338475544335 0.297204091364682
0.9879135267536155 13.02733210128484 3516.364507221155 24.552224138085915 0.30152178419236325
1.0136555682899346 13.033794012858207 3091.6576439245546 25.67575244636176 0.3059226305241968
1.039620406604972 13.040251914154062 2721.2648135958984 26.848894710310983 0.31040796440666635
1.0657711876375304 13.04657486009501 2398.1563508171803 28.07474310420689 0.3149864850515671
1.0921043175107896 13.052704961456428 2115.614384353213 29.35534581339822 0.31965859071759095
1.1186026570947658 13.058539683554898 1868.4618774962519 30.693472394664656 0.3244290607374999
1.1452341328789597 13.06400139018264 1651.9970750092627 32.09250895806731 0.3293058595093302
1.1719968323685428 13.069006889894164 1461.9698116633058 33.55441008434846 0.3342867719774556
1.1988530734609486 13.073463196142235 1295.3467661947245 35.083711969387934 0.33938532274116184
1.2257989948338683 13.077332497568293 1148.9701567729553 36.682429932385936 0.34459822437004434
1.2527951685485639 13.080492396232192 1020.1102120513278 38.35562468108432 0.34993996568105346
1.2798392843584345 13.082932098582821 906.6572200230223 40.10554366372589 0.3554071700881785
1.3068814443048558 13.084521628258527 806.690787015537 41.93764458357522 0.3610143176057948
1.3339192724662214 13.085234549012126 718.5476112045508 43.855422642508984 0.36676340213129066
1.360929330930194 13.085029157542259 640.5995271903802 45.86355802267708 0.372662130999601
1.3878588171356987 13.083776627150508 571.7548596421746 47.96738831966497 0.37872048532900027
1.414715663999228 13.081480542778024 510.7863649763316 50.17167432932533 0.3849441369986448
1.4414386456838888 13.078028661590993 456.8273888353501 52.48162838296516 0.3913400179961935
1.4680342601343144 13.073431208257146 408.9906087971642 54.9036705149775 0.3979198391332808
1.4944428604955253 13.067564479727986 366.49628124035195 57.44399061057419 0.40469266146222826
1.5206547687957872 13.060419914467383 328.80926063423084 60.109216665622135 0.41166825612513774
1.5466386159955965 13.051931800878291 295.26920472601796 62.90645422602594 0.41885716282088326
1.5723552093275148 13.042050095387877 265.44363029574816 65.8433296031892 0.4262707530455573
1.5977790321378897 13.03072248478653 238.89844616225452 68.92803724889293 0.43392129866509566
1.6228660699490292 13.017898489209223 215.21453806884128 72.1693917205852 0.441822046447231
1.6476178020861376 13.003560545568746 194.08591034164212 75.57688472211294 0.44998729925573844
1.6719674139143437 12.987624181171809 175.21783448392765 79.16043661874642 0.45843120536781456
1.69590415525697 12.970072795715913 158.34508666703306 82.93027412055598 0.46716718259478884
1.7193844428054534 12.950863712591605 143.26384735404164 86.89911807451148 0.47621670953328266
1.7423655697910074 12.929914939361915 129.77610363536726 91.07853434267075 0.4855940796450903
1.7648496961765603 12.907275039266887 117.6694231686131 95.4826372642558 0.49532131122415957
1.7867755696080787 12.882837847064307 106.8098934285431 100.12507182575966 0.5054158338259246
1.8081146557507433 12.85658131070378 97.07736234963771 105.02237604639872 0.515903396548107
1.828824418386184 12.828446734179096 88.3247567475722 110.19109174852099 0.5268065378392601
1.8489039188777647 12.798481195943227 80.45514631227653 115.64887079745877 0.538148706007068
1.8682803066964158 12.766541215401647 73.38107864839188 121.4158854179234 0.549959095886879
1.8869593753288574 12.732721523254483 67.0022687880718 127.51357351097637 0.5622675605162007
1.9048827917965574 12.69690534770592 61.2534189437455 133.96436620178198 0.5751033619205779
1.9220243653738602 12.659088468920652 56.07024833962837 140.79397290463405 0.5885028874627322
1.9383461418685506 12.619270936939287 51.388478106256166 147.39538671357133 0.6011025752059387
1.9468925741713674 12.581565637184866 48.444212072345564 156.9364226629073 1.3510570102070898
