M[M_sun], R[km], Lambda[1], P_c[MeV/fm^3], rho_c[fm^-3]
0.24162668629717493 15.618656898711224 2160425.4255784233 3.5677272577965504 0.1711233750220791
0.2536414559149424 15.277383010680781 1723229.494861581 3.784794952008285 0.1738878657529743
0.2660371554298351 14.98130802679367 1383078.2093420916 4.011349658850691 0.1766660348399458
0.2788109525726955 14.72361481244708 1116484.360690244 4.247648236782285 0.17945658659629785
0.2919630926498831 14.498526436820379 905989.4338409945 4.4943154702967245 0.1822660799925048
0.3054967794083778 14.301341976463775 738749.2091801035 4.751504753939325 0.18509017801418498
0.31941107002129915 14.128259273726393 605177.8631867613 5.019901988681493 0.1879355789430956
0.3337070893151181 13.976057421385947 497738.29050033 5.299726233500297 0.19079880817454042
0.3483867829674891 13.842141092819434 411073.7484745711 5.591711850892966 0.19368627883473136
0.3634469560564185 13.72418453696782 340723.30672427884 5.896018847915129 0.1965929197417849
0.3788990572147907 13.62010013079988 283365.454042399 6.213514259974069 0.19952647400670723
0.39472827114779147 13.528589839105718 236457.13583443032 6.544460656351009 0.2024832119164607
0.41095073333796983 13.448001136043322 197919.19248273107 6.889550089521238 0.20546667016771986
0.4275572850018874 13.377147051645522 166134.20775145938 7.249492096945891 0.20848000494871785
0.44454895365991093 13.315038945039575 139844.0710349423 7.6245530813518885 0.21151888232634886
0.4619270974601953 13.26066439874962 118013.55826053262 8.015667123100545 0.21458923436234104
0.4796891357961591 13.213242381932565 99841.9486902032 8.423545807136865 0.21769281800747312
0.49784287884844963 13.17206930394269 84670.04877234594 8.848640122722868 0.22082724858329336
0.5163778111876748 13.136481585898146 71963.70555290711 9.291803029520214 0.22399564771627886
0.535294126274164 13.10591460582886 61298.46216669799 9.753928470683105 0.22720107217805866
0.5545969987791106 13.079884847238777 52319.865755563114 10.235825630117237 0.23044487225636281
0.5742752092559318 13.057899259178143 44746.63130716872 10.737979782892706 0.23372392588951
0.5943296214043136 13.0395725490567 38344.07341640348 11.261607265689438 0.23704406676797252
0.6147643349673871 13.024532298732408 32916.34879517109 11.807658550333098 0.24040708099314118
0.6355616052791694 13.012481261758253 28306.68645962643 12.377112124561837 0.243814600586572
0.6567306864816048 13.003053718756634 24382.098219030937 12.970676341541864 0.24726479673317744
0.6782594086213543 12.995990916870355 21037.639099045533 13.58963900361634 0.2507620212881912
0.700143281943356 12.991063316995747 18181.042742114212 14.235215611153452 0.25430912090870567
0.7223724669585367 12.98801558354919 15736.539915146885 14.908595176531481 0.2579080789243842
0.7449576044794866 12.986648039958915 13640.78512195517 15.610831854652169 0.2615590406728963
0.767873634604937 12.986755961046466 11841.391148395523 16.343142351756935 0.2652634105141698
0.7911167811219639 12.988126763939723 10294.627138988766 17.10716534780439 0.26902611661091125
0.814683546932841 12.990663991763332 8961.070820224668 17.90435499779438 0.27284958978712043
0.8385631082386973 12.994117283061515 7811.229406303466 18.73610538201117 0.27673517284507687
0.8627397614162147 12.998387448398574 6818.476282687364 19.603702537992373 0.28068282887175355
0.8872113354125948 13.003321307484336 5958.825856702609 20.50925890945088 0.2846991685654864
0.9119666735786006 13.008820475950351 5214.210701795251 21.45456743181733 0.28878720290565624
0.9369827204994143 13.014706819354021 4567.924893144832 22.441148694630545 0.29294715139168254
0.9622569486357432 13.020914075770877 4006.9665387937357 23.470953714437766 0.29718222224985985
0.9877782875364494 13.027306372836794 3518.6727240780656 24.54643867320445 0.3014988012868783
1.013517319054082 13.033754318768308 3093.974105026485 25.66958867131386 0.3058988433292109
1.0394768418571743 13.040212405493754 2723.252686362952 26.842277277617416 0.31038296493754813
1.0656259083949704 13.046548792411395 2399.7069967355947 28.067641040774227 0.3149602114307158
1.0919506164190504 13.052668662536531 2117.20475329696 29.347784288714763 0.31963137387153034
1.1184451861812714 13.058505012284758 1869.7817121063001 30.68536113944169 0.32440044775910465
1.1450720597797444 13.063962703228913 1653.2035140459698 32.083874444053876 0.3292761921696455
1.1718307865069792 13.068977956064424 1463.1430998974045 33.54515103877087 0.3342555680392116
1.198682039124414 13.07344105068406 1296.2784115164625 35.07378469606549 0.3393524959395744
1.2256247750647324 13.07731183000645 1149.8120554928523 36.67186323742959 0.34456413784780443
1.2526173872826423 13.080474076712186 1020.9166530829393 38.34431411962375 0.34990418249412986
1.2796559526947544 13.082918793987194 907.3534971612928 40.09348452476536 0.35536986314093266
1.306695712942744 13.084516346835796 807.3480454983056 41.924804143280184 0.36097549900946474
1.3337290502581134 13.085237942821871 719.1138462466357 43.841656952983044 0.3667224833829292
1.3607343027253338 13.085039570027007 641.0861593448977 45.848895925168335 0.37261949561174096
1.3876632524957146 13.083786686073061 572.2339736267949 47.95176719447263 0.37867602256409394
1.4145160480697563 13.081503590681695 511.1903279830023 50.15492290443968 0.38489719766007
1.4412378807775346 13.078065174166827 457.19570191141855 52.46377324834005 0.39129099448625376
1.4678312135695641 13.073470297763512 409.3291500492107 54.884632618572525 0.3978685925400496
1.4942370887484873 13.06761342716056 366.81219439824014 57.423684497448384 0.40463904213589147
1.5204478064780869 13.060479219037262 329.095822254367 60.087549904706336 0.41161210279625615
1.546429819233662 13.052006084363029 295.5264820007023 62.88332677970203 0.41879830163127535
1.5721443860495825 13.04213908123714 265.6665866612787 65.8186331333068 0.4262089964824267
1.5975678229213208 13.030822625225674 239.11264336124194 68.90165435208094 0.43385644438792803
1.6226548192399288 13.01802257864312 215.4019270289005 72.14119508483688 0.44175387599573646
1.6474057039745047 13.003691975976297 194.247189120705 75.54673619562631 0.44991557662569603
1.671757977438657 12.987771746635184 175.36817746526762 79.12834358377027 0.4583563326843834
1.695694235028457 12.970242190054508 158.49007991581354 82.89592349976874 0.467088244968265
1.7191569043243584 12.951010807532764 143.40088009999036 86.8623330632816 0.4761334095814168
1.7421630809040511 12.93012662836416 129.89206267134992 91.03929962864014 0.4855067968481513
1.7646435204615638 12.9074962068288 117.77227084269104 95.4405749372482 0.4952290170866437
1.7865724908337377 12.88307874586631 106.90738026827349 100.08014526251475 0.5053188842515258
1.8079133804673175 12.856841072293768 97.16564910280601 104.9743523098129 0.5158014180428053
1.8286271047558087 12.828727797261543 88.40302310648586 110.13963467049373 0.5266988208691938
1.8487089860319403 12.798783528298307 80.52789520640242 115.59365733653131 0.5380346540494924
1.86810045603739 12.766900721763424 73.44125601059218 121.35673303504939 0.5498386833122775
1.8867751463454843 12.733073954750777 67.06228082118186 127.450154558282 0.5621402860884026
1.904702382460933 12.697281689090843 61.306554828114834 133.89654160643568 0.5749694551100144
1.9218496185289469 12.659493562174768 56.119782027862094 140.72112457751362 0.5883609512186828
1.9381704377928026 12.619626712339528 51.43466907468033 147.95175599870862 0.6023537454814588
1.9536744525438012 12.5778199441282 47.20252229696727 155.61714264416602 0.6169843943154075
1.9682978634952368 12.533912364522475 43.374487867450334 163.75057183190125 0.6322993477971179
1.982023245284959 12.487944192593401 39.91318531043625 172.38575558668748 0.6483400673198669
1.9948197120645523 12.439892420714967 36.77374251097241 181.56219080049704 0.6651605270121524
2.0066591993753944 12.389750986191128 33.93278515011155 191.32165263589403 0.6828144995132905
2.017524311355677 12.337519588862488 31.35232924137704 201.71010752595146 0.7013611296750347
2.0273680390995477 12.283168875367108 29.014398560714014 212.77771277536306 0.7208639229345546
2.0361885841562475 12.226731273641082 26.890876989925033 224.57931178782314 0.7413912653247061
2.043944865644847 12.168169898403619 24.96170225945758 237.17654811533563 0.7630220483995438
2.0506161075253995 12.107497995562063 23.205558675687822 250.63568236291937 0.7858371009026134
2.0561954288022743 12.04476295340208 21.609979838798058 265.03006069061723 0.8099256200823229
2.060662047372322 11.979968936011462 20.156818161964573 280.44153162954694 0.8353879184324643
2.063987110120873 11.91311864842145 18.835498945712295 296.9589957261231 0.8623285614799
2.0661553657735614 11.844239669929594 17.631676821707075 314.6829813700338 0.8908688665716813
2.0670414649884603 11.774314823227751 16.555876315424452 333.8918586840576 1.1343691330621801
