M[M_sun], R[km], Lambda[1], P_c[MeV/fm^3], rho_c[fm^-3]
0.24162668629717493 15.618656898711224 2160425.4255784233 3.5677272577965504 0.1711233750220791
0.2536443822739035 15.27726660001915 1723134.094668695 3.7848265318268415 0.173888259380178
0.2660406557253584 14.981231265260558 1382937.2029383646 4.011416045784951 0.17666683708686742
0.27881608267283275 14.72351027078046 1116459.228984973 4.247751676654168 0.1794577863429311
0.2919712310943985 14.498368047927022 905863.9303120562 4.49445867729034 0.18226767463561533
0.3055072153461135 14.301185995162584 738631.0977502012 4.751692590411035 0.18509220700657075
0.3194235350747097 14.1281000053005 605082.7576360258 5.020135838112907 0.1879380052212041
0.3337231461483622 13.975874276371316 497674.6876221706 5.3000122522796405 0.1908016879090574
0.34840363926759643 13.84200538719711 410993.06694006483 5.5920507529632895 0.1936895578054905
0.36346681928546 13.723998729991047 340619.3947067476 5.896418246903152 0.19659667098160225
0.37891942419560687 13.620004029719833 283287.8963833579 6.213978988898228 0.1995307117749255
0.3947517597208197 13.528461069724367 236391.68191706116 6.544990232529571 0.20248785558412433
0.4109788137393828 13.447872599223045 197859.170324606 6.89015473600249 0.20547181959088423
0.4275861029825393 13.377087212065739 166077.23230482853 7.250177487310749 0.2084856750075558
0.44458325825994055 13.314918070077464 139792.50091021525 7.625317321092685 0.21152496616609012
0.4619648814540647 13.260555041336751 117975.26478687035 8.016523541854161 0.21459585945378506
0.4797301271150254 13.21315636695312 98735.1460614231 8.424501082699322 0.21770000034425205
0.49788771753382305 13.171970204660768 84639.34502250564 8.849690732714777 0.2208348554485259
0.5164267136530398 13.136394238203316 71935.5438593182 9.29296597537531 0.22400383492759995
0.5353459907801843 13.105835087252146 61271.58501132751 9.755211636955272 0.2272098574135774
0.5546531848829505 13.079812731232451 52302.99515268246 10.237237380435891 0.23045427396275947
0.5743362205785282 13.057843453946386 44324.74782481451 10.739513983141604 0.23373377593034367
0.5943931868945419 13.039539240780108 38323.60314060494 11.263286986981646 0.23705456169700295
0.6148308600216016 13.024512231022642 32898.5286441723 11.809493714981679 0.24041824185610913
0.6356366299774415 13.012423977238845 28290.262867281228 12.379113273878778 0.24382644954016883
0.6568071104536543 13.00301768588743 24368.728516276384 12.972834285977568 0.24727713065866516
0.6783396048861827 12.995988705228815 21026.2978139168 13.591984384966581 0.250775079743184
0.7002287897585217 12.991059668154865 18170.88342077645 14.237761004090855 0.254322929789619
0.7224583740706115 12.988028807197653 15727.65777758868 14.911353963638332 0.2579226656717508
0.7450513603138289 12.986653818727106 13632.88266416703 15.613791362186651 0.2615741677122937
0.7679729288009911 12.986762831733717 11835.158497954711 16.346342655484435 0.2652793632255875
0.7912164986875786 12.98814892521681 10287.821123868847 17.11062250823556 0.26904292761139526
0.8147935313861105 12.990668165695174 8897.26116988679 17.908086140183855 0.272867293790969
0.8386763368086391 12.994128274095075 7806.644518165336 18.74009395773739 0.27675349828679435
0.8628571108573813 12.99840129907374 6813.475350949238 19.608000405157963 0.2807021106912026
0.8873387818651643 13.003359711937437 5954.654991133901 20.513886752042122 0.28471944848927955
0.9120954957677825 13.008846543604637 5210.62136195811 21.45954735014539 0.2888085254738174
0.9371156512328315 13.014738123817832 4564.794910985311 22.446459944981676 0.29296921130187376
0.9624003072233183 13.020954222024749 4004.144905256392 23.476662944856898 0.29720540913096954
0.9879218211372753 13.027345262294833 3516.1956821538397 24.55257275438031 0.30152316907940496
1.0136635397587217 13.033792122988071 3091.770632008519 25.676123860137928 0.3059240638814893
1.0396288274569723 13.040249745631211 2721.1565677672243 26.849293462449285 0.31040947082044174
1.065780856697317 13.046579513122014 2397.929843248444 28.075171061394464 0.314988068251294
1.0921143030943137 13.05269965717641 2115.5408322852923 29.3558014588126 0.319660230761315
1.1186115896747058 13.058541923090553 1868.4490847130667 30.6939611685836 0.3244307849191707
1.1452429125875683 13.064005211916575 1651.9229608940493 32.093029265160126 0.32930764723325295
1.1720066677535543 13.069015696413913 1461.862758232796 33.554968028134525 0.33428865230554106
1.1988637770591988 13.07347034673568 1295.3041848513103 35.08431018343603 0.33938730087284275
1.2258097321071622 13.07733874567374 1148.9005610133713 36.683066680638184 0.3446002784213396
1.2528058142478529 13.080494301921652 1020.0538712688617 38.35630254778883 0.3499421002183212
1.2798491147048814 13.082937214681237 906.5756507895159 40.10627035404804 0.35540941822526373
1.3068931694047703 13.084527159889578 806.6420356932523 41.93841835920379 0.36101665684674644
1.3339260932453563 13.085243187157475 715.5096403084866 43.856252179324464 0.36676586794371113
1.360939102138195 13.085035682379633 640.5225388178934 45.86444158242621 0.3726647002713289
1.387870491492293 13.083771878766635 571.7220126787196 47.968329676536065 0.378723164734532
1.4147279592366313 13.081479002758531 510.7609996348277 50.17268380630651 0.38494696566439274
1.4414513874025745 13.078027187262826 456.8195777955071 52.482704377443596 0.39134297227389103
1.4680455701410526 13.073427912948407 408.95101043930407 54.90481779165891 0.3979229273957739
1.4944553167239643 13.06756422617599 366.4761737390339 57.44521432012732 0.4046958927296532
1.5206675160923864 13.06041582591479 328.79418223271443 60.11052237923682 0.41167164011808044
1.5466512217085115 13.051926983884465 295.2520553721546 62.90784797341942 0.4188607100188075
1.5723676813150322 13.042044929398518 265.4306157638822 65.84481791444533 0.4262744747510676
1.5977924200119589 13.030715750050538 238.89120384417615 68.92962720056344 0.4339252070746633
1.622878357544126 13.017892115241292 215.20063641804813 72.17109098653948 0.4418261547290965
1.647630399116073 13.003552373031123 194.06969225555335 75.57870162967662 0.4499916216357748
1.6719797774455372 12.98761966596784 175.20132682829015 79.16237072272646 0.45843571761027246
1.695916657300268 12.970064862500863 158.34454080859635 82.93234429257052 0.4671719398440489
1.7193969776705906 12.950853003529817 143.2579052015934 86.90133497204432 0.4762217297154602
1.7423799136197786 12.929915365241024 129.76120239833287 91.08089888845902 0.4855993398891112
1.7648616057000999 12.9072630656557 117.66386185159493 95.48517223858246 0.49532687352386456
1.7867889237959915 12.882825848180467 106.80862045673811 100.12777943595397 0.5054216767312576
1.8081265189946218 12.8565658553871 97.07259105160095 105.02527033379374 0.515909542573457
1.8288363377031347 12.828430285557795 88.31764631238154 110.19418802887208 0.5268130113378396
1.8489159175944228 12.798462191457872 80.45139782241472 115.65219844173964 0.5381555797718705
1.8682915175237833 12.766521390937351 73.37636661043206 121.41945048090221 0.549966353048654
1.8869706036214633 12.732699819384475 66.99912595673828 127.51738245484025 0.5622751838157759
1.9048939209573648 12.696882316000206 61.24839200697789 133.96845398776708 0.5751114324793588
1.9220345522346505 12.659063792205995 56.06599650098282 140.79836350463174 0.5885114420211884
1.9383478147334845 12.619174880021825 51.38439917752819 148.03478395161306 0.6025134538797687
1.9538437702123088 12.577330490166903 47.15910985296627 155.70619415341696 0.6171531558396198
1.968459516216256 12.533396462386962 43.33247611879444 163.84626652608645 0.6324782277010491
1.9821740928332832 12.487395187137531 39.87413156818859 172.4888136011475 0.6485303526754372
1.9949635228216929 12.439319167937228 36.74021917729211 181.6730657370362 0.6653624872464267
2.0067991566373893 12.389155929613187 33.89704086101726 191.44106439686632 0.6830291674681191
2.0176452745294164 12.336880248585334 31.322876419033364 201.83885024095548 0.7015896352947452
2.0274808426364364 12.282494808466378 28.988769973126605 212.91633881545843 0.7211064408979689
2.036290368327173 12.226027161169863 26.86646582511719 224.72910405018422 0.7416501848162452
2.044035254678078 12.167429481701058 24.939134645123534 237.3382362543142 0.7632977415294278
2.0506938772724097 12.106721828635308 23.18466416136094 250.8106521605801 0.7861318512823032
2.056265860328469 12.043973475830402 21.591028847599837 265.21953195015936 0.8102409112662492
2.0607119909101903 11.979122509795094 20.13934391856955 280.6464422656691 0.8357240195682375
2.0640163418756337 11.912226038085905 18.818895500814126 297.1813071717324 0.8626887458557998
2.0661772606005018 11.843323392488788 17.616862219896113 314.92447848846064 0.8912554559594551
2.067168996458731 11.772429302360651 16.521174516665372 333.98531441787304 0.9215498087025873
