M[M_sun], R[km], Lambda[1], P_c[MeV/fm^3], rho_c[fm^-3]
0.24162668629717493 15.618656898711224 2160425.4255784233 3.5677272577965504 0.1711233750220791
0.2536440279296844 15.277297919126218 1723203.432894593 3.784820390604245 0.17388818283280094
0.2660399662899145 14.98126045898218 1382935.5249859062 4.011403135676428 0.17666668107582495
0.27881504061747303 14.723526512681403 1116360.464488001 4.2477315608567325 0.17945755302999472
0.29196947393761685 14.498430574328829 905939.1893832454 4.494430827915115 0.18226736452635867
0.30550465141623145 14.301237571055749 738654.7030497082 4.75165606180262 0.18509181242788397
0.31942168123933706 14.128118561144776 605117.1151140237 5.020090361156324 0.18793753338022706
0.3337193139405976 13.97595082922501 497682.60803146 5.299956629645683 0.1908011278814281
0.3484003338531726 13.84203222848005 411008.86107917386 5.591984845739183 0.1936889201349668
0.3634622508783786 13.724004321432774 340656.3373875493 5.896340574339167 0.19659594146444404
0.37891616889980184 13.620003312263954 283304.44177412376 6.213888610996607 0.1995298876372848
0.39474849278609364 13.528450451566997 236419.48977037513 6.544887243089067 0.20248695250586304
0.4109731371331406 13.447875445624923 197868.24091289937 6.890037146752724 0.20547081815148882
0.42758129753147456 13.377060137742177 166084.21166301562 7.250044194751707 0.20848457231237483
0.44457620958098504 13.314930111738246 139800.71500507035 7.625168693597298 0.2115237829956597
0.4619573727377105 13.260573234954022 117983.02324016581 8.016356986920458 0.214594571016719
0.47972224718297873 13.213171453917475 99812.80964825372 8.424315301490562 0.21769860352927953
0.4978796336091335 13.17198589044986 84646.56657573402 8.849486410207096 0.22083337606627
0.5164172667167914 13.13640350869574 71939.76907182876 9.292739804885896 0.2240022426732544
0.5353357689270435 13.105845419293516 61277.38011980828 9.754962084910709 0.22720814884818472
0.5546424455887308 13.079805877035529 52299.027763704566 10.23696282007289 0.23045244549784824
0.5743248173121481 13.057845795418437 44731.49495445866 10.739215607410229 0.233731860265723
0.5943812158113445 13.039522473452553 38329.03315063359 11.262960308590161 0.2370525206045013
0.6148181276749225 13.024523068838462 32902.84004630029 11.809136803970034 0.24041607124166547
0.6356215385291902 13.012446687139626 28060.54733859341 12.378724079877495 0.2438241450936079
0.6567921855967872 13.00301454480668 24371.31870849828 12.97241459623369 0.24727473188419102
0.6783243325568649 12.995984631549593 21028.291744336944 13.591528239578642 0.25077254004787264
0.7002106163084708 12.99106761202753 18172.88785660908 14.237265957152182 0.25432024413581594
0.7224456156863609 12.988001950582923 15615.465009167385 14.910817412082759 0.2579198287214219
0.745033701077099 12.98665860305918 13634.564604346015 15.613215770982247 0.26157122567186153
0.7679530461353411 12.986751932355741 11836.576958658437 16.345720229631983 0.2652762605888228
0.7911975040118603 12.98814352788094 10289.1327253896 17.109950123739562 0.2690396580332797
0.814770811316777 12.99066656823625 8956.51515012897 17.907360465924793 0.272863850518498
0.8386541847012087 12.994131659873334 7807.615684483858 18.739318212429616 0.27674993413848653
0.8628351483101029 12.998393673776295 6815.044693932977 19.60716450183649 0.28069836052017577
0.8873148588439209 13.003358247686792 5955.771920607653 20.51298666730534 0.28471550417840263
0.9120702027230356 13.008842998550868 5211.413927938797 21.458578785069733 0.2888043783586473
0.9370908230424733 13.014735870565191 4565.532525922691 22.44542693435151 0.29296492076382313
0.9623689119513044 13.020938068474068 4004.576467279318 23.47555252460582 0.2972008993843919
0.9878928661361124 13.027328913003714 3516.6538726058643 24.551379697582078 0.30151842963111625
1.013634515482882 13.033802258229914 3091.848489379089 25.674852785079153 0.30591915855804225
1.0395990526526273 13.040242939904953 2721.4650444839704 26.847928829346543 0.31040431548230846
1.0657498949604034 13.04656949976684 2398.350357795808 28.073706482109188 0.31498265013566984
1.0920807950900262 13.052702926255016 2115.8686890616764 29.354242124227298 0.3196546181142442
1.1185792109767885 13.05853613061027 1868.6693548979656 30.692288461057423 0.3244248843349834
1.1452099611620548 13.063988404928983 1652.2039113243025 32.09124864423322 0.32930152919513217
1.171972543976689 13.069002375462368 1462.0937349668063 33.5530586064736 0.3342822173576741
1.1988283378566713 13.07345921078688 1295.5580227674304 35.08226294853703 0.3393805312220384
1.2257738243303518 13.077333547222766 1149.1145768272404 36.68088757361633 0.34459324895940563
1.252769199225862 13.080496981187999 1020.2342692139401 38.35398272491055 0.3499347953184709
1.2798112377840758 13.08293828281341 906.7374283939932 40.103783446974916 0.35540172456560143
1.3068546393821987 13.084523358640334 806.7638739546225 41.93577031674065 0.3610086514132037
1.3338918567293296 13.085231841026923 718.6232531235011 43.853413311252304 0.36675742935964617
1.3608990706037485 13.085033591601825 640.6350195039757 45.861417837336646 0.3726559076313532
1.3878301235227595 13.083774666748942 571.8325897265623 47.965108138585016 0.37871399519758825
1.414686762929984 13.081485332991962 510.84710277984277 50.16922914873663 0.3849372853331708
1.441410434601896 13.078036241780843 456.9003096870008 52.479022084640995 0.39133286207749096
1.4680043473226425 13.073436072381424 409.034220308612 54.90089155813292 0.39791235868123964
1.4944127561358331 13.06757182093463 366.53990316020287 57.441026519586565 0.4046848346289504
1.5206246816292888 13.060428463877997 328.84932390261736 60.1060539463305 0.4116600593661836
1.5466080979309196 13.051941611341586 295.3043609791933 62.903078273678574 0.4188485707537591
1.57232400879419 13.042063909565167 265.47508305851056 65.83972460110922 0.42626173829407266
1.5977481085733802 13.03073742681501 238.9311107951925 68.92418605681826 0.43391183168806063
1.6228350384470278 13.017917976524126 215.24568633943176 72.16527575151201 0.4418120953497823
1.647586902418887 13.003581776803726 194.1032986256783 75.57248380632505 0.44997682958137336
1.6719354526993466 12.987646779670458 175.2400564617286 79.15575183444989 0.45842027581964817
1.6958735173232165 12.97010203321133 158.3728293680934 82.92525975875213 0.4671556596059678
1.7193536466515236 12.950890481042688 143.2838933979654 86.89374832172022 0.4762045496851791
1.7423393856091758 12.929952059661366 129.78411109768928 91.0728069638056 0.4855813383352877
1.7648196546794468 12.907307184227406 117.68440944666736 95.47649708345098 0.49530783829643804
1.7867463970930244 12.882870672969368 106.82294733713181 100.11851349652419 0.5054016812359595
1.8080862284592985 12.856620342598298 97.0873439391216 105.01536555936511 0.5158885097641965
1.8287955551681423 12.828488349084843 88.33631390768895 110.18359200763437 0.5267908578760555
1.84887574412709 12.798525967887494 80.46559721046957 115.6408106641948 0.5381320565530827
1.8682618136976492 12.76661967509356 73.38442690699942 121.40725022702509 0.5499415178026544
1.886931444000344 12.732772450022683 67.01041575816697 127.50431918959245 0.5622489940712555
1.9048554282218126 12.69696093869799 61.25845086855975 133.95446491306623 0.5750838137023302
1.9219989036284508 12.659147106290485 56.077584062491546 140.7833381666284 0.5884821669489106
1.9383136014709463 12.619273799408775 51.3948891108604 148.01863236710196 0.6024823855033702
1.9538108982789388 12.577421606852951 47.16534473226276 155.68887069261925 0.6171203261473053
1.9684286675734417 12.533496916922747 43.34076264070051 163.82766620465696 0.6324434821460394
1.98214466714279 12.487501162543913 39.8817309191884 172.46876514719835 0.6484933353972727
1.9949357561449144 12.439429473039253 36.74598552320555 181.65149647036114 0.6653231985281032
2.006772587886179 12.389273735317822 33.90443132433296 191.41783424289952 0.6829874063417292
2.0176214301775173 12.337005193658609 31.32976403863066 201.81380468068923 0.7015451818958134
2.027460664118091 12.282622392906147 28.99314710850395 212.88937037351306 0.7210592612222562
2.0362710071741454 12.226163437575275 26.870791705271824 224.69996309649784 0.7415998139840506
2.04401768399806 12.167573761409727 24.943073590270988 237.30678081516717 0.7632441071161362
2.0506788591052296 12.106873204805598 23.188371329829415 250.7766549671247 0.7860746469549253
2.0562543094307597 12.04413166891283 21.59552796038977 265.18267087463636 0.8101795722949956
2.0607026695079687 11.979287621051286 20.143375423450475 280.6065771936542 0.8356586315716187
2.0640103510432293 11.912394138609486 18.8221444424132 297.1380564212826 0.8626186718903535
2.066173106306514 11.843501617605794 17.619875604458148 314.8774947360767 0.8911802442128813
2.067167996470441 11.772616485042843 16.52452077551104 333.9342877662316 0.9214692161822998
