M[M_sun], R[km], Lambda[1], P_c[MeV/fm^3], rho_c[fm^-3]
0.24162668629717493 15.618656898711224 2160425.4255784233 3.5677272577965504 0.1711233750220791
0.25364128667454916 15.277387537895436 1723186.215472593 3.7847875206958608 0.17388777312524992
0.2660359287837059 14.981365026039962 1383038.5236891487 4.01133403689769 0.17666584605786323
0.2788084003424648 14.72365583142034 1116485.056729483 4.247623895826933 0.17945630427789677
0.29196353747932424 14.498479772103348 906034.3347659773 4.49428177177234 0.18226570475161477
0.30549451471902717 14.301357669055141 738777.3060548045 4.75146055380928 0.18508970056842328
0.3194087514945237 14.128266271813766 605209.3813520872 5.0198469615242605 0.18793500801510077
0.33370464014399553 13.976112312776216 497805.57916919707 5.299658930821166 0.1907981305482369
0.34838308332058154 13.842172264580096 411098.9426111914 5.591632104826505 0.19368550726960096
0.3634430349155569 13.724128701915987 340727.63514184556 5.895924867118737 0.19659203705425674
0.37889392934566696 13.62012747626175 283379.5840486152 6.213404907403179 0.1995254768429298
0.3947225397881184 13.528589097281127 236471.39507661012 6.5443360457134405 0.20248211924950996
0.41094410607993276 13.44803140938784 197932.48548054445 6.88940781556879 0.20546545850303785
0.4275478927177689 13.377202118859985 166142.04933579915 7.249330824910004 0.20847867078649543
0.4445414487326555 13.315055398717316 139856.41516168 7.624373257129825 0.21151745080991463
0.46191842097010705 13.26068276273995 118026.33747213334 8.015465610598993 0.21458767550022567
0.47967942072535913 13.213266183030054 99850.4282741179 8.423321035370325 0.21769112803801388
0.49783240047378324 13.172092604544295 84678.9557283682 8.848392920589275 0.22082545873422482
0.5163669400049445 13.136520499302511 71969.97744102556 9.291529397142181 0.22399372132727852
0.535281625858576 13.105929834742822 61305.77260860077 9.75362655321868 0.227199005091283
0.5545836298930997 13.079888190248932 52323.741942534 10.235493460036905 0.23044266013320777
0.5742613754667455 13.05791208504536 44753.24635461984 10.737618803539132 0.23372160829024263
0.5943153217465471 13.039583749478702 38346.101473061695 11.261212049357642 0.2370415974491795
0.614747360762207 13.024547926790062 32919.81745864351 11.807226762863644 0.2404044550049054
0.6355447920299395 13.012471030268824 28309.612223948883 12.376641286198033 0.24381181271768232
0.6567118733750638 13.00307646244757 24385.19098857046 12.970168614409156 0.24726189477309019
0.6782395475828137 12.996007126242135 21040.392771734892 13.589087179164366 0.2507589488774852
0.7001229634763846 12.991073933451034 18183.22657970146 14.234616731354105 0.2543058719565659
0.7223530004418015 12.988014270441708 15738.52120327631 14.907946093329569 0.25790464697682197
0.7449347853143737 12.986654563173582 13642.629757887325 15.61013554976756 0.2615554816242035
0.7678499699742916 12.986758895514797 11842.974694071774 16.342389397589415 0.2652596572264921
0.7910887776040623 12.98813014330427 10295.717086906716 17.106351966432683 0.26902216141273466
0.8146595706788623 12.990640967778429 8962.279603801393 17.903477160867197 0.27284542451366933
0.8385361098071293 12.994117309414138 7812.555904277556 18.735166982686838 0.2767308613857224
0.8627126633259595 12.998380330626288 6819.672273444816 19.60269137735704 0.28067829243168846
0.8871827134803114 13.003330363658332 5959.937052936273 20.508170122139838 0.28469439733067026
0.9119387564794459 13.00881662597304 5215.142485957073 21.453395819353045 0.2887821864003679
0.9369516524845658 13.014710061960086 4568.640911873768 22.43989913686332 0.2929419614401078
0.9622254630301978 13.020898407078082 4007.499482403372 23.469610533871254 0.2971767671944814
0.9877448035534621 13.027297519421667 3519.293558501851 24.544995549403087 0.3014930684410985
1.0134812300020872 13.033753030851296 3094.369930623756 25.668051189532555 0.30589290989091455
1.0394399712723288 13.040206059841903 2723.6705531189623 26.840626646371103 0.31037672914992803
1.065589832337493 13.046541813916132 2400.185273759733 28.065869535774738 0.3149536578634133
1.0919120800963291 13.052667764218112 2117.4596880608524 29.345898187359502 0.3196245850647235
1.1184059222074962 13.058500677526636 1870.225524207521 30.683337929375874 0.32439331075449673
1.145033731543907 13.063963911587134 1653.4123900853276 32.08172072732825 0.3292687922111088
1.1717893366913887 13.068971186846131 1463.4006037180914 33.542841559310084 0.3342477848553114
1.1986395240638301 13.073436908219191 1296.5498246266693 35.071308557027834 0.3393443080190597
1.2255826560880532 13.077302282139167 1150.0427116017327 36.66922762283079 0.34455563576309306
1.2525725304106645 13.080469420727061 1021.0805448645763 38.34148871393497 0.3498952322282983
1.2796108453910717 13.082914594637193 907.5665085893224 40.09047669157212 0.35536055790988497
1.3066488664302198 13.084513154110432 807.480707497508 41.921601452990735 0.3609658167915143
1.3336824732928692 13.085231997487714 719.2406609328192 43.83822350892698 0.36671227741154805
1.3606871907265212 13.085037084833242 641.237348138036 45.845238919744546 0.3726088615367352
1.387613628894745 13.083790426293552 572.3300378347082 47.94787101222269 0.3786649327716956
1.4144663936751936 13.081510995434465 511.3136884597284 50.150744836056695 0.3848854902520283
1.4411947562304286 13.078087461115572 457.30507323869745 52.45931992458225 0.3912787673277311
1.467779197821313 13.073480983062971 409.41459312341084 54.87988432680983 0.39785581099258605
1.49418569583065 13.06762860092026 366.89429984941347 57.41861992860657 0.404625668883817
1.5203979833005603 13.060492569835398 329.16573937248904 60.08214601036327 0.4115980976268879
1.5463766876994414 13.052025207746992 295.5802378468187 62.877558614927466 0.4187836211933347
1.5720927778250975 13.042158635409947 265.73662719218737 65.81247368365989 0.4261935940203428
1.5975150620902407 13.030847976596126 239.16438890968132 68.89507434298328 0.43384026944941284
1.622601957637473 13.018048475197869 215.45814338832338 72.13416277132262 0.4417368741097102
1.647353641991701 13.003723515221324 194.29531702015174 75.53921713022328 0.44989768894729143
1.6717022521855909 12.987812445388641 175.4106905291071 79.12033960615157 0.45833765949617045
1.695641425937374 12.970283292122716 158.52562061858137 82.88735654745085 0.4670685581367895
1.719108325365143 12.951055435474332 143.43221213242688 86.8531590523388 0.4761126349603306
1.742109930729809 12.930177088409582 129.91688775411808 91.02951473983973 0.48548502907225843
1.7645956837426668 12.907558098955347 117.79611446669814 95.43008494605314 0.4952059997036605
1.7865215438311826 12.883137809411004 106.93222708750933 100.06894103612798 0.5052947060170648
1.807862578102684 12.856906315766222 97.18441919687407 104.96237576977143 0.5157759858349235
1.8285875301456875 12.828823058333947 88.42523651413087 110.12677181606814 0.5266718454255814
1.8486621632324445 12.798859307138716 80.55060575656599 115.57988799844159 0.5380062113484323
1.8680529222561282 12.766981347541893 73.46032310862466 121.34198151558165 0.5498086546244699
1.8867288288006603 12.733162538019547 67.07693661359524 127.43433806940706 0.5621085425214325
1.904658378844493 12.697373700300927 61.32161509608169 133.87962767057172 0.5749360617488884
1.9218068234191206 12.659592572087236 56.13182660615539 140.70295800059023 0.588325555818436
1.938135697576561 12.619763329710796 51.446921519103576 147.93222803646205 0.6023161824745008
1.9536297496654207 12.577921532970207 47.21410532105137 155.59619814692823 0.6169447023965682
1.9682593152826198 12.534033555019624 43.38371205231395 163.72801812995138 0.6322571174780901
1.981987456032243 12.488068129516053 39.92174890001776 172.36151731674823 0.6482953140045817
1.9947865748326166 12.440028417360443 36.78305538176149 181.53611432961608 0.6651130283588721
2.006627914962526 12.389889496966637 33.94140672879723 191.29356870161993 0.6827640126878299
2.0174923249037664 12.337671360418884 31.360398533202577 201.6798294168121 0.7013073890180015
2.027341766127922 12.283327085454971 29.021374529845563 212.7451106151336 0.7208068874057584
2.036165561187598 12.226897668266153 26.897738149470506 224.54408396409838 0.7413303731927423
2.0439246030759373 12.168346451375418 24.967267898156283 237.13852307586933 0.7629572122142142
2.0505981250100875 12.107679957319577 23.21045957652642 250.5945030082418 0.785767681818763
2.0561808663707084 12.0449528682975 21.613560128360962 264.98550286304 0.8098514732684792
2.060650122258563 11.980168074080353 20.161096682778 280.3932592222851 0.8353086034945412
2.063978514155814 11.91332699465009 18.839619024930236 296.90671621706497 0.8622438593077252
2.066151234305589 11.84445568771739 17.635290751590304 314.6261908800017 0.8907779561669695
2.067162285152816 11.773606679565642 16.538968451400912 333.66136321914433 0.9210381536612344
