M[M_sun], R[km], Lambda[1], P_c[MeV/fm^3], rho_c[fm^-3]
0.24162668629717493 15.618656898711224 2160425.4255784233 3.5677272577965504 0.1711233750220791
0.2536440305600502 15.27726522290089 1723214.5701145572 3.7848212736164912 0.17388819383912263
0.2660400614627293 14.98125833624948 1382988.106658883 4.011404991947303 0.17666670350776298
0.27881535952161846 14.723528228988672 1116404.725780826 4.247734453189769 0.1794575865766993
0.29196981433890257 14.498407402249487 905890.1690658134 4.494434832210421 0.18226740911511627
0.3055047620247544 14.301250296236617 738696.0279980222 4.751661314028081 0.18509186916194298
0.3194213637310645 14.128144407615677 605104.6810098195 5.020096900004298 0.18793760122329856
0.33372031817965875 13.975915901419325 497670.1177228393 5.299964627269996 0.19080120840423448
0.3484008088341109 13.842028205690445 411006.43895977654 5.591994322111111 0.19368901182147205
0.36346297012623824 13.723988624572423 340649.6318122877 5.896351742362927 0.1965960463568866
0.37891670372905895 13.62000001665352 283297.4093931564 6.213901605825217 0.19953000613447494
0.3947488156692075 13.528459754824842 236415.1308117086 6.544902051233707 0.2024870823532867
0.41097435752033923 13.447867249242774 197866.0359271432 6.890054054088952 0.20547096214145902
0.4275821153996212 13.377077547049188 166081.5674296275 7.250063359940398 0.20848473086106925
0.4445772153388194 13.31494479471407 139801.39048233576 7.625190063670806 0.21152395311518574
0.46195860722939275 13.26056722081554 117983.42563588661 8.016380934630336 0.21459475627161578
0.47972321481176267 13.213156948583991 99808.90416568564 8.424342013582558 0.21769880436686853
0.4978808807674235 13.171981966202587 84646.19197540135 8.849515788192036 0.22083358877543321
0.5164182529754214 13.13640413800973 71937.02650142823 9.292772324199305 0.22400247161124814
0.5353364190427959 13.105848875784329 61275.871900277845 9.754997966047979 0.22720839450944347
0.5546446195581318 13.079815626066138 52300.502207263744 10.237002296927884 0.2304527083983025
0.574326744482353 13.057837167034272 44731.00173832728 10.739258508457295 0.23373213570373427
0.59438310268265 13.039536311534324 38329.19819709468 11.263007279010361 0.2370528140765367
0.6148199477563321 13.024502915123842 32902.11827656891 11.809188121249731 0.24041638333634702
0.6356234998404813 13.012438454984123 28291.261167513952 12.37878003881494 0.2438244764306288
0.6567942571838488 13.003016499294025 24371.176231265752 12.972474939856063 0.24727507678359145
0.678326696131404 12.99597044130393 21027.70452099622 13.59159382479457 0.25077290520878365
0.7002136382518521 12.991058370479818 18172.215332028813 14.237337135628552 0.25432063028252416
0.7224477271619454 12.988008940880956 15729.663927563644 14.910894558082171 0.2579202366214012
0.7450362419383724 12.986638091865604 13634.17471728223 15.613298530090992 0.2615716486815291
0.7679560917130318 12.98674778248463 11836.456464586143 16.345809722602137 0.2652767066888334
0.7912003432445907 12.988142917861753 10288.82729930523 17.110046799730416 0.269040128135886
0.8147755097956163 12.990665195132852 8956.463172662767 17.907464803874934 0.27286434559461087
0.8386563971669573 12.994134725200208 7807.310489265396 18.739429749554585 0.2767504465938649
0.8628376397392966 12.998398247405795 6814.757304114583 19.607284688416716 0.28069889972156353
0.8873178478724874 13.00335178830204 5955.463496039778 20.51311608181206 0.2847160712928371
0.912073250484518 13.008843981921167 5211.2237143214315 21.458718045587116 0.2888049746318547
0.9370945479590505 13.014739059011138 4565.332776524504 22.44557546076475 0.2929655376579856
0.9623772187127337 13.020943315869193 4004.680427795216 23.475712180849552 0.29720154779583624
0.9878974442348133 13.02732997598907 3516.5487364214896 24.551551235163192 0.3015191110684933
1.0136385533125212 13.03378879006809 3091.8797703770974 25.675035539990983 0.30591986384444364
1.0396037265388918 13.040243385881853 2721.4155232707494 26.848125035844422 0.31040505671512664
1.0657542819626664 13.046570504239982 2398.339137536604 28.073917058651688 0.31498342914986627
1.092086213749001 13.052701105474851 2115.8236153261687 29.354466324484495 0.3196554250975105
1.1185851410545984 13.058535038115267 1868.6750882537888 30.692528961798214 0.3244257327169306
1.1452148559725916 13.063992614876415 1652.126725187121 32.09150466050313 0.32930240884181905
1.1719780321007156 13.069003004797626 1462.0906087645735 33.553333141361264 0.3342831425685513
1.1988329506649549 13.073465863904465 1295.4689733632113 35.082557297813615 0.33938150455529775
1.225779120936633 13.077329382676687 1149.0862539613468 36.68120088309203 0.34459425964727497
1.2527743460134106 13.080491944217599 1020.1793305528521 38.35431626609377 0.34993584560768143
1.2798162359680796 13.082939481072632 906.6931178847173 40.10414101096926 0.3554028307491455
1.3068604521699039 13.084524106880071 806.7433568549151 41.936151048254395 0.36100980242225034
1.333897562354462 13.085234173066791 718.615343937683 43.85382147898032 0.3667586426452227
1.3609043581833462 13.085032587305074 640.6258324411784 45.86185258602043 0.3726571718214695
1.3878358171907963 13.08377332301664 571.8173513500989 47.96557132518987 0.37871531357618554
1.4146927159406948 13.081483222768433 510.8354683119255 50.16972585232639 0.38493867715136715
1.4414157019756293 13.078032935517285 456.88404110565773 52.479551516701996 0.3913343156995694
1.4680097027042491 13.073434959583986 409.00947694681184 54.90145606296481 0.39791387822672314
1.4944189206159166 13.067571291312085 366.53131461913324 57.4416286313819 0.4046864245358245
1.5206308836378408 13.060425531941672 328.8401677715764 60.1066964061767 0.4116617244170501
1.5466143580087313 13.051940338264789 295.2927918527227 62.90376404825624 0.41885031610458073
1.5723305389919435 13.042060058070845 265.47144195478097 65.8404569032756 0.42626356950578764
1.597754561866654 13.03073384165528 238.92201042178743 68.92496836828838 0.4339137547613788
1.622840543027567 13.017915290060312 215.24140810123117 72.16611184787521 0.44181411676350985
1.64759335007987 13.00357589172498 194.09883148346017 75.57337778466378 0.4499789563346554
1.6719429164184265 12.987641772822283 175.23570190676637 79.15670347575934 0.45842249598793566
1.695879442821432 12.970096466254901 158.3623448328953 82.92627834789928 0.4671580003208613
1.7193597876337732 12.95088498270602 143.27864815947697 86.89483910219171 0.4762070197662728
1.7423457869967296 12.929945540516732 129.77941417086407 91.07397038962814 0.4855839265295012
1.76482535645903 12.90730084960996 117.68166175915835 95.47774436245884 0.4953105751050852
1.786751906520768 12.882863879681901 106.82470212712902 100.11984571476324 0.5054045561051227
1.808090652548324 12.856613427918699 97.08530439760446 105.01678962513536 0.5158915337708446
1.828801348044577 12.828479193320582 88.33203461729643 110.18511545622415 0.5267940430018075
1.8488817692516695 12.798516434544728 80.46737766169097 115.64244794585575 0.5381354386120117
1.8682584682381298 12.766579813416252 73.39022303187966 121.40900432070855 0.5499450884945903
1.8869386251513685 12.732761209885375 67.01103378514021 127.50619994356997 0.5622527687294815
1.9048606957407044 12.696949233825443 61.25663441034393 133.9564761901737 0.5750877845878363
1.92200398822763 12.65913418862486 56.07566805196759 140.78549842956042 0.5884863759626087
1.938318097072636 12.619251465252662 51.39316104007972 148.02095455266763 0.6024868523428417
1.9538163816025114 12.57740808518418 47.16348482288094 155.6913613610348 0.6171250462132721
1.9684327461690059 12.533481333339779 43.34129728224484 163.83034044941033 0.6324484776574633
1.9821489168785218 12.487485961486112 39.87951028823374 172.47164759170988 0.6484986575159033
1.9949390863345298 12.439414644131 36.745916292404324 181.65459756380596 0.665328847212812
2.006776462650649 12.389256982212938 33.90350231295784 191.4211741235144 0.6829934104851664
2.0176250069818784 12.336986995917776 31.328492979800295 201.81740556330885 0.7015515731072655
2.027462071130946 12.282604982655956 28.991523990376685 212.89324770971166 0.7210660443899619
2.0362737753557965 12.226143842219802 26.870361000328174 224.7041527747544 0.7416070559426592
2.0440200171755483 12.167553072922987 24.94323496837513 237.31130324670633 0.7632518182773481
2.0506819618147496 12.106850835233997 23.188581667088716 250.78154282560405 0.7860828713590073
2.056254428442817 12.044109399192132 21.593184422430863 265.18797047095103 0.8101883911311633
2.060704146667293 11.979266600136553 20.14290185542934 280.61230867176903 0.8356680325297169
2.064010713119117 11.912372756013601 18.821837224869853 297.1442746537299 0.8626287465411079
2.066173399769169 11.84347615987639 17.619192696328994 314.8842496558197 0.8911910575107994
2.067168256781631 11.772590035168953 16.52412322453245 333.94162392575305 0.9214808030602556
