M[M_sun], R[km], Lambda[1], P_c[MeV/fm^3], rho_c[fm^-3]
0.24162668629717493 15.618656898711224 2160425.4255784233 3.5677272577965504 0.1711233750220791
0.25364445510708283 15.277255200449593 1723279.5406040594 3.7848282008799443 0.17388828018411975
0.26604095237101993 14.981255346591178 1383048.3967546723 4.011419554481781 0.17666687948739793
0.27881684438815046 14.723476148411244 1116436.4747639268 4.2477571437139074 0.1794578497525854
0.2919707901523925 14.498382424814581 905849.7548568471 4.494466246187797 0.18226775891704516
0.3055077292694979 14.301172422450575 738626.0494183557 4.75170251816255 0.1850923142452345
0.3194239662211188 14.12811276476988 605113.3897161016 5.020148197864379 0.18793813345839605
0.33372328293198467 13.975929007777527 497664.0029265532 5.300027369449303 0.190801840113872
0.34840453658380766 13.841997815796898 410988.35105911974 5.592068665310916 0.19368973111238127
0.3634682448248963 13.723944362786233 340647.71339935827 5.896439356877627 0.19659686925094985
0.3789223542262405 13.619965209635442 283289.708863399 6.214003551982267 0.19953093576067607
0.39475487065193143 13.5284268785873 236391.29490333155 6.545018223236257 0.20248810102480838
0.41098027199496495 13.447863259970957 197858.0779802445 6.890186694720278 0.20547209176473588
0.4275902516749944 13.377033383126575 166072.84149554122 7.250213713962182 0.20848597470135902
0.4445847051450464 13.31490065147434 139790.2501981142 7.625357715565661 0.21152528773206858
0.46196690950380964 13.260549887727137 117975.99552929934 8.01656880876304 0.21459620962992199
0.47973213796975256 13.213130483795023 99801.78482800105 8.424551575059192 0.21770037997621125
0.49789001560424856 13.171973413524675 84636.14657787936 8.849746264364523 0.2208352575213969
0.5164289492653754 13.136388694195917 71932.46705054231 9.293027445039957 0.22400426767787127
0.5353479874690233 13.105833036624599 61270.64450740839 9.755279461451535 0.2272103217759804
0.5546562154203704 13.07978954353809 52302.49317784041 10.237312001909622 0.23045477091266459
0.5743395065361371 13.057825070873612 44726.74458691944 10.73959507736873 0.23373429658040168
0.5943966352737312 13.03951265028545 38321.61990120211 11.263375773573076 0.23705511643723293
0.6148340488715311 13.024495480241011 32897.87235656278 11.809590718492695 0.2404188317993029
0.6356398207057659 13.012425512538787 28289.239098403927 12.379219051592381 0.2438270758578601
0.6568111175895427 13.003020628839195 24368.325684378913 12.972948352142692 0.24727778261408997
0.6783436421055161 12.995978145096053 21025.872090632507 13.592108359448398 0.25077576999988405
0.700232627875828 12.99105431389161 18170.207533654415 14.237895551680532 0.2543236597168596
0.7224644476167001 12.988012010335048 15727.262213418444 14.911499791843703 0.257923436720443
0.745056268667109 12.986654353543665 13632.659015288438 15.613947801053063 0.26157496732400876
0.7679776351249058 12.986761401457285 11835.154136007492 16.346511823659522 0.2652802064865114
0.7912240955025388 12.988143188317503 10287.703046043784 17.11080525481804 0.26904381624614265
0.8147997734730422 12.990666728885232 8955.290538005913 17.908283370570086 0.27286822963504903
0.8386825925146363 12.994131261051436 7806.41464419987 18.74030479710284 0.27675446698458733
0.8628637102511307 12.998401565348438 6813.256972314989 19.608227595115572 0.28070312994926117
0.8873463790955833 13.00335331148373 5954.571845562141 20.514131386154435 0.28472052051389085
0.9121018045351027 13.008857439697923 5210.376636807076 21.459810596864028 0.28880965262003383
0.9371233429140463 13.014744974712137 4564.664726365705 22.446740707669754 0.292970377430238
0.9624076127185562 13.020958424574685 4003.965204418412 23.476964747141285 0.29720663483972065
0.9879282427415734 13.027337317021288 3516.0797309806935 24.55289701695079 0.3015244572206628
1.0136714299350427 13.033801584272409 3091.6156541492423 25.676469327755797 0.30592539710755995
1.0396379121921455 13.040251675220485 2720.984439581967 26.849664358842762 0.31041087200022915
1.0657889464571078 13.046583083556673 2397.8659409855727 28.075569122881504 0.31498954085382497
1.0921214050516592 13.052705162087245 2115.364693579013 29.356225274515015 0.31966175623761955
1.1186202815323214 13.058547048070425 1868.3525154547933 30.69441579882229 0.324432388656797
1.1452518042978372 13.063999432547845 1651.8303039583882 32.09351322602958 0.32930931007513214
1.1720158420458466 13.06901472277222 1461.828042413269 33.555486996884945 0.3342904012837379
1.198873221195871 13.073465869888613 1295.2046316862727 35.08486660971653 0.3393891408237048
1.2258195084506962 13.07733761659943 1148.8883346409525 36.683658949640225 0.34460218898945894
1.2528153205844301 13.080499298198706 1019.9568202103388 38.35693306328241 0.34994408565116514
1.2798595548050233 13.082936882037048 906.575521808937 40.10694628309532 0.3554115093239227
1.3069028928380086 13.084525015909074 806.6194327117914 41.93913808489542 0.3610188326865502
1.333940883122431 13.085236631460445 718.462080038645 43.857023771660735 0.36676816151517266
1.3609502462101242 13.085033426084745 640.5208041467871 45.865263424548544 0.3726670900765819
1.3878816764595836 13.083774777792966 571.6984994275036 47.96920527906589 0.3787256569819825
1.4147381138719513 13.081482300742815 510.7247549262543 50.173622771351965 0.38494959674792617
1.4414626602040201 13.078025418965229 456.8058304752272 52.48370521430963 0.39134572019694397
1.4680571825594018 13.07342582743779 408.9417549128309 54.90588493232401 0.3979257999465233
1.4944667854021862 13.067559719091754 366.4568318897604 57.446352555585165 0.4046988982983745
1.5206782974463766 13.060414349162105 328.7812179022796 60.1117368916414 0.41167478774659544
1.5466629198852222 13.051922785061743 295.234812956973 62.90914437143876 0.4188640094548349
1.572379642172092 13.042040111625475 265.41991116356957 65.84620227217894 0.426277936507998
1.5978033729561882 13.03071045819149 238.87638425839907 68.93110610042686 0.4339288424973513
1.6228904703646034 13.017886876404237 215.18988600839523 72.17267156656311 0.4418299760663225
1.6476425399711838 13.003544909785267 194.06486729358286 75.58039163572721 0.44999564212011883
1.6719919997074244 12.987611187589316 175.19421555022697 79.16416974067455 0.45843991469856327
1.6959286562760922 12.970055962168964 158.3347828500935 82.93426987635273 0.4671763648299722
1.7194091109453031 12.950842806981768 143.2526847155575 86.9033970350104 0.47622639927352406
1.7423919443292566 12.929900747077642 129.7624101826387 91.08309828889138 0.48560423274550296
1.764873006795724 12.907250593989847 117.65898934483927 95.48753016623607 0.49533204734363623
1.7867996741606111 12.882812234869917 106.8081268934368 100.13029794400975 0.5054271115623795
1.808138115566515 12.856552146656055 97.06606419070913 105.02796248321053 0.5159152593583866
1.8288473798555789 12.828414715146174 88.31350658254233 110.19706806606641 0.5268190327295007
1.848926443607793 12.798444852378855 80.44723619727178 115.65529368711783 0.5381619734807347
1.8683018176460267 12.766503273951917 73.373234139402 121.42276656647033 0.5499731033836609
1.886980720726856 12.732680603034932 66.99660813489595 127.52092539154778 0.5622822747230884
1.9049034106701908 12.696861740838163 61.24464402135607 133.97225629607337 0.5751189394165617
1.9220440326028463 12.659042157988692 56.06347781222869 140.80244748286108 0.5885193991638377
1.9383567636981496 12.61915077263975 51.38046938880605 148.03917405914004 0.6025218984700184
1.9538523507038144 12.577303759781254 47.15482391072564 155.71090279322704 0.6171620791834014
1.9684681025678112 12.533369002226683 43.332193456628474 163.8513222352504 0.6324876718077833
1.9821818286069748 12.487366516540034 39.871844671390924 172.49426293560083 0.6485404142756874
1.9949710559412057 12.439286447253489 36.73696661522192 181.6789284528168 0.6653731662645122
2.0068055278300396 12.389125049031326 33.89663240697574 191.44737856972299 0.6830405185323907
2.0176514163501165 12.33684647524406 31.32149355527532 201.84565787313812 0.7016017181703518
2.0274872431557553 12.282458857671376 28.98697312625855 212.92366912128907 0.7211192648294613
2.0362958603228805 12.225989686669779 26.864401494196972 224.7370248862464 0.7416638761699471
2.041963920783725 12.172408109248293 25.21607401317931 238.25088568230356 1.4497335878766835
