M[M_sun], R[km], Lambda[1], P_c[MeV/fm^3], rho_c[fm^-3]
0.24162668629717493 15.618656898711224 2160425.4255784233 3.5677272577965504 0.1711233750220791
0.25363928063312763 15.277435914621847 1723266.8697176434 3.784752859112542 0.17388734108533513
0.26603198328064526 14.981451370175426 1383129.446005464 4.011261172600899 0.17666496553583808
0.27880272005147394 14.723758550064712 1116599.8851248338 4.2475103650104495 0.17945498749151287
0.2919535777158534 14.498671370287324 906164.849196525 4.494124596652615 0.1822639545701782
0.3054842360119376 14.301500238570107 738882.6246381087 4.751254399132244 0.1850874737044592
0.3193957662280616 14.128426866216742 605269.5884792929 5.019590310128933 0.1879323451578159
0.333688722154357 13.976237387073814 497868.8357708518 5.299345027640231 0.19079497006406446
0.3483644542200978 13.842284005307489 411176.1013028704 5.591260167588754 0.1936819086745093
0.36341972096936653 13.724325818470408 340812.0386708691 5.895486541962452 0.1965879202116294
0.378868039322242 13.620316593288095 283464.3374811538 6.2128948921314 0.19952082611774952
0.3946943440079403 13.528754563906 236546.51024230832 6.543754871312489 0.20247702313514176
0.41091346443946375 13.448144420698142 197998.90029867872 6.888744265462126 0.2054598074318815
0.42751398558765574 13.377353535450345 166211.5732140124 7.248578675045436 0.20847244844342536
0.44450299494063106 13.315194697511812 139908.92528339036 7.623534587715153 0.21151077446211117
0.46187720852669323 13.260802466753084 118074.02364047022 8.014525797172281 0.21458040528356354
0.47963456190412423 13.213377361293515 99892.29795818609 8.422272752571798 0.21768324641684145
0.49778363414117743 13.172188793209585 84713.5765205615 8.847240034702095 0.22081711134781137
0.5163143172887582 13.136584322377985 72010.55964788793 9.290253256084279 0.22398473721467277
0.5352249198438248 13.106003047366036 61332.1986683524 9.752218508232882 0.22718936486998856
0.5545232823959494 13.079974300144421 52353.771242000585 10.233944337000636 0.23043234357810108
0.5741948797468698 13.0579631062376 44774.50691711992 10.735935333937366 0.23371079989392568
0.5942466485377649 13.039674599514223 38366.39655500102 11.259368923759986 0.2370300815670916
0.6146733719399742 13.024597335661806 32937.90224856055 11.805213097880127 0.24039220856207977
0.6354661645310999 13.012502524395849 28325.037832639904 12.37444551966103 0.2437988114210843
0.6566290647836842 13.00307988344471 24400.874938843794 12.967800829301314 0.24724836148436974
0.6781509537651114 12.996034623271756 21052.989720017198 13.586513763126193 0.25074462078644405
0.7000297319027345 12.991084822430732 18194.80010141133 14.23182389251881 0.25429072066957986
0.7222539435730932 12.988024912947031 15748.564130642604 14.904919153942673 0.25788864240727
0.7448315565520913 12.986648945458693 13651.600561304427 15.606888414105677 0.2615388844206102
0.7677412917467048 12.986747838544307 11850.643606343792 16.338878107775955 0.2652421543274339
0.790976739491518 12.988117412212514 10302.560694676504 17.10255890835988 0.26900371705576387
0.814539199544923 12.990643794127557 8969.227458095853 17.89938355298034 0.27282600063695317
0.838411581341675 12.994093934586694 7818.03120019955 18.73079097847661 0.2767107559105818
0.8625827888935016 12.998354299714263 6824.282156638029 19.597976099290854 0.28065713795277575
0.8870454829538789 13.0033045176462 5964.147459806514 20.503092886732492 0.2846721480978775
0.9117970287935414 13.008786326010517 5218.734831667518 21.447932390272985 0.28875879357918505
0.9368055210823197 13.014667299638896 4572.118275095975 22.434072267323916 0.29291775994135755
0.9620737259702286 13.020868901838373 4010.8054052040698 23.46334713018938 0.29715132965109076
0.9875878023994986 13.027253360226368 3522.0636111000968 24.538266145155543 0.3014663357126212
1.0133233091412484 13.033719591654704 3096.9514199340824 25.660881826072085 0.30586524193657916
1.0392712118232372 13.0401670938433 2725.8514402604037 26.832929714111863 0.3103476515258357
1.0654160959737506 13.04650411763769 2402.147747293943 28.057609024303797 0.3149230986395366
1.0917347430329685 13.05262341135207 2119.2346683850624 29.33710336411359 0.3195929291010872
1.1182222644894046 13.058464672015322 1871.7688410727303 30.6739038404801 0.3243600313946032
1.1448445483190859 13.063917761040415 1654.8992748664436 32.07163577081843 0.32923401274743996
1.1715962174247803 13.068939908094034 1464.5985685351654 33.53207275695306 0.3342114928810583
1.198446658105983 13.073413257421993 1297.678045367618 35.05976272794543 0.3393061290923655
1.2253792763623668 13.07727496237459 1151.10852006134 36.65693825946103 0.34451599217921475
1.2523649131019443 13.080454152469532 1022.0247412624095 38.32831449086183 0.34985349917767944
1.2793981210904084 13.0829043952887 908.388117565354 40.076451937591294 0.35531717000643587
1.3064339903991768 13.084508804973689 808.2544369786382 41.90666822451563 0.3609206713794598
1.3334610104237161 13.085231265534999 719.8816558710467 43.82221446761182 0.3666646902614929
1.3604629991991017 13.085045974510255 641.8537516663346 45.828187595109526 0.37255927860094395
1.3873863488633242 13.08380390684704 572.8826472309938 47.9297046111524 0.3786132253300077
1.4142356492959847 13.081532592064441 511.8058789405036 50.13126426854991 0.3848309035550713
1.4409605822387623 13.07811844627444 457.75401398805786 52.438556100766 0.3912217576470642
1.4675405653724332 13.073529710425232 409.8043683222643 54.85774535710586 0.39779621686774985
1.4939476680972141 13.067684301163851 367.2675835326144 57.39500648273522 0.4045633163768519
1.5201544670251588 13.060570778676668 329.4858158708022 60.0569506514036 0.4115327992981045
1.546134376181412 13.052110356918647 295.886667106186 62.850665066954704 0.4187151749756121
1.571847995931026 13.042260743830848 265.99987364338887 65.783756025564 0.42612178198106726
1.5972640480311022 13.030958417812796 239.39611668892962 68.86439612017618 0.4337648564278967
1.6223556332938756 13.018181538809513 215.67597019899029 72.1013760160207 0.44165760621647915
1.6471068352275 13.003874793377477 194.49812404604083 75.50416127983783 0.449814291909989
1.6714607225788856 12.987981235570057 175.59541151817828 79.08295480636222 0.45825031502428154
1.6953961206691919 12.970474342369064 158.70198754549355 82.84741579918897 0.46697677441361
1.7188601017009097 12.951265415852518 143.59061335526727 86.81038846064688 0.47601578061367994
1.7418763845107192 12.930428267128148 130.0570013031677 90.9838964967638 0.4853835452728862
1.7643560531042883 12.907816358175545 117.9292933038803 95.38117989206748 0.49509869109524807
1.7862843189230244 12.883416246865027 107.04916641123586 100.01670659737829 0.50518198636437
1.8076265586222926 12.857202213142566 97.2881007815671 104.9065412547865 0.5156574211253192
1.8283572652948463 12.829152634693 88.51967138853533 110.06680591498747 0.5265460874305246
1.848435956175007 12.799211161045235 80.63586580669092 115.51569670092354 0.5378736142784739
1.8678326538445769 12.76736318121555 73.53489579626103 121.27321202621363 0.5496686651453231
1.8865135922730358 12.733574231869296 67.14994715261595 127.36060455360646 0.5619605599435508
1.9044486285069662 12.697811534240323 61.383769493333915 133.80077874885333 0.5747803894950434
1.9215876880377052 12.65999930483614 56.19330618283929 140.61827042175597 0.5881605522098082
1.9379407027971298 12.62026237499313 51.501399825148305 147.84119502013033 0.6021410759384117
1.9534427385686104 12.578449300885246 47.265929415688085 155.49856266014336 0.6167596733756608
1.968082440099816 12.53459501323957 43.433427385321934 163.62288231693313 0.632060257604049
1.981817713666016 12.488667124714569 39.96145981803217 172.24852995337812 0.6480866951919017
1.9946250133343388 12.440658115669972 36.82190164659508 181.4145594749513 0.6648916145056466
2.0064797036842936 12.39055819536035 33.97474327874658 191.16265759429473 0.6825286722201488
2.0173630422433506 12.338390376867588 31.396233552129537 201.5386919992116 0.7010568840238188
2.0272164958648276 12.284062719848635 29.05127329510907 212.59314164768904 0.7205410267892287
2.0360404559944305 12.227637065899252 26.92413870334319 224.37987803958526 0.7410465393430328
2.043825514995276 12.169159574265004 24.99131138387627 236.9612807779304 0.7626549978144734
2.0505140873317322 12.10853565152027 23.234950398436713 250.402560443196 0.7854441100405823
2.0561110928105375 12.045841200331548 21.636259252414895 264.77781552863655 0.809505869477652
2.060594747390772 11.981094814049742 20.18188056910634 280.1682490713587 0.8349388766515402
2.0639394661640185 11.91429622002986 18.856985869534757 296.6630442020676 0.8618490669820061
2.066128402730781 11.84546305680975 17.652002248678432 314.3614973754348 0.8903542339273635
2.0671552914056672 11.774657797358255 16.55410422493294 333.3739038470347 0.9205841345450799
