M[M_sun], R[km], Lambda[1], P_c[MeV/fm^3], rho_c[fm^-3]
0.24162668629717493 15.618656898711224 2160425.4255784233 3.5677272577965504 0.1711233750220791
0.25363678796299527 15.27745169339826 1723379.6267058416 3.7846868707182093 0.17388651857183363
0.26602356098850033 14.981642940239563 1383370.8259365207 4.011122456859232 0.17666328923796445
0.27879205933410556 14.723931039496533 1116895.6294660945 4.247294234132559 0.17945248069903164
0.2919364969501213 14.498965119485375 906372.5581634467 4.493825384558659 0.1822606227740685
0.3054635213480035 14.301770363538688 739078.5994149589 4.750861952401981 0.1850832345307765
0.31937111069443014 14.128708046930923 605483.7106726486 5.019101743546738 0.18792727609095625
0.3336583008898051 13.976546888541655 498086.3930038295 5.298747485936594 0.1907889538106098
0.3483287306595217 13.842632506445337 411376.4699542521 5.590552164654986 0.19367505855136022
0.36338028976891207 13.72462136892529 336044.77792116144 5.8946521802964185 0.19658008371029226
0.3788220405287272 13.620585582010323 283615.2717555855 6.2119240832682285 0.19951197350984737
0.39464217920493866 13.529030368267385 236698.02553019687 6.542648628975474 0.20246732288430636
0.41085399690643426 13.448425835240995 198122.7057109164 6.8874812453301155 0.20544905102243147
0.42745086999365334 13.377560812890358 166311.86592833535 7.24714703536901 0.2084606048552801
0.4444311550144978 13.315424032347401 140012.51627385782 7.62193829071345 0.21149806691156203
0.4617991836782336 13.261044499171465 118162.07634200019 8.012737015026484 0.21456656760749754
0.47954929673020247 13.213581062337692 99973.18001115324 8.420277549010407 0.2176682452753032
0.49769057424794666 13.172388385144426 84785.92336467437 8.845045770711 0.220801223938979
0.5162130162030872 13.13676707758904 72068.51534492751 9.287824441989262 0.22396763821202492
0.535117808969442 13.106147149036905 61389.10994069317 9.749538690943597 0.22717101742231616
0.5544073104044568 13.080120800108471 52403.31859217996 10.230996064330112 0.2304127092322403
0.5740696524465925 13.058107040681792 44819.150207440616 10.732731418296176 0.2336902297630604
0.5941158463254337 13.039749288772386 38405.61709081585 11.255861212254661 0.2370081653221297
0.6145321955109492 13.0246854042427 32692.093844251373 11.8013808878307 0.24036890233107797
0.6353160470756808 13.01259904692277 28355.548960655477 12.37026681761725 0.243774069016211
0.6564655198528527 13.003129259628055 24429.40851956631 12.963294823252799 0.24722260700157117
0.6779833134865181 12.9960701314002 21078.02290013165 13.58161650860354 0.25071735418531493
0.6998522861442837 12.991129872208823 18215.9255884101 14.226509156124449 0.2542618879652547
0.7220665329879274 12.988038169254985 15767.963585907713 14.899159017770904 0.2578581863960301
0.7446340199920267 12.986664605727793 13667.859355765991 15.600709334221827 0.2615073010629896
0.7675351403930459 12.986738033662041 11866.086425649026 16.332196465446845 0.26520884801623706
0.7907604395588513 12.988093745042045 10316.040140443214 17.09534120233296 0.26896861979547526
0.8143119559322614 12.990610495987589 8980.648388331247 17.891594062264218 0.27278904006048044
0.8381743049836387 12.994064281786919 7828.3967513714815 18.72246423977522 0.27667249885461925
0.8623360753232041 12.998307816125147 6833.661860818391 19.589003927002015 0.2806168854741687
0.8867903922756428 13.003234667856685 5972.416510236241 20.493432141046494 0.28462981321235914
0.911529063298218 13.00871618528588 5226.479108523655 21.437536979079837 0.2887142834388318
0.936528411104657 13.014608540008961 4579.169305073485 22.422985473014904 0.2928717117096613
0.9617859566999718 13.020787778740768 4016.706527368979 23.451429935338133 0.2971029303818562
0.9872898573036883 13.027181269081241 3527.4419695784163 24.525462514362797 0.3014154729656506
1.0130131453593079 13.033634657887237 3101.6873904651775 25.647241292320594 0.3058126004898137
1.0389536568793223 13.040087451075557 2730.120505356201 26.81828566364248 0.3102923289401099
1.065088566685599 13.046420883299733 2405.951389300126 28.041892981273353 0.3148649581625077
1.0913953597431079 13.052551301093699 2122.7226018006595 29.32037099306169 0.31953270283902857
1.1178734237909709 13.058384584503848 1874.7585923162121 30.655955556957185 0.32429671766145635
1.1444894113894377 13.06385770529165 1657.5842882821055 32.05238745726911 0.3291674445914081
1.1712275728269246 13.068879002987606 1467.0626758085866 33.511585832184686 0.3341424498322985
1.1980690363142628 13.073354681122938 1299.957967937001 35.03779794941062 0.33923349752441584
1.224992336855943 13.077235304588323 1153.0585577071104 36.63355931837734 0.3444405753342611
1.2519754623499393 13.080425528475788 1023.7807525770656 38.3032526703931 0.3497741088245318
1.2789947634094732 13.082876984061269 909.9438602296965 40.049772515734915 0.3552346327882312
1.306022370151781 13.084482512373583 809.6665072051602 41.878261031057775 0.3608347921299658
1.3330421468340086 13.085230922959553 721.1918904198445 43.79176134881579 0.3665741678432378
1.3600359426116406 13.085054246970785 643.0430064119768 45.79575230360164 0.37246496117924033
1.3869539124461945 13.08384178047885 573.9159313526012 47.89514875264241 0.37851486820181446
1.4137881413368596 13.081561833213657 512.7561418845753 50.09420935110124 0.38472707159284386
1.4405171520222866 13.078186490344464 458.6228586665916 52.399060891345435 0.3911133185995715
1.467087357118613 13.073603785004398 410.60367799196337 54.81563516856441 0.39768286381354856
1.4934927617068703 13.06779554269201 367.9617960064658 57.350092487535456 0.404444718684089
1.5196954319550333 13.06071283379221 330.10618072526114 60.00902861654037 0.41140860067908586
1.545670727852201 13.052273081620662 296.44937734220173 62.79951396273893 0.41858499134868987
1.5713820647152767 13.042453075118118 266.5415027338966 65.7291364942339 0.4259851991191921
1.5967955690806888 13.031179028953956 239.84730817833022 68.80604878859187 0.43362142737074927
1.6218889276046928 13.018425470840961 216.10320911548175 72.03901963476666 0.44150684842035076
1.6466276335750307 13.00415791937313 194.8653411969149 75.43749066886423 0.449655684106464
1.670993031654993 12.98830639161329 175.94423694377662 79.01163858481219 0.4580832937552556
1.6949244671556771 12.97083359756228 159.01485148310022 82.77145773680105 0.4668022230074684
1.7184137253713756 12.951702148082727 143.86187246496502 86.72905041103333 0.47583158995038705
1.7414146867223623 12.930867797370414 130.31774961916904 90.89714458428996 0.485190554199863
1.7638985733116168 12.908298670304891 118.16661493965307 95.28817954164239 0.4948946275604463
1.785832191462342 12.883942859294772 107.26526884693308 99.91737686588611 0.5049676371131082
1.807170059355945 12.85775456876855 97.48726875531749 104.80036771905549 0.515431961399646
1.8279191919726518 12.829773526486523 88.69773144711205 109.95277897852398 0.5263069548792962
1.8479946134055092 12.799856217374261 80.80039886957863 115.39363768062147 0.5376214824618596
1.867411402040351 12.768087372619332 73.68657196574381 121.14245053942996 0.5494024826769704
1.88610390314903 12.734350841533251 67.28622229318367 127.22040746308355 0.5616791855015235
1.9040333202623554 12.69858307338401 61.513475335125456 133.65060426779877 0.5744835029889248
1.9212084024880072 12.660917719817743 56.308214852975375 140.45725255769642 0.5878468281786212
1.9375689779929657 12.621212432747852 51.605318922974746 147.66811686287994 0.6018081514917654
1.9530843258987105 12.57944272937904 47.35604557935168 155.31293577946815 0.6164078918552686
1.9677387576614065 12.535657235981372 43.52126075939653 163.42300104727875 0.631685993112838
1.9814988432247425 12.489809438225086 40.04226153906419 172.03372695499334 0.6476900849414581
1.9943385135892304 12.441898385838822 36.89340467802295 181.18347466970621 0.6644706903287205
2.0061981910556135 12.391823982833435 34.042072532756926 190.91379263106148 0.682081284691058
2.017089653641935 12.339687336456038 31.45465717864286 201.2703941671664 0.7005806818373373
2.0269761441068925 12.285457824914827 29.1080936753521 212.30361953400998 0.7200335444834273
2.035828701146054 12.229113540988665 26.975280416287756 224.06774557578484 0.7405070109485337
2.0436326908148534 12.170721988483798 25.039656508045343 235.85318332879345 0.760717724044502
2.049968211190681 12.1108605166329 23.321749172965756 250.18260583031906 0.9064665553589003
2.0543155542167373 12.049340180431896 21.83090551362406 264.9548850735403 1.0525977279271734
2.0565525430917853 11.985541327114362 20.535578782518154 281.07452456456707 1.2098147634184861
2.056635234351279 11.919127925888171 19.40872454931869 298.69115534228206 1.3793395994349247
