M[M_sun], R[km], Lambda[1], P_c[MeV/fm^3], rho_c[fm^-3]
0.24162668629717493 15.618656898711224 2160425.4255784233 3.5677272577965504 0.1711233750220791
0.2536444451698805 15.277260112255076 1723218.171384439 3.7848272361440802 0.1738882681591526
0.26604081005171953 14.981233169228352 1382973.5743501398 4.011417526406021 0.17666685497929926
0.27881712211863935 14.723455981437022 1116398.0468450007 4.24775398367665 0.1794578131009153
0.29197139358518864 14.498372120588398 905877.7909123502 4.4944618712583 0.18226771020118984
0.3055083816641586 14.301153954703578 738660.0482735581 4.75169677978141 0.18509225225976633
0.31942452438710617 14.128100082260131 605084.81266694 5.020141053751928 0.18793805933547197
0.3337242684444933 13.9758484999182 497651.1166038952 5.300018631508791 0.1908017521373099
0.34840401791972053 13.842002192246145 410991.076758563 5.5920583117163325 0.19368963093850552
0.3634668157827968 13.723969607877416 340630.6631408078 5.896427155007256 0.19659675464840115
0.3789215503977767 13.619973397362237 283291.47414700576 6.213989354162962 0.1995308062936593
0.3947524665488775 13.528446852719654 236390.22455992224 6.545002044199521 0.202487959156513
0.41097944172513196 13.44786964333203 197857.74548514842 6.890168222113082 0.20547193444426126
0.4275880022391842 13.377033090721843 166064.0261140558 7.250192774424379 0.20848580147392912
0.4445837941451257 13.314921632976159 139797.73560803657 7.625334366963223 0.21152510186218007
0.46196564432516385 13.26055146910709 117976.15820323316 8.016542643817662 0.21459600722291602
0.47973127245232056 13.213139673433854 99804.69617332949 8.424522389722213 0.2177001605432775
0.49788909670916726 13.171995736398184 84638.49625465933 8.84971416623965 0.22083502511725836
0.516428157798329 13.136385787815982 71932.39277689245 9.292991914649587 0.22400401754170798
0.5353480475407053 13.105823091522922 61272.06825528836 9.755240257868575 0.2272100533674998
0.5546544362115305 13.07981122829637 52300.55194650823 10.237268869566247 0.2304544836680837
0.5743373666473814 13.057850318379149 44725.85883220857 10.739548203671243 0.23373399563674416
0.5943948872389447 13.0395134642104 37989.088982497284 11.263324453566277 0.23705479578890173
0.6148324817227573 13.024493865537298 32899.22465804886 11.809534648974578 0.24041849080308283
0.6356383455962002 13.012429994710516 28289.704369340892 12.379157910443764 0.24382671383658228
0.6568088096474518 13.003023521402346 24368.681888708143 12.972882420135255 0.24727740577377216
0.6783412711191968 12.995972585668467 21025.89043956251 13.592036700272827 0.2507753710207931
0.7002303789057884 12.991065317765623 18170.850069681448 14.237817781075881 0.2543232378075338
0.722464194382752 12.98800423525866 15728.045409094553 14.91141550085802 0.25792299104222793
0.7450530553927048 12.98665456307226 13632.384697343836 15.613857376930989 0.26157450513587743
0.7679750044749323 12.986752243729498 11753.73033513227 16.34641404178629 0.2652797190683979
0.7912208995056025 12.988131250110536 10287.706050306902 17.11069962439951 0.2690433026011868
0.8147943782326951 12.990672252628913 8955.142232975164 17.90816936827104 0.2728676887022916
0.8386795619229362 12.994132901670381 7806.612951817664 18.74018292858638 0.2767539070618107
0.8628612908967496 12.998403441326111 6813.526730241661 19.608096275681422 0.280702540801779
0.8873412589651333 13.003356318269917 5954.533668218319 20.51398998370359 0.2847199008664264
0.9120983009036604 13.008857696296714 5210.670427031374 21.459658436010358 0.28880900111132224
0.9371185830087483 13.014739405018672 4564.688499642887 22.4465784222881 0.2929697033891539
0.9624035191053726 13.020965292467748 4004.1203873089885 23.47679030051223 0.29720592636012694
0.9879249200977037 13.027340716661014 3516.184103350135 24.55270958788961 0.3015237126539795
1.0136672651961929 13.033797551452267 3091.674989988332 25.676269641812418 0.3059246264810471
1.0396323679014152 13.040254766311524 2721.111961076716 26.849449974625454 0.31041006209526023
1.0657831466804137 13.046579143414313 2397.85281883215 28.07533903676622 0.3149886896652354
1.09211659449218 13.05270667195797 2115.5337906949126 29.355980302014544 0.31966087448703173
1.1186143642386872 13.058548071489911 1868.3162754183052 30.69415301497768 0.32443146166975717
1.145247199463805 13.063995817932646 1651.8955512590699 32.09323348856503 0.329308348924757
1.1720108325462004 13.069017241656733 1461.8786858454057 33.555187024243985 0.3342893903450094
1.1988683744230777 13.073471658337217 1295.2697640653578 35.08454498595535 0.339388077301119
1.2258137135088476 13.077335358709584 1148.902851841494 36.683316608147784 0.34460108464879763
1.2528107047043773 13.080500118818213 1019.9909521568347 38.35656861463426 0.3499429380373105
1.2798542259850387 13.08293534791615 906.5904463105937 40.10655558459296 0.35541030063328033
1.3068970056704206 13.084527514787185 806.6210875138108 41.93872207114265 0.36101757501394977
1.3339358128070105 13.085234548600173 718.506016468247 43.856577778042094 0.36676683579148717
1.3609437903072235 13.085032486584668 640.5388091874128 45.86478838563889 0.37266570872796173
1.3878756735492213 13.083775505956698 571.7157118089691 47.968699165657945 0.37872421641984655
1.4147329113663671 13.081480936594597 510.7402686447105 50.1730800332392 0.38494807593592323
1.441456101313821 13.078026918564305 456.8061054879135 52.483126713142674 0.3913441318494852
1.4680505537841806 13.073427017942759 408.95252604420773 54.90526810633192 0.3979241395618863
1.4944601186863444 13.06756102131575 366.4676742865444 57.44569463547876 0.40469716102681147
1.520672666349056 13.060414534555147 328.7848714628983 60.11103488203243 0.4116729683617504
1.5466561614870393 13.051925786669814 295.24450990191116 62.908395030404996 0.41886210232232873
1.5723720899564302 13.042044301109245 265.42330610880333 65.84540208876838 0.42627593555087556
1.5977974550922915 13.030713444168182 238.88931841779512 68.93025126987028 0.433926741158054
1.6228833748964653 13.017889314744671 215.19627483956504 72.17175796293347 0.44182776726480183
1.6476353933942012 13.003549128628405 194.06152124351343 75.57941478175502 0.4499933182076688
1.6719849146085133 12.987616034511905 175.1975292893626 79.1631298757378 0.4584374887055626
1.695921888055097 12.97006320278793 158.34268668355222 82.93315685391192 0.4671738071076449
1.7194009762881428 12.950849626775897 143.25288165384165 86.90220512494301 0.47622370018365234
1.7423841654122443 12.929906271745367 129.76087917087514 91.08182699509557 0.4856014045847537
1.7648666011830392 12.907258728665191 117.65889851647285 95.48616724058607 0.4953290567804336
1.7867930150121691 12.882822295937888 106.80633508323847 100.12884219972719 0.5054239701293735
1.808131616052951 12.85656033550274 97.07036834187608 105.02640637078584 0.515911954950391
1.8288408889493817 12.828422541475895 88.31731207666535 110.19540335076842 0.5268155522526398
1.8489201414125098 12.798454924759959 80.45178258589792 115.65350457716005 0.5381582777969364
1.8682960771630392 12.766514527752564 73.37620746810262 121.42084980643645 0.5499692015626461
1.8869750856040026 12.732691754924645 66.99913616879965 127.5188775069873 0.5622781760442793
1.9048972846338197 12.696873892119763 61.24717995856403 133.9700584894469 0.5751146002638681
1.9220382960738893 12.659055471005905 56.06508724544654 140.8000868652474 0.5885147997830287
1.9383517379258095 12.61916469404431 51.384236149333844 148.03663649248006 0.602517017334296
1.9538474968724988 12.577318752963478 47.15714417539355 155.70818110832963 0.6171569213180763
1.9684634597898605 12.533387756710173 43.331779150183486 163.84839993705452 0.6324822129304674
1.9821774223252437 12.487382565387104 39.87312814903799 172.49111311371777 0.6485345984739748
1.9949667175300088 12.439305567284363 36.73947444823166 181.67553968782016 0.6653669935820828
2.0068023405328024 12.389142345607883 33.898604532555474 191.4437288529638 0.6830339573928009
2.0176481639877086 12.336865689072793 31.32274605274201 201.8417229263527 0.7015947340279581
2.027484049494986 12.282478864071761 28.9869775480332 212.91943205794354 0.7211118523406338
2.0362927406679057 12.226011212184886 26.865242317609724 224.73244648364314 0.7416559622920511
2.0440366519757887 12.16741348556268 24.938425104551133 237.34184416373859 0.7633038933464246
2.050695097128407 12.106704938181831 23.183851121125418 250.8145516149329 0.7861384125787139
2.0562669061388337 12.04395581520572 21.590402699922894 265.2237598995433 0.8102479468196628
2.060713248759612 11.979103625339096 20.139053557674142 280.65101478175876 0.8357315195588683
2.0640172973663296 11.912209715586746 18.81901828420082 297.1862680360887 0.8626967833449501
2.0661779700293397 11.84330238371492 17.61610166301961 314.92986754152037 0.8912640827734586
2.0671722469338563 11.772405721145642 16.516974469516274 333.9911672069295 0.9215590527153845
