M[M_sun], R[km], Lambda[1], P_c[MeV/fm^3], rho_c[fm^-3]
0.24162668629717493 15.618656898711224 2160425.4255784233 3.5677272577965504 0.1711233750220791
0.2536415842374906 15.27736802384924 1723218.0740215017 3.7847961485605754 0.17388788066742136
0.26603770368885016 14.981277685336172 1383007.9118373648 4.011352174222543 0.17666606523673015
0.27881081089031085 14.723578593012395 1116492.0217778794 4.2476521560521485 0.17945663205392204
0.29196389039576637 14.498507553635713 905962.037350936 4.494320896288019 0.18226614041217717
0.3054981338939474 14.301308660910278 738759.8899921139 4.751511870864934 0.1850902548905644
0.3194118185487468 14.128255514338774 605172.1264692878 5.0199108489440265 0.18793567087173912
0.33370765224510107 13.976067617922515 497744.5056170438 5.299737070336743 0.19079891728350187
0.34838742079696294 13.84214024741995 411077.3629171429 5.591724691337125 0.19368640306956086
0.3634481394983223 13.724097489484565 340721.05792640557 5.896033980410006 0.19659306186937917
0.3788999680091474 13.6201207980758 283356.4133600803 6.213531867609857 0.19952663456714465
0.3947283073681081 13.528582452709243 236455.9527296768 6.544480720823473 0.20248338785477846
0.41095180000349346 13.447996290871417 197917.01215313977 6.8895729981263125 0.20546686526701388
0.42755804394240016 13.377168018907517 166124.19459158264 7.249518064612989 0.2084802197725728
0.4445503114820305 13.315033625958325 139844.35781417982 7.624582036287901 0.21151911282625746
0.4619282265977288 13.260659480358324 118013.50678546693 8.015699570285278 0.21458948536754735
0.4796901317660652 13.213247433635626 99842.566691476 8.423581999537516 0.21769309012372995
0.49784466056044674 13.172076600305763 84670.40133456407 8.848679926875072 0.22082753678236233
0.5163800429073526 13.13647245988708 71960.9128395396 9.291847089495072 0.22399595790124868
0.5352952981885596 13.10590772825861 61297.028183521994 9.753977085157018 0.2272014050184802
0.5545987958142895 13.079888693553245 52318.59013157821 10.235879115912793 0.23044522845089635
0.5742770889079045 13.057899280573219 44746.968732935486 10.738037907605586 0.23372429906817146
0.5943332401395377 13.039560279297806 38343.81140647063 11.261670903309382 0.23704446437697352
0.6147668439264395 13.024539701815515 32915.089034271274 11.807728076721084 0.24040750382958234
0.635564339257657 13.012490164804197 28306.359631715866 12.377187939024514 0.24381504948963117
0.6567327687703876 13.003043045008289 24380.82146793876 12.970758095932462 0.24726526400774912
0.6782621005313509 12.995996343448974 21037.38480076145 13.589727858691358 0.25076251600944316
0.7001462765370816 12.99107674013847 18180.639375594776 14.235312043236096 0.25430964405746037
0.722376534092364 12.988000262062029 15736.295431159964 14.908699692545225 0.2579086315399465
0.7449604110211345 12.986645608094692 13640.696220115233 15.61094397447261 0.26155961375504644
0.7678775177423793 12.98674635493519 11841.446917864465 16.34326359347411 0.2652640148737214
0.7911186345329706 12.988131375089345 10294.030293046526 17.10729631977036 0.2690267534832309
0.8146879894831724 12.990650744848402 8960.96401446488 17.90449634868852 0.27285026048700606
0.8385674879989092 12.994117897061043 7811.065109921675 18.736256484939975 0.276735867084852
0.8627447477305665 12.998383799065097 6818.36325567616 19.603865357314525 0.2806835593393673
0.8872135693434696 13.003329443575609 5958.446488923708 20.509434228632507 0.28469993684132394
0.9119732914666063 13.008825796995318 5214.16920083465 21.45475608796686 0.28878801067665616
0.936987821314574 13.014714823708388 4567.732356779948 22.4413499019648 0.29294798709239894
0.9622627810823224 13.020913593487396 4006.8654588373192 23.471169997482058 0.29718310063956666
0.9877837103575597 13.027302270159327 3518.621342943035 24.546671049740567 0.301499724408542
1.0135230068703815 13.033756396923405 3093.936175271576 25.66983624196338 0.30589979875202683
1.0394818040702547 13.04022073444259 2723.1337106540154 26.842543068364805 0.31038396904713095
1.065632571553731 13.046547795667784 2399.640658269719 28.06792629547052 0.31496126671187563
1.0919567581613183 13.052667106918419 2117.153291609288 29.34808799652039 0.31963246703315307
1.118451457585436 13.058509369621843 1869.7642636850348 30.685686925533314 0.3244015969906533
1.145078189909455 13.063970560886633 1653.107407061543 32.084221245308285 0.3292773837445971
1.1718374789750643 13.068978604295362 1463.0811926964066 33.54552292220456 0.3342568213247259
1.1986890306899434 13.073439394429261 1296.2642406690811 35.07418341642488 0.3393538143997096
1.225632860894619 13.07730897164374 1149.7890919825616 36.672287637869836 0.34456550689792886
1.2526242682994735 13.080476994640085 1020.8690124789503 38.34476908192263 0.34990562371495504
1.2796624174133087 13.082923713473608 907.3519391546895 40.09396886315586 0.3553713615221059
1.3067044438648912 13.084517558354204 807.3177898578879 41.92531985933396 0.3609770580972259
1.3337375072100572 13.085229268481427 719.0293785875195 43.84220982725905 0.366724126811203
1.3607426297096952 13.085037937278502 641.0827639065969 45.849484799457656 0.37262120797818177
1.3876712164676557 13.083785471368897 572.2102316690699 47.95239458339088 0.3786778083154808
1.4145249611902677 13.081501422992364 511.1898572102527 50.155595685653964 0.3848990828671745
1.4412457888487908 13.078062713177443 457.1843566134067 52.46449035407577 0.3912929633899278
1.4678394409325726 13.073468524791416 409.31464385306145 54.88539722324868 0.39787065071832667
1.494244964499884 13.06761066398284 366.7974517952083 57.424500032574954 0.404641195597946
1.5204559092997045 13.06048018748481 329.0831582656629 60.088420081897574 0.4116143580178001
1.5464382288223553 13.052001803183472 295.51074079426814 62.884255615986156 0.41880066559346424
1.5721529417112965 13.042134627789109 265.6623288050786 65.81962497898785 0.42621147671465054
1.5975756299972683 13.030820281624848 239.1029931915407 68.90271392143853 0.4338590490149061
1.622663040581646 13.018018635703092 215.39813218313625 72.14232748998558 0.44175661378938497
1.647415077299458 13.003686407287066 194.2457651829109 75.5479469838984 0.4499184570623017
1.6717642755003783 12.987768300307518 175.36129447024868 79.12963245887042 0.4583593396152464
1.6957025432434847 12.970234646859012 158.4830154634909 82.89730303274531 0.4670914151310273
1.719165417199304 12.951000749441363 143.39815783036943 86.86381035335067 0.47613675491658275
1.7421713500536484 12.930118212395616 129.88733409497533 91.04087529079703 0.48551030211647
1.7646511855156248 12.907486238346145 117.77233391855752 95.44226414537566 0.4952327235864572
1.786581105855931 12.883068986052754 106.90784834017526 100.08194948729857 0.5053227776903353
1.807920980704043 12.856830483688531 97.16124361202922 104.97628090418074 0.5158055134169879
1.8286345980210954 12.828716391614183 88.39725751901875 110.1417059932351 0.5267031647611454
1.8487174279497292 12.798770943405156 80.52501581462235 115.59587463565776 0.5380392342243565
1.8681079947506667 12.766887103761977 73.43930408083332 121.35910850099522 0.549843518890432
1.8867827668627248 12.733059255955153 67.06092390471254 127.45270152335448 0.5621453978269805
1.9047098120197061 12.697266392691768 61.30618085201645 133.89926530075033 0.5749748325282911
1.9218577866774451 12.659476623551187 56.11868577396755 140.7240499939846 0.588366651042448
1.9381770568862766 12.619610177222066 51.432697831075664 147.9549006498404 0.6023597943743669
1.9536816032015418 12.577799643368357 47.20091705522741 155.62051541129145 0.616990786046729
1.9683035735226229 12.533893305140031 43.37276690413603 163.75420374343184 0.6323061483118609
1.9820287420563942 12.4879237606932 39.91063039597266 172.3896587792886 0.6483472741382387
1.994824344427924 12.439871050311982 36.77430702860222 181.56639001592436 0.6651681759412787
2.0066641117721087 12.389726881377225 33.93007975515207 191.32617513304945 0.6828226296606661
2.0175258651991084 12.337497297754256 31.350808820716136 201.71498337393115 0.7013697838242359
2.0273722362612703 12.283143734924476 29.013587132177854 212.78296288998186 0.7208731076959758
2.0361924470630868 12.22670453182594 26.889634654019808 224.5849847430396 0.7414010711628517
2.043948260036532 12.168141625467232 24.961091417669184 237.18267153892182 0.7630324893992656
2.0506201642525617 12.107467667212811 23.205348732089345 250.64231376534394 0.7858482799481462
2.056198436975556 12.044732783040761 21.609331639220958 265.0372361718945 0.8099375605000549
2.060663988789865 11.979936174043944 20.156129197624537 280.44929174430786 0.835400646826823
2.0632803590515656 11.915784583608279 18.924178040292475 297.4734628415051 1.2460014775915045
