M[M_sun], R[km], Lambda[1], P_c[MeV/fm^3], rho_c[fm^-3]
0.24162668629717493 15.618656898711224 2160425.4255784233 3.5677272577965504 0.1711233750220791
0.2536418476425464 15.277349544061927 1723180.1746482053 3.784799094762899 0.173887917390412
0.26603818499631293 14.981263875182343 1383085.0750873596 4.011358367683617 0.1766661400810521
0.2788112596203606 14.723572626038225 1116469.7244486485 4.247661806260951 0.1794567439818016
0.2919644366345309 14.498500892377413 905947.7511179913 4.494334256426309 0.18226628918041776
0.30549860285277114 14.301318889273285 738758.3703397664 4.751529394516468 0.18509044417944537
0.3194131290809082 14.128236573209014 605171.1865389129 5.019932665142555 0.18793589722321913
0.3337091288284451 13.976052405729531 497758.3023215424 5.2997637533775155 0.19079918593744727
0.3483889728211098 13.842127546930652 411068.971808178 5.591756307789687 0.1936867089674368
0.36344945937701045 13.724099970234331 340706.0616743539 5.896071240503074 0.19659341182405835
0.37890188586947154 13.62008758442408 283352.83532594104 6.213575222166628 0.1995270299085001
0.3947315481120714 13.528541823481698 236449.0383458281 6.544530124779645 0.2024838210607326
0.41095436088460485 13.447958883424027 197908.18333615287 6.889629405116405 0.2054673456526118
0.4275605592039632 13.377140702257567 166121.24241902964 7.2495820038592464 0.20848074872557087
0.4445533877443488 13.315004408771596 139840.57169342862 7.624653331021849 0.21151968037818206
0.4619320674491705 13.260646742938087 118011.4881258399 8.015779463915676 0.2145901034093697
0.47969445272116173 13.213230124200603 99846.53355536891 8.423671114948778 0.2176937601470416
0.4978490094332727 13.1720801433692 84664.22357295638 8.848777935446364 0.22082824640629434
0.5163842768141576 13.136465732244528 71959.632793355 9.29195557712251 0.22399672166090925
0.5353007576859377 13.10589242540516 61294.1568528678 9.754096787277225 0.22720222456255718
0.5546039071966605 13.079880415432378 51829.29749498289 10.23601081264441 0.23044610549975386
0.5742851991538175 13.057878577608193 44745.66313359247 10.73818102670745 0.23372521793713819
0.5943388081436641 13.039556109725087 38341.47713206866 11.261827596813403 0.23704544340082223
0.6147722082423406 13.024544797067328 32912.44702066987 11.807899270119616 0.2404085449710753
0.6355710183887833 13.012451687009829 28304.20235660418 12.377374615541454 0.2438161548151399
0.656740141131865 13.003054473227872 24379.35235382148 12.970959398331432 0.2472664145697137
0.6782702863842666 12.99598696748235 21035.952295558483 13.5899466451221 0.25076373415367315
0.700154338145602 12.991076805103075 18180.015773701958 14.235549486564945 0.25431093219910783
0.7223845303744254 12.9879956831058 15735.157529946655 14.90895704098787 0.257909992238171
0.7449694313511959 12.986644157335427 13640.147179440475 15.611220045819033 0.26156102484864396
0.7678870465250632 12.986760251724208 11840.974022021119 16.343562125755373 0.26526550298226903
0.7911274380422303 12.988137287713833 10293.430508128315 17.10761881095635 0.2690283216486637
0.8146996515442864 12.990658483879606 8901.916005261364 17.904844396050205 0.27285191194685066
0.8385777653373945 12.99411315977823 7810.620230042071 18.736628544869543 0.27673757650771935
0.8627549504985418 12.9983801667515 6817.6221996421555 19.60426626671913 0.28068535796702543
0.8872270835629807 13.003331361564758 5958.677636007824 20.509865916678372 0.2847018285652752
0.9119851154815702 13.00881831235722 5213.846766053564 21.455220615907972 0.2887899996507788
0.9370003759598582 13.014719046162881 4567.594446043031 22.441845334947946 0.2929500448389542
0.9622762754394014 13.020908322162118 4006.428097424243 23.47170255175456 0.29718526350070457
0.9877970060844531 13.027306055219857 3518.36514392488 24.54724323144341 0.30150199741482
1.0135365568893426 13.033766316676614 3093.76360625357 25.670445836527065 0.3059021512948494
1.0394955884413926 13.040220939172167 2722.895173724268 26.843197526822774 0.31038644147333716
1.0656463967271654 13.046558383962891 2399.4663124711474 28.068628680633974 0.31496386514001573
1.0919728474204151 13.052672574242791 2116.9668088600215 29.34883581935645 0.3196351587361973
1.1184670168849278 13.058512679748624 1869.6274271775237 30.68648911252266 0.32440442675723863
1.145095069843313 13.063964624776547 1652.9251565025827 32.08507517867223 0.3292803177755265
1.1718529260726651 13.068984333505085 1462.9535170588872 33.546438616410605 0.33425990730861227
1.1987064167413453 13.07344893365141 1296.123699386288 35.075165192312504 0.33935706086640993
1.2256494033314453 13.07731634236229 1149.6860710168726 36.67333264687469 0.3445688779352146
1.2526415942475388 13.080478084847607 1020.7570639840997 38.34588934478722 0.349909172462124
1.2796806526259321 13.08292844150943 907.2591760847685 40.09516146009325 0.3553750510186093
1.3067220528879882 13.084518136360048 807.2423234815309 41.92658971896042 0.3609808970752596
1.333755767906566 13.085231828604744 718.98750733764 43.84357118349446 0.36672817346597625
1.3607610853566987 13.085037415744797 641.0279695811062 45.85093480036171 0.37262542438384305
1.387691201742289 13.083785515468122 572.1676374157626 47.953939420905215 0.378682205421731
1.4145449656103837 13.081498893823685 511.1524739319824 50.15725229524752 0.3849037248698178
1.441266133207021 13.078054519633186 457.14819154899783 52.46625610648163 0.391297811484464
1.4678589119103864 13.073463962613522 409.2760233614321 54.887279935120596 0.3978757186400875
1.4942659999551198 13.06760678726409 366.7649236238293 57.426508153632156 0.4046464981439144
1.5204754922333354 13.060471868949898 329.0468716491959 60.09056275159572 0.41161991113377866
1.546458987479863 13.051996069683117 295.4872817046352 62.88654272584204 0.4188064864698807
1.5721735626508793 13.042125787012154 265.64301456601555 65.8220672411872 0.4262175838919278
1.5975969312626088 13.030808793113877 239.07785894200754 68.90532294443271 0.43386546249943003
1.6226775838557543 13.017974656445142 215.3778286891085 72.14511586187136 0.4417633551812335
1.6474353576643392 13.003673739629011 194.22534541310472 75.55092836447092 0.44992554969603005
1.6717845953138573 12.987752455850517 175.35013437170198 79.13280611848234 0.45836674372681196
1.6957227761546645 12.970219167192491 158.47062521825814 82.90069992652731 0.467099221183045
1.7191848744792813 12.950980000779543 143.38502300811248 86.86744796253083 0.47614499231163804
1.7421915480806427 12.930098529560569 129.87255728619604 91.04475512969424 0.48551893332989887
1.7646718273887168 12.907463994393567 117.76068052601693 95.44642357852126 0.49524185031153495
1.7866012728516016 12.883044639418245 106.89645225968151 100.08639213607913 0.5053323647336648
1.807940991205276 12.856806282535105 97.15051372872955 104.98102979946336 0.5158155977060747
1.8286547543599574 12.82868937613067 88.3937405088012 110.14680634232711 0.5267138610012476
1.8487367260921637 12.798740510685723 80.52114729985524 115.60133443649258 0.5380505122888488
1.8681263444377154 12.7668557759377 73.43569792023591 121.36495777171413 0.5498554258620971
1.8868007362451398 12.733025334054767 67.05532347724392 127.4589730939344 0.5621579848190926
1.9047278654497737 12.697228925492988 61.299109094979144 133.90597204987938 0.5749880737334989
1.9218750020729338 12.659436986003433 56.11290456518258 140.7312534654314 0.588380686144168
1.9381929953371058 12.619566860961227 51.428213293845545 147.9626439672543 0.6023746890306666
1.9536969683460865 12.57775663968348 47.19827833167374 155.62882044434147 0.6170065249157043
1.968318674659489 12.533845121416217 43.368273226363826 163.76314689834933 0.6323228937794618
1.9820433125119605 12.4878726767069 39.904684622559984 172.39926994191995 0.6483650200991747
1.994838477785273 12.439818698687793 36.77130613865806 181.576730111865 0.6651870105694082
2.0066768966036275 12.389670246930258 33.927954440192174 191.3373112863884 0.6828426492570816
2.0175374711871568 12.337436869481575 31.349499539852577 201.72698962889612 0.7013910937424793
2.027382641780081 12.283079909571596 29.010440307066713 212.79589075088543 0.7208957242151772
2.036201865143021 12.226638662776255 26.887741574252246 224.5989538224169 0.7414252170491119
2.043956708947897 12.168073259108969 24.958288206107934 237.1977498693206 0.7630581993377145
2.0506269730637516 12.107395625153332 23.20303930126171 250.65864296583462 0.785875807289139
2.0562038638544844 12.04465610873643 21.607297651341373 265.0549051380855 0.809966962686342
2.0606700080318445 11.979856302564814 20.155636052816956 280.46840034126365 0.8354319893733175
2.0639907502149843 11.91300432643402 18.83362206113161 296.9881458291414 0.8623757898699376
2.06615873354952 11.844119126757803 17.629612447398433 314.7146468440426 0.8909195567674499
2.067162539918753 11.773259260356285 16.532279858183752 333.75742869308135 0.9211898814036621
