M[M_sun], R[km], Lambda[1], P_c[MeV/fm^3], rho_c[fm^-3]
0.24162668629717493 15.618656898711224 2160425.4255784233 3.5677272577965504 0.1711233750220791
0.25364389065301707 15.277296203258157 1723221.259926929 3.7848177772493465 0.17388815025859286
0.26603970817573874 14.981281696531902 1383030.3387828704 4.011397641877845 0.1766666146865113
0.27881501769910294 14.723527383254071 1116475.7533262793 4.247723000745553 0.17945745374560484
0.29196904303850135 14.498434645012562 905866.4627939197 4.494418976862207 0.18226723256213406
0.30550450971850807 14.301232276558114 738667.9096712781 4.751640517403892 0.18509164451871077
0.31942061177157366 14.128134824484665 605151.8353213863 5.0200710089025735 0.18793733259312512
0.333718750611933 13.975957853958475 497704.30674174504 5.299932960038839 0.19080088956776217
0.3483989280976257 13.84204414159767 411016.02812826424 5.591956799676799 0.19368864878159803
0.3634609819802021 13.724011241409734 340656.4427225854 5.896307521720813 0.19659563102725777
0.3789144572706368 13.620011308787916 283321.20125341165 6.213850151832761 0.19952953693601838
0.39474534836936503 13.528477915749725 236404.54904182442 6.544843417304912 0.20248656821294173
0.4109715597719146 13.447885995921585 197876.30462671866 6.889987108286912 0.20547039200291614
0.4275789799200475 13.37706617969789 166083.2775856028 7.249987474043454 0.2084841030764917
0.44457326366831473 13.314942688053911 139806.88768946246 7.625105447411854 0.21152327951535638
0.46195647807463025 13.26055255663827 117981.40255146503 8.01628611208504 0.2145940227425672
0.4797188660445652 13.21316138235098 99813.27031762866 8.42423624532756 0.21769800913745224
0.4978751643800197 13.171996706605391 84645.65150359484 8.84939946420476 0.22083274654006393
0.5164137853970997 13.136405169744803 71942.14057761298 9.292643561977005 0.22400156511717575
0.5353316682904076 13.105849491621923 61278.50467218883 9.754855892536261 0.22720742179897835
0.5546369912261614 13.07983881887892 52301.19870561684 10.236845986021274 0.2304516674286416
0.5743197873351117 13.05784444503151 44731.87054895821 10.73908863932303 0.2337310450912734
0.5943760680126828 13.03953138114392 38329.55529171442 11.262821297038064 0.2370516520578082
0.6148123447191757 13.024524642625051 32903.50098250649 11.808984927730624 0.24041514758072993
0.6356159446038854 13.012452738007026 28294.78455820478 12.37855846649395 0.24382316448447489
0.6567850408063779 13.003023500385279 24372.426165071665 12.9722360062294 0.24727371113696078
0.6783156475110026 12.995996718730954 21029.244276878046 13.591334136918771 0.2507714593362657
0.700203920878651 12.991057112974493 18173.895598350267 14.237055301078843 0.254319101316337
0.7224382339534595 12.98799162815464 15730.494066188676 14.91058909496699 0.257918621522766
0.745025134542845 12.986655304003564 13635.123474528 15.612970841723289 0.2615699737559577
0.7679450188016055 12.986750340173108 11837.121904858053 16.34545537135574 0.2652749403367445
0.7911889694055992 12.988143310234706 10289.596102441343 17.109664007162873 0.2690382667452545
0.8147614766509864 12.990668689801058 8957.088673225757 17.907051673633962 0.2728623853211577
0.838645916369608 12.994116535173118 7758.45308152008 18.738988114044517 0.27674841750720447
0.8628253391769467 12.998403335894352 6815.183720311078 19.606808805254367 0.2806967647339379
0.8872973337104122 13.003347903988262 5955.764034231982 20.512603660550063 0.28471382578341486
0.9120609769413947 13.008834971911284 5211.733097221412 21.458166638932386 0.28880261366823934
0.9370794770898757 13.014737233128793 4565.679930642741 22.444987365686178 0.2929630950458398
0.9623575556621019 13.02093324202801 4004.9161783683785 23.475080017118362 0.2971989803910897
0.9878814147279631 13.027325247453314 3516.8820743724164 24.55087202720571 0.30151641289771336
1.0136231326872052 13.033783040480358 3092.126858148468 25.674311916941264 0.3059170712437328
1.0395871029719945 13.040240098829214 2721.726696124732 26.84734815120868 0.31040212178486604
1.0657368757397006 13.046563673641273 2398.577813271047 28.073083275820633 0.31498034462461766
1.0920679632003727 13.052699833594001 2115.8729369217112 29.353578598544217 0.319652229829192
1.1185653614859732 13.058533678035666 1868.7942347955425 30.691576694150346 0.3244223735310973
1.1451947977827936 13.063987468951177 1652.2444657292833 32.0904909591625 0.32929892586385817
1.1719591208325468 13.069003262994952 1462.2083542743578 33.55224611569016 0.3342794791799626
1.1988121405115928 13.073459622674628 1295.5388074228383 35.0813918172582 0.3393776506270635
1.2257588625027263 13.077326250246399 1149.1971808005342 36.67996032979671 0.34459025781437774
1.2527535053037304 13.080495683381463 1020.299725829648 38.352994332278975 0.34993167950492976
1.2797941389099983 13.082937642956926 906.7832086178637 40.102725232491906 0.3553984508035176
1.3068387886196935 13.084520280016369 806.8518643360194 41.93464353832501 0.36100524499134706
1.3338742247297084 13.085236936765053 718.683010542877 43.85220533589813 0.36675383863217476
1.360881858728608 13.085032902800743 640.6885760490261 45.86013119614812 0.37265216625355396
1.3878126323871804 13.083775089174402 571.8551691921167 47.96373733596489 0.3787100934508266
1.414669048992855 13.081486235006874 510.87812415095266 50.16775915346974 0.38493316624443613
1.4413922073578314 13.078036624704204 456.9233801207469 52.477455230295995 0.39132856008250916
1.4679863392379977 13.073439278590582 409.06681375725844 54.89922090688887 0.39790786158855074
1.4943948844127908 13.067577875450784 366.581641968615 57.43924457165176 0.4046801293046355
1.520606644203052 13.060433995864074 328.8751025661477 60.104152589627745 0.41165513165646894
1.5465894222569398 13.051949282104808 295.3219159559136 62.901048728509984 0.418843405399949
1.572305894322354 13.042071470657536 265.49628051161477 65.8375573592418 0.4262563188389909
1.59772960532703 13.030744989526772 238.94646063869942 68.92187081436258 0.43390614037307723
1.6228165377039436 13.017928418918437 215.26316788697937 72.16280133489018 0.44180611300139855
1.6475693410133836 13.003590578175174 194.1237264318653 75.56983809053604 0.4499705354862103
1.6719179328863825 12.98765870273953 175.25554179052642 79.15293546758654 0.45841370526797737
1.6958548995196303 12.970116887855344 158.38296329885316 82.92224526302302 0.4671487323035619
1.7193352448278871 12.950906810608805 143.2969953205505 86.89052017947677 0.47619723953127385
1.742321244790228 12.929968560693368 129.7933908005395 91.0693638313515 0.4855736786329488
1.7648009140386083 12.907327135718345 117.69302519287342 95.47280579224177 0.4952997387792998
1.786727672870277 12.8828930150593 106.8306400259889 100.11457083245969 0.505393173137956
1.8080672227236467 12.856642505264476 97.09722607178475 105.01115107796879 0.5158795603041176
1.8287794663618369 12.828512086350411 88.34254643842475 110.17908340894317 0.5267814315955144
1.8488590125812312 12.798552673592049 80.47378387048475 115.63596518423039 0.5381220474635229
1.8682441046141312 12.766649737574383 73.37756743019297 121.40205904983247 0.5499309504682445
1.8869155890246048 12.732804216528974 67.01685093116558 127.49875317026631 0.5622378231148799
1.904840114890875 12.696993867206551 61.26534582712276 133.94851261984772 0.5750720620273462
1.9219836955207137 12.659181831868292 56.082255811101916 140.77694496135294 0.5884697105538209
1.9382991550409716 12.619298515164227 51.398955190261205 148.01175996481336 0.6024691660956447
1.953796504240125 12.577462671301857 47.16728224230689 155.68149967901496 0.6171063573386762
1.9684145614973045 12.533541290235162 43.34437169938377 163.8197519123897 0.6324286981823118
1.9821319376769033 12.487546603402384 39.88419981044541 172.4602347065535 0.6484775848713211
1.9949213197537579 12.439478824621442 36.748525580186175 181.64231895823679 0.6653064815625153
2.006761535861913 12.389323772543325 33.90580304307649 191.40795006289028 0.6829696374327837
2.01761080158715 12.337058016567836 31.331327368443336 201.80314809108248 0.7015262675004472
2.0274498063330584 12.282679308582765 28.994659600874126 212.87789564734234 0.7210391868753315
2.036262652267772 12.226223643457214 26.873421877762816 224.6875640272868 0.7415783818977394
2.044010316504977 12.1676342756398 24.945334434456335 237.2933969987369 0.7632212864796643
2.050672837930343 12.106937296710017 23.190637345855237 250.76218971082577 0.7860503074382528
2.0562488941410133 12.044198436023963 21.596463266132346 265.16698712909925 0.8101534736312154
2.060697900016014 11.97935760031219 20.144370810957952 280.5896153455283 0.8356308101928567
2.0640066052774046 11.912467741913254 18.823181994730355 297.11965408487157 0.8625888568080164
2.066171207459909 11.843577436155881 17.620756662245082 314.8575041435269 0.891148243206056
2.0671690902789597 11.77269463669037 16.525841465649673 333.91257707209166 0.9214349258751438
