M[M_sun], R[km], Lambda[1], P_c[MeV/fm^3], rho_c[fm^-3]
0.24162668629717493 15.618656898711224 2160425.4255784233 3.5677272577965504 0.1711233750220791
0.2536351010845503 15.277510408707858 1723484.1979374855 3.784657276111273 0.17388614968933508
0.26602227943900986 14.981617934580472 1383414.4317683692 4.0110602464608425 0.17666253746201396
0.27878623353866444 14.724091966433077 1116948.394155255 4.247197306738637 0.1794513564873286
0.2919303508324373 14.499032652888337 906414.4934975953 4.493691200310372 0.18225912860132126
0.30545387191128626 14.301911271878165 739169.5879759955 4.750685959285347 0.18508133346922895
0.31935877941338064 14.128854818716446 605574.4443528051 5.018882648931998 0.18792500289976558
0.3336455952763478 13.976687794895582 498179.64820641774 5.298479526580394 0.19078625590451787
0.3483133589148099 13.842757690335043 411463.8035602945 5.59023467541481 0.19367198675562322
0.36336230753452875 13.724700620739567 341041.4415699179 5.894278034196677 0.19657656965094575
0.37880092202940835 13.620724268283624 283681.33938553353 6.21148875828659 0.19950800387018022
0.39461866122694456 13.529147225483872 236756.774423958 6.54215258095609 0.2024629732133044
0.4108284523458215 13.448559342847782 198174.311701811 6.88691490585527 0.20544422783780855
0.4274189600455156 13.377712747710804 166357.10697043856 7.246505096838064 0.20845529426232834
0.44439873276856723 13.315532379986598 140054.61620314477 7.621222530935544 0.21149236900349785
0.4617628885061467 13.261139759675098 118203.22827478338 8.01193495972584 0.21456036306131318
0.4795102290673538 13.213684240808684 100008.07069912564 8.419382952140365 0.21766151915746398
0.4976485913921401 13.17248168909764 84817.9173811085 8.844061933707675 0.2207941005387137
0.5161670878962907 13.136841010955072 72101.8378529918 9.28673545687949 0.22395997168896184
0.535067685837 13.106236078567079 61416.87749061655 9.748337184061624 0.22716279127020753
0.554354705111954 13.080182600979834 52422.42793037269 10.229674214396729 0.2304039062273393
0.5740148617129882 13.05814328697052 44837.43447579134 10.731294970199851 0.23368100732132605
0.5940557721514182 13.039818037719039 38424.158588953505 11.254288583468522 0.23699833950901517
0.6144701375384133 13.024745497812544 32985.9993986764 11.799662800817202 0.24035845349547103
0.6352477264539496 13.01261345327285 28368.516775072596 12.368393416581487 0.24376297646966633
0.6563933295806217 13.00316768268482 24439.32768262575 12.961274710299659 0.24721106086431732
0.6779074822624173 12.996096820371053 21088.576262508614 13.579421025548747 0.25070513032387093
0.6997728054223882 12.991143111972026 18089.438577737867 14.22412654773166 0.25424896219844056
0.7219781756851164 12.988078730121726 15776.3674047598 14.896576774198865 0.2578445331008807
0.7445461751148811 12.986657399186761 13675.883421553724 15.597939314253374 0.2614931425583377
0.7674423536773657 12.986744019730198 11874.038638309139 16.329201196465007 0.265193917351602
0.790663388511836 12.988091468121231 10322.130651200794 17.092105673382164 0.2689528865138296
0.8142127452221773 12.990592988872722 8986.498129680014 17.888102268082434 0.2727724717467631
0.8380695980293459 12.994041091667984 7834.209418533544 18.718718236003113 0.27665523056986296
0.8622287254119242 12.998300712554554 6837.856173628927 19.58498208244112 0.2805988419940686
0.8866726241400467 13.003231481917805 5976.318711219391 20.48910170398586 0.28461083656571456
0.9114089809917612 13.008693997755723 5229.886359864547 21.43287729879766 0.2886943320372463
0.936406861173728 13.014577561674502 4581.567984314889 22.41801594600277 0.29285107112367254
0.9616560457539298 13.020761706145441 4019.1581093027166 23.446088273351318 0.2970812363053653
0.9871557420279362 13.027146950040736 3529.7955790016485 24.51972361312461 0.3013926750354156
1.0128728891693886 13.033605776079389 3103.7416721596974 25.641127347627744 0.3057890055997647
1.038810900002591 13.040052035123828 2732.0771327571283 26.81172202734202 0.31026753270407775
1.0649400943656178 13.046387686716717 2407.776124023332 28.034848977405076 0.3148388993292313
1.0912433987862846 13.052510676817771 2124.161857462861 29.312871562962073 0.3195057094953435
1.117717031095133 13.058350864959785 1876.0224118460717 30.647911286641573 0.3242683409766623
1.14432848825813 13.063831611807828 1658.6865580093956 32.043760665799084 0.3291376097906003
1.1710631093042252 13.068846955286277 1468.1769222434873 33.50240403697185 0.33411150623574853
1.197894741608978 13.07331126814298 1300.9882647644029 35.02795397710834 0.33920094617671914
1.224819012928381 13.07720676464348 1153.9616346467399 36.623081702978105 0.34440677616888316
1.2517976640080795 13.080403087640606 1024.5755292944384 38.29202104066691 0.34973852948377726
1.2788132182825303 13.082861355131485 910.6869409244429 40.037816114989155 0.3551976436786992
1.3058372813304449 13.084475271261766 810.301297236651 41.87849175777446 0.36082959789210783
1.3324228159022091 13.084943300505518 722.9194953748798 43.791761163639364 0.4042072783882908
1.3576175852328913 13.082811893410609 648.5861175526935 45.844097500693536 0.4529585876655981
1.3815620598900926 13.077586636893935 584.4191568774988 48.02892047641864 0.5011742270480881
1.4044254558886344 13.06922354673486 528.2729487457412 50.35231024868236 0.5489447710335279
1.4262490200067242 13.057494337472955 478.9333070751785 52.82062187740768 0.596368370612717
1.447184571012811 13.042571998578302 435.16200267465587 55.440747349873526 0.6435692294218184
1.4672606722657855 13.024386416245793 396.1647068909448 58.22025171352368 0.6906900225754923
1.4865945307574762 13.00316602781204 361.1632765307472 61.16748737823844 0.7378864181347823
1.5051839612694236 12.978783601708507 329.73340333362927 64.2916951922953 0.7853234046563388
1.5231207253075996 12.951502181120327 301.2940285407854 67.6030992539916 0.833173041575654
1.5404621194060604 12.921475231219068 275.56436589622297 71.11063299024369 0.8815046533512172
1.557192345528879 12.888671727291142 252.22917674769533 74.82787217237649 0.9305764971410242
1.573311907992672 12.853040537144539 231.03420789400437 78.76545511756453 0.9804688794255251
1.5888915247993978 12.814932992525716 211.7463223399478 82.93791060385513 1.0313896458133813
1.6039498210621572 12.774427973428944 194.16421118835072 87.3600150326544 1.0835093386474168
1.6184119499003637 12.731316310640521 178.13290670431576 92.04778259138128 1.1370031900099964
1.6323498041505335 12.685976556290678 163.5195219744345 97.018924079376 1.1920611319943457
1.6457265824332346 12.638307011246056 150.1851652536449 102.29101586751428 1.248836264630976
1.6585308907095082 12.58837852294105 138.01906541929978 107.88682492099807 1.3075791935734984
1.6707571371092855 12.536304847040267 126.9090648940269 113.8270539735424 1.3684455782279958
1.682382314157482 12.482080440507465 116.77485090115553 120.1375299967515 1.4316602046442564
1.6934038652491032 12.425814360424729 107.50526401569742 126.84470947816078 1.4973380472042177
1.7037874721126662 12.36748958306992 99.0461528926628 133.977856555142 1.5655610140117797
1.713514086753924 12.307160269840432 91.32766042112182 141.56921640645422 1.6372282980679878
1.7225611276935429 12.244883603454092 84.27951322943271 149.65327467587665 1.7126638669868552
1.7309029927568171 12.180695654880001 77.84973060683849 158.26966199409307 1.7922233440265327
1.7385073284981807 12.114592476765042 71.97656379296258 167.4605331386282 1.8762729426974176
1.7453520611877158 12.04660473156313 66.61729144554704 177.272323174382 1.9652144970953476
1.7514160863268777 11.976821694835623 61.72358694954242 187.75659955771903 2.0594947672824353
1.756658652868534 11.905173279187279 57.25925894773845 198.96827712611727 2.1595812647002295
1.7610862369113387 11.831803926333905 53.18845976873605 210.97038250088772 2.2660255385808785
1.7646495483841187 11.756687029538151 49.46570275948838 223.8305646061474 2.379422873215966
1.7673328457757216 11.67984330653977 46.06976550218032 237.6241569611113 2.500466968594138
1.769120578248078 11.601323717941373 42.97156248153124 252.43315812110774 2.6299816691436435
1.7699929770440685 11.521165932588152 40.14049852434306 268.3499715398488 2.769082811278796
