M[M_sun], R[km], Lambda[1], P_c[MeV/fm^3], rho_c[fm^-3]
0.24162668629717493 15.618656898711224 2160425.4255784233 3.5677272577965504 0.1711233750220791
0.2536449576812508 15.277276014671225 1723214.332158731 3.784838370189866 0.17388840693966207
0.2660417736302101 14.981237033557436 1382977.8179850392 4.011440932534144 0.17666713782854426
0.27881752626962986 14.72348132075531 1116429.9591267828 4.247790453898705 0.1794582361005317
0.2919735251927459 14.498335074930274 905807.1986872173 4.494512362731498 0.18226827243546234
0.30551014094776985 14.301167226768028 738587.5386849839 4.751763007099013 0.18509296764119318
0.31942907970631645 14.128037072203435 605042.2615741114 5.020223504918247 0.18793891479814578
0.3337257956893762 13.975911708758172 497630.8236365689 5.300119477439002 0.19080276748849348
0.34841001757267753 13.841951360291175 410959.4432779277 5.59217780435893 0.19369078706269394
0.3634750494893875 13.723889745828162 340627.91068824055 5.8965679791674335 0.19659807729871512
0.3789275146329856 13.619958828443957 283265.4775731462 6.21415321424006 0.19953230050026205
0.394763010145496 13.528364563526978 236362.50427012143 6.545188770225228 0.20248959649150394
0.4109893932056851 13.447825189467745 197836.87024833658 6.890381419128367 0.2054737501195081
0.42759926413351834 13.377009727929735 166053.11587721476 7.2504344433127885 0.2084878007387085
0.4445959174140057 13.314881337931476 139776.81821367127 7.625603839924937 0.21152724704022585
0.4619790623108296 13.260509771519086 117956.49478995716 8.016844621504497 0.21459834326446217
0.4797465856495829 13.21308663194738 99790.73425148375 8.424859227230563 0.2177026930904501
0.4979050295915776 13.171928141446468 84624.72715327179 8.850084621719141 0.22083770737321332
0.5164451486816471 13.13635157599407 71925.60245168621 9.293401983747664 0.2240069044537233
0.535365578163677 13.105798882645304 61262.9373759841 9.755692721342811 0.2272131511719473
0.5546733267658245 13.079787744386525 52293.057856993415 10.237766007787105 0.23045779026558916
0.5743585572004987 13.05780764108786 44719.59097776066 10.740089192476162 0.2337374689524491
0.5944160980834746 13.039503451520302 38319.37373166525 11.263916760018153 0.23705849653033162
0.6148565037011481 13.024479979959695 32893.619668859115 11.81018177262738 0.24042242639459385
0.6356630782996456 13.01241437847574 28283.494539915835 12.379863569200644 0.24383089209444372
0.6568355404570477 13.002999068908764 24364.505071734988 12.973643373467178 0.24728175507097383
0.6783696038998565 12.995966655457133 21021.575422391514 13.59286375494605 0.2507799758396324
0.7002593191552265 12.991060898393405 18166.980164895525 14.238715372257685 0.254328107283502
0.722496170854785 12.988004223719578 15724.175868693046 14.912388348710051 0.2579281348555394
0.7450863723097604 12.98663928463096 13629.912362518378 15.614901011999775 0.26157983950607855
0.7680098463055325 12.986748471535108 11832.63411577859 16.347542598545353 0.26528534464079
0.7912567255272466 12.988150036118865 10286.828428701368 17.111918767671405 0.2690492308820815
0.8148343110295847 12.990672975784326 8953.332700037177 17.909485138483575 0.272873931937868
0.8387186734897194 12.994135979942783 7805.041164803132 18.741589489461223 0.27676036948125643
0.8629022700246207 12.998415044956577 6811.873098170193 19.60961191795395 0.28070934053279023
0.8873854990026943 13.003362957261688 5953.242189245218 20.51562200321238 0.2847270526289626
0.9121437634677524 13.00886188981779 5209.436612476725 21.461414628241464 0.2888165206178854
0.9371655199063857 13.014750489003363 4563.7528761405265 22.448451471075025 0.29297748296746257
0.9624519839638985 13.020965872663922 3980.662159675015 23.478803714045426 0.2972141034307287
0.9879739177657024 13.027359822784376 3515.2509609921403 24.5548728445556 0.3015323062457673
1.0137199028683033 13.033802526559992 3090.6112159076833 25.678574367261366 0.3059335208604197
1.0396859086898513 13.040265009158688 2720.3697121859996 26.851924348047888 0.3104194098324909
1.0658396302156388 13.046591650203405 2385.073078528288 28.077994642391896 0.3149985139051906
1.0921748628710959 13.052726612942099 2114.837295083693 29.358807727055414 0.319671051481131
1.1186747572601567 13.058557417979097 1867.6660375837623 30.69718602032916 0.32444216079266835
1.145307497910246 13.064012932222166 1651.3933811570864 32.096462174170725 0.32931944237048544
1.1720730548578464 13.069018420679896 1461.4200502004164 33.55864926715769 0.3343010584606007
1.1989308915400345 13.073475669463924 1294.8727152942572 35.088257129738984 0.33940035235424704
1.225878914873076 13.077343522445714 1148.5764888985052 36.68726787931173 0.3446138308379289
1.2528770703311134 13.080502821157923 1019.7251352479544 38.3607750505852 0.34995618370086357
1.279921217059176 13.082941247732823 906.3041398687427 40.11106500251567 0.35542425126583405
1.3069673622381732 13.08452565384372 806.4580397120659 41.94352368343193 0.36103209101534134
1.3340063627482004 13.085238584181383 718.2849047470686 43.86172542640328 0.3667821372645843
1.3610158543660713 13.085032504640013 640.325130523527 45.870271282739026 0.37268165224793365
1.3879482843843456 13.083767294795635 571.5525686389211 47.97454073386262 0.37874084340865627
1.4147972831514206 13.08145981123099 510.57727016054093 50.17934433677184 0.38496562920476224
1.441532615632653 13.078012924396436 456.6838863980534 52.48980380631102 0.39136246464563484
1.4681268937762133 13.073411823789506 408.8185659781577 54.91238755890908 0.39794330384781845
1.49453686803051 13.067541981125098 366.3521725638334 57.453288412642344 0.4047172127823267
1.5207497762198987 13.060391771787515 328.6961061280124 60.11913755885265 0.41169396791392504
1.5467338294942015 13.051898512535038 295.1465140975995 62.91704402773813 0.41888411470816733
1.5724512567924622 13.042011385693083 265.3393270663049 65.85463793293711 0.42629903091617216
1.597864825901011 13.030670996415518 238.79662280150058 68.94011787880596 0.4339509951963872
1.6229636324997483 13.017847764906485 215.13485999401988 72.1823029617835 0.44185326170105416
1.6477145239773427 13.003500752695812 194.0003626937078 75.59068985132944 0.4500201413309862
1.6720627929295802 12.987560697083268 175.14338213279981 79.17513225248345 0.4584654901131941
1.6960005584862798 12.970000156795116 158.28964041979577 82.94600365936482 0.4672033290291597
1.7194805428004396 12.950781210384042 143.2098219305393 86.91596250210259 0.47625485387416044
1.7424613263475364 12.929828762819522 129.71917927771284 91.0965006699527 0.4856340481101253
1.7649439535652383 12.907172721545853 117.61441413572476 95.5018985946598 0.4953635748839121
1.786870028046167 12.882734494933167 106.76736635328884 100.14564493152105 0.5054602296956188
1.8082068536073508 12.85646372017047 97.03642420408457 105.0443676251017 0.5159500957115789
1.8289194264261368 12.828328509228978 88.28781398623275 110.21461818231785 0.5268557253541153
1.8489926152481477 12.798339288820381 80.42214024233313 115.67415527480166 0.538200935012256
1.868366057552786 12.76639157837536 73.3487603496855 121.44297394751175 0.5500142382062821
1.8870421125165744 12.732562050848912 66.9708984511127 127.54251519658271 0.56232548500852
1.9049642675944756 12.696733968009012 61.22588029274373 133.99542671424524 0.5751646850163838
1.9221032144362353 12.658904335536908 56.045610501312645 140.8273344066797 0.5885678883554551
1.938414335829032 12.619004163626151 51.3658308783951 148.06592655186455 0.6025733582207934
1.9539077819417496 12.577146431908124 47.14085896226233 155.73959644103712 0.6172164565182762
1.968520665957669 12.533206949903214 43.320891180629665 163.88213095277322 0.6325452227481542
1.9822320056467344 12.487193526596876 39.85931312613686 172.5274704546583 0.648601728328792
1.9950156022136545 12.43910050110411 36.7268252161435 181.71465517295337 0.6654382429806199
2.0068489187219174 12.38892844557282 33.885763960529886 191.4858565410174 0.6831096908428606
2.017691789121282 12.336640019150648 31.312668214957387 201.88714307679308 0.7016753503146614
2.0275262148580433 12.282244745269164 28.97806889842916 212.96833960056753 0.7211974131604092
2.0363287344224617 12.225761188936847 26.856198193763444 224.7852941970853 0.7417473108228615
2.0440678350162194 12.16715475981753 24.93007750633838 237.39888955351935 0.7634011609762795
2.0507227562698573 12.106430937776928 23.176757940646343 250.87620690208817 0.7862421549430839
2.0562898230833198 12.043669194566263 21.584059419635864 265.29057275454676 0.8103590689132942
2.0607302545890027 11.978805218730475 20.1327404479841 280.72331257452777 0.8358501047661733
2.0640307569949563 11.911894979811077 18.81287146393795 297.26470646845365 0.8628238676600671
2.066185227629906 11.84298083741122 17.611170374314867 315.01507661408954 0.8914004857393071
2.0671710353669717 11.772073807551163 16.516008468751192 334.0837090297747 0.9217052151323798
