M[M_sun], R[km], Lambda[1], P_c[MeV/fm^3], rho_c[fm^-3]
0.24162668629717493 15.618656898711224 2160425.4255784233 3.5677272577965504 0.1711233750220791
0.25364148937036085 15.277360177570042 1723288.242195455 3.7847899197208457 0.17388780302793902
0.26603679732609103 14.981339487756241 1383125.4940190508 4.011339080074214 0.17666590700167523
0.27880911176748785 14.723646001460441 1116498.7719119368 4.247631753719128 0.17945639541760466
0.2919615410473554 14.498559588309327 905992.9595297348 4.494292650521047 0.18226582588900644
0.3054951438174203 14.301366717186077 738708.8587367336 4.75147482273303 0.18508985470003245
0.31940963268028727 14.128277919795062 605189.5458343748 5.019864725672039 0.18793519232499029
0.3337050359657365 13.976150736885268 497790.00214406324 5.299680657796506 0.190798349302827
0.3483839412871717 13.842121797401319 411077.0951292901 5.59165784881507 0.19368575634977225
0.36344343337042573 13.724145812774793 340729.27249492815 5.895955206401668 0.1965923220072225
0.3788955286522348 13.620124912137223 283374.81734179857 6.213440209038084 0.1995257987513342
0.3947238093588343 13.528584012785167 236462.74122824013 6.544376272987259 0.20248247198835698
0.4109462467581777 13.44802165111466 197928.2876155018 6.889453744941897 0.20546584965685274
0.4275513206282581 13.377177834351993 166141.45031053916 7.249382887267423 0.20847910148503593
0.44454380051246123 13.315030236505644 139850.1430870443 7.624431308520558 0.21151791293631178
0.461921417336293 13.260674262317947 116710.0109046212 8.015530663411583 0.214588178736324
0.47968256214430877 13.213296088081076 99845.01931683852 8.423393596743027 0.21769167359809768
0.4978358217908333 13.172084113337895 84676.1950099063 8.848472722931104 0.22082603653727656
0.5163705297479777 13.136490372280903 71966.36856528473 9.291617731683427 0.22399434320795591
0.5352842802386555 13.105930023505007 61302.398337887935 9.753724018729141 0.2271996723917591
0.5545879776875656 13.079899899928801 52323.76422928649 10.235600691662961 0.23044337425400613
0.5742659264477602 13.057907089700949 44750.55598659795 10.73773533533677 0.2337223564604805
0.5943204520174713 13.039572481223608 38347.99701295901 11.261339633477839 0.23704239459707127
0.6147530893408614 13.024542472911023 32918.98286406902 11.807366152804068 0.24040530272831015
0.6355502856639059 13.012461395353949 28308.456613228016 12.376793282456386 0.24381271269880658
0.6567176855434304 13.003057843429882 24383.98074928093 12.970332519008307 0.2472628315845667
0.678246605671468 12.995994317745295 21040.078836825636 13.58926531913132 0.25075994071309465
0.7001294858785229 12.991079688180724 18182.683372464868 14.234810061576269 0.2543069207824566
0.7223594019868153 12.988002729833358 15739.015681285293 14.908155630036433 0.2579057548763766
0.7449411863933064 12.986650123554169 13642.141478571679 15.61036033040765 0.26155663055373274
0.7678579193542232 12.986761003203865 11842.76677306217 16.342632465518946 0.2652608688591573
0.7910981046519487 12.988121400979974 10295.460064307126 17.10661454120614 0.26902343822494273
0.8146685594936335 12.990646598103655 8962.222202651543 17.90376054287944 0.2728467691410546
0.8385451181384228 12.994114179048106 7812.022183002733 18.735469915166167 0.27673225320372347
0.8627215302176591 12.998372507994928 6819.033371670734 19.603017798259717 0.2806797568764159
0.8871915844155291 13.003325443077703 5959.5005877120675 20.508521602053282 0.28469593757014877
0.9119475551499852 13.008810838801608 5214.787527614685 21.45377403639509 0.2887838058162152
0.9369615827773183 13.014703168376146 4568.352474898815 22.440302515752283 0.29294363684636343
0.9622344127770779 13.02090251621116 4007.6501304781527 23.47004413546894 0.29717852817940515
0.9877552333938595 13.027299509662328 3519.3009401576737 24.545461414000105 0.30149491909998616
1.0134935303014905 13.033756084270637 3094.18054428296 25.668547514140876 0.3058948253031648
1.0394510296010886 13.04021250728827 2723.5482254034487 26.84115949705992 0.3103787421638802
1.0656018876941058 13.046538847733569 2400.000028089724 28.066441406002976 0.31495577346005577
1.0919246373217228 13.052665525431474 2117.292805456325 29.346507050715843 0.3196267765989623
1.1184185348851787 13.058502613508303 1870.0516964845308 30.683991053035435 0.3243956146905272
1.1450443603377827 13.063960066898781 1653.258621543887 32.08241598008399 0.32927118103109787
1.1718027432024225 13.06897398978555 1463.3197528232342 33.54358709401332 0.33425029738412915
1.1986532498210838 13.073434239741383 1296.4716930538798 35.07210789124362 0.3393469512006113
1.2255960170245006 13.07730452056599 1149.9887220872824 36.670078437497835 0.34455838035950564
1.2525868992710951 13.080478344059307 1021.0096201820587 38.34240079509755 0.34989812150147326
1.2796241470776588 13.082918335788314 907.5006566333045 40.091447662208985 0.3553635617686551
1.3066646891322058 13.08451212416445 807.4423784040065 41.92263532544537 0.3609689423445756
1.333697744198913 13.085232071556291 719.1942162505679 43.839331870827024 0.36671557203631755
1.3607019840392611 13.085039896287487 641.1910896405836 45.846419449339294 0.3726122943564339
1.3876292693771353 13.083787602913889 572.3050408387709 47.9491287502536 0.37866851270013824
1.4144832858031837 13.081506816982305 511.26808491049223 50.152093569250525 0.38488926955107083
1.4412116768835923 13.078082671592302 457.27807406182677 52.46075751249878 0.39128271440553225
1.4677971692720122 13.073475209276896 409.3921310494599 54.88141713275193 0.39785993703051303
1.4942021474678011 13.067622438382081 366.8627861532449 57.4202548312059 0.4046299859274314
1.5204120558845255 13.060491652204105 329.1397836105722 60.08389044970838 0.4116026186568951
1.5463942355473792 13.052020370612562 295.5709735820865 62.879420643293734 0.41878836020356464
1.5721089812847393 13.042151520976883 265.7138368821928 65.8144620213531 0.4261985661035134
1.597533994665698 13.030838307630955 239.1467735674897 68.89719843987237 0.433845490891522
1.6226190071011786 13.018038957039813 215.43936966827616 72.1364328747057 0.44174236249399634
1.6473710054088548 13.003714616614277 194.27906305204726 75.54164435975322 0.4499034632688219
1.6717194058490612 12.987801427227348 175.40062900734222 79.1229233680276 0.458343687383067
1.6956580395170635 12.97027149306845 158.51434895212714 82.89012204018385 0.4670749132310355
1.7191302253968834 12.951071552252838 143.4264899018027 86.85612050616851 0.4761193411961919
1.7421274343696134 12.930160038953597 129.91087458524726 91.03267338766676 0.4854920559010171
1.7646123615403233 12.907541342910648 117.78881589595387 95.43347120334225 0.49521342990826733
1.7865378194216561 12.883118276819198 106.92483208813698 100.0725578509905 0.505302510946627
1.8078788083166004 12.856886179310221 97.1782205304762 104.96624188980817 0.5157841955489252
1.8285931617018214 12.828775514030719 88.4178223954854 110.13092404027024 0.5266805532975766
1.848677113223402 12.798835411816263 80.54321734360694 115.5843328374546 0.5380153928520371
1.8680681199678328 12.766954232677985 73.45498757175531 121.34674340433209 0.5498183480849284
1.8867439783461435 12.73313415058113 67.0727239927194 127.43944373149922 0.5621187895445128
1.904673587793488 12.697343268894647 61.31746227251864 133.88508758976678 0.5749468413246693
1.9218208361605664 12.659560237861491 56.128062830134894 140.70882227256786 0.5883369816503183
1.938148515212155 12.619729820299499 51.44187352002993 147.9385317631875 0.6023283080064872
1.9536413379364492 12.5778628045805 47.20659872505413 155.60295913052732 0.6169575151372725
1.9682715463835512 12.533993667288232 43.380679963373396 163.73529856265202 0.6322707496080302
1.981998297979962 12.488030867208584 39.915035247285985 172.36934152541724 0.6483097605504078
1.994797528978151 12.439984140059915 36.780434176426155 181.54453190572426 0.6651283610904695
2.0066371222105097 12.38984424856254 33.93652923613274 191.30263428159577 0.6827803099896778
2.017501669466796 12.337622760080622 31.35700357403145 201.6896032693417 0.7013247366421305
2.027352188879327 12.283275129857548 29.019509779008164 212.75563466326417 0.7208252985983291
2.0361727144845365 12.226844405642364 26.89525399583204 224.55545556479987 0.7413500292752743
2.043931197772219 12.168288020968227 24.965759521467547 237.15079760456732 0.7629781414132016
2.0506040219346833 12.107620770548497 23.209232611306106 250.60779573195617 0.7857900903462728
2.056185547083969 12.044891793241158 21.61274414474027 264.99988613731546 0.8098754078725242
2.0606539108789748 11.980103884652626 20.159887649176213 280.40884236808046 0.8353342090384476
2.0639808095796623 11.91325979366635 18.838287265561753 296.92359199635973 0.8622712010940036
2.0661526514981188 11.844385394105345 17.63413906621937 314.64452276722284 0.8908073019128059
2.067162631917452 11.77353338096186 16.537895712586362 333.6812720608077 0.9210695980863347
