M[M_sun], R[km], Lambda[1], P_c[MeV/fm^3], rho_c[fm^-3]
0.24162668629717493 15.618656898711224 2160425.4255784233 3.5677272577965504 0.1711233750220791
0.25364482068143596 15.277267325274417 1723087.458549469 3.784851383026496 0.17388856913839307
0.2660429123608929 14.981205346847034 1382927.9581869675 4.011468288403282 0.17666746840807848
0.2788198686775365 14.723442724015785 1116312.9656534533 4.247833078589931 0.17945873048271585
0.2919777688361522 14.498258407129919 905777.7154854424 4.494571375057265 0.1822689295514058
0.30551430602098206 14.301106804332296 738535.5028955387 4.751840411157127 0.18509380375274867
0.31943297433304324 14.128012584017588 605002.1826512812 5.020319871208945 0.18793991463560575
0.3337343569668289 13.975810066965147 497586.6810606877 5.300237343438864 0.19080395420353702
0.34841700803255815 13.841892495174397 410922.94094090216 5.592317464681153 0.19369213831473067
0.36348296633552185 13.72382993011742 340596.9145043991 5.896732571966658 0.19659962318911697
0.37893761571962437 13.619882160232727 283233.2580891758 6.214344731795827 0.1995340469097685
0.39477322481905486 13.528332797052082 236342.75475213808 6.545407014022656 0.20249151019477446
0.4110010117339998 13.447768568800441 197809.64830654534 6.890630602992187 0.20547587227385833
0.4276110513244544 13.376958831790851 166025.77638257286 7.25071690611859 0.2084901374811119
0.4446107319954422 13.314825914897417 139756.33007747028 7.625918801278345 0.21152975433511848
0.46199241938446844 13.26046426653002 117938.23236113845 8.017197575926183 0.2146010736522653
0.47976252530989566 13.213075833746073 99776.36103739192 8.425252927681072 0.2177056531674548
0.49792269105089954 13.171896891017846 84610.28582994881 8.850517616813484 0.22084084244270094
0.5164655563876845 13.136309104721569 71910.94632039053 9.293881281802438 0.22401027874190965
0.5353866622715319 13.10577157360282 61250.32693770561 9.756221572932754 0.2272167719698695
0.5546983396726294 13.079749414793866 52284.644197049856 10.2383422022447 0.23046159242102637
0.5743829806374887 13.057799073268884 44309.09779188037 10.74072151936906 0.23374152868697184
0.5944422808756503 13.039482431881584 38309.89948888353 11.26460907141929 0.2370628221044942
0.6148847712953279 13.02446012426029 32886.818318774145 11.810938159421726 0.24042702648830697
0.6356924262091063 13.012416168109539 28278.56432923014 12.380688377537362 0.24383577584580868
0.6568671479505143 13.003000704209992 24360.57770990198 12.974532815627407 0.24728683875762877
0.6784023585047608 12.995957612666057 21016.79692563389 13.593830463459996 0.25078535821364134
0.7002947249949906 12.991054859143995 18162.934859220244 14.239764531805822 0.25433379902525494
0.722534253082695 12.987997029306511 15720.375407781888 14.913525477154492 0.25793414728226893
0.7451255119187121 12.986651367000466 13626.675945978659 15.616120884999532 0.2615860746876796
0.768050321496772 12.986760708198437 11829.303417056826 16.34886173888103 0.26529192022451153
0.7913005496326055 12.988136041685651 10215.527009194471 17.113343797595792 0.2690561603200482
0.8148770636151641 12.990687003100769 8950.786864327923 17.911023119370025 0.27288122954720334
0.8387652817242164 12.994142873051771 7803.1032111118275 18.74323359907673 0.27676792331425454
0.8629498119884884 12.998427755267507 6809.872194274852 19.61138353807687 0.2807172886749794
0.8874363595541467 13.003386471424832 5951.724558971785 20.51752966292549 0.28473541228961274
0.9121960725541692 13.008871240058824 5207.708800767637 21.463467440776665 0.2888253101666933
0.9372208737984131 13.014769977962 4562.727450346268 22.450640884058828 0.29298657654253457
0.9625087118705501 13.020975619138312 4001.883900254035 23.481157209031974 0.29722366167316056
0.9880328770237246 13.027362113613425 3514.2312949951956 24.55740150230511 0.3015423514025959
1.013780682695489 13.033822889578493 3090.0437236693797 25.681268398213327 0.30594391764470436
1.0397492662636243 13.04028043316379 2719.55574794727 26.85481669479987 0.3104303365976963
1.0659038591120111 13.046609088160439 2396.678659192276 28.081098847744926 0.3150099977106034
1.0922401759253815 13.052739024523786 2114.1839560120725 29.362112787296432 0.3196829476686814
1.1187432331858282 13.058576535905203 1867.0479295432397 30.700731403968003 0.3244546673631895
1.1453779575976535 13.064030120905613 1650.8024358668524 32.10023630771347 0.3293324099216011
1.1721451988226539 13.069037288618892 1461.0805827557642 33.56269643166207 0.3343146978222606
1.1990056436996308 13.073493950167709 1294.4726428223057 35.0925964324863 0.33941470125204476
1.2259553545672106 13.077353629593038 1148.1699005174128 36.691886725480025 0.34462873052068577
1.2529551889442423 13.080514543090548 1019.4327799365099 38.36569218937688 0.34997166729952944
1.2800013657930842 13.08295110076132 905.9977571525142 40.11633633706901 0.3554405590139029
1.3070542881812204 13.08455470122602 806.1132955367302 41.94913660216464 0.3610490597190238
1.3340893378911625 13.085240140568615 717.9737368292956 43.86774287651016 0.36680002423829794
1.3610994394169305 13.085029143424128 640.1122963749208 45.87668065278318 0.37270028982537495
1.3880413174668946 13.083776561024942 571.3358927409934 47.98136940751329 0.37876028001820994
1.4148863461125951 13.081451282336253 510.41140211044575 50.186667213955175 0.3849861487136277
1.441619349791592 13.078002088539284 456.50197365169765 52.497609259305 0.39138389549510577
1.4682153314469417 13.073395935280741 408.677299829746 54.92071015910344 0.39796570679075466
1.4946273024232861 13.067518412771916 366.22277120188676 57.46216553223263 0.4047406532689079
1.5208400591822222 13.060362348777655 328.56597830908885 60.12860962165239 0.41171851647748964
1.546825155265556 13.051867161294622 295.04238964179217 62.927154785020896 0.4189098473892928
1.5725429394271235 13.041972188268733 265.2352756729834 65.8654347670992 0.4263260297291085
1.597956486045442 13.030627729124506 238.69309463885253 68.95165213797488 0.43397934864242443
1.623065757622464 13.017807608828502 215.04058261442853 72.19463032888451 0.4418830653339597
1.6478085661844792 13.003443835066387 193.91418539171195 75.60387075155793 0.45005149838026465
1.672155972688964 12.987494560214154 175.0848125205564 79.18916345349733 0.45849822474463214
1.6960926986377314 12.96993161752832 158.22263477838806 82.9610221017003 0.4672378413659058
1.719573088764598 12.950702118629854 143.15242060580485 86.93204552178425 0.47629127400074317
1.7425506319629103 12.929733589328363 129.6610423506361 91.11365496047843 0.4856722100922777
1.7650338657235676 12.907079841974886 117.57035207304904 95.52028946554641 0.4954039285611192
1.786944715247502 12.882596497174344 106.72673288908264 100.16528839796042 0.5055026194439872
1.8082939915219711 12.85634937516029 96.99822235868047 105.06536558049372 0.5159946849138674
1.8289977994398647 12.828191242371119 88.25269787617204 110.2370817695662 0.5269026907395631
1.8490777214943734 12.798206982618984 80.3926965621765 115.69829764091239 0.5382508048097506
1.8684488165762403 12.766247516148317 73.31902147021208 121.46883902872702 0.5500668900331417
1.887124695018075 12.732407135061857 66.94737858433712 127.57014988306562 0.5623807936455738
1.9050431516007613 12.69656874301507 61.20052772420586 134.02508472898393 0.5752232391462099
1.9221794452335468 12.658727525501485 56.0230018588535 140.85918972020258 0.5886299546201612
1.938488496547701 12.618822712174298 51.346956667063694 148.10016999768482 0.6026392271925464
1.9539773690682722 12.576947910906402 47.12160807931083 155.7763247819943 0.6172860604009488
1.9685860234090329 12.532991818295 43.29931851895039 163.92156683901695 0.6326188893113925
1.9822958416059144 12.486969359140671 39.84488759151879 172.5699771375008 0.6486802122710761
1.9950757869274722 12.438865139995139 36.71433135843732 181.76038678990682 0.6655215437550054
2.0069045605528917 12.388677223837192 33.8729619547434 191.5351101775621 0.6831982346959854
2.017743139730767 12.336376732402552 31.300671396773712 201.94024645990146 0.701769603581462
2.027570203680249 12.281966807295253 28.96757583021502 213.02552066907342 0.7212974480187255
2.03184308128986 12.238525300743087 27.552300674302117 227.6708546621487 3.225584699722366
