M[M_sun], R[km], Lambda[1], P_c[MeV/fm^3], rho_c[fm^-3]
0.24162668629717493 15.618656898711224 2160425.4255784233 3.5677272577965504 0.1711233750220791
0.25364480683324836 15.277249879226881 1723322.4026757558 3.7848369630213403 0.17388838939998524
0.2660416339835856 14.98122479390028 1383019.1628649482 4.0114379743617254 0.1766671020807764
0.2788173480477125 14.723500016127545 1116487.8242564385 4.247785844618853 0.17945818263983143
0.2919732538122887 14.498338859191891 905804.1160026151 4.494505981368397 0.1822682013775032
0.30551001784422055 14.301161641816849 738618.3577060475 4.751754636947181 0.18509287722757872
0.31942749750114896 14.128055662272601 605070.3810596012 5.020213084295139 0.18793880668015903
0.33372459050696107 13.97592731846396 497622.4394235354 5.30010673196479 0.19080263916271673
0.3484092597955792 13.841957738998612 410965.3981260178 5.592162702184755 0.19369064094500432
0.36347165110123164 13.72394507627482 340626.04338297324 5.896550180962652 0.1965979101342093
0.378928059526617 13.619932118991091 283264.5888855935 6.214132504583421 0.19953211165312956
0.39476171714754754 13.528411187308132 236391.5876368044 6.545165170592172 0.2024893895546036
0.4109881752941248 13.447805832174742 197840.21263296856 6.890354473878359 0.2054735206424519
0.42759701476359446 13.377006504792714 166046.87846885435 7.250403899550004 0.2084875480579867
0.4445937653908592 13.314881781403678 139783.45113151518 7.625569782044792 0.21152697591760075
0.461977391911987 13.260514463062183 117958.79948556307 8.01680645538934 0.21459804801870544
0.47974391959346235 13.21310666737183 99794.39239065548 8.42481665521325 0.2177023730083945
0.49790124884434234 13.171949189890329 84624.22213067986 8.85003780074923 0.2208373683693861
0.5164429907183308 13.136353640790006 71926.9743434974 9.293350156028227 0.22400653958334735
0.5353628772171087 13.105811890954685 61262.914828818786 9.75563553540434 0.22721275964674223
0.5546708322102499 13.0797897290005 52293.45351386097 10.23770370267872 0.23045737913059214
0.574356016916203 13.057809110761484 44317.0171743783 10.740020817805446 0.23373702996588328
0.5944143936362364 13.039518113118975 38319.93892589451 11.263841899281545 0.2370580287990946
0.614853938638579 13.024477173644412 32894.5202881168 11.810099983501118 0.24042192898024403
0.6356596436999945 13.012430599038227 28284.066863022585 12.379774381761997 0.24383036400900154
0.6568321441799938 13.003000454156926 24364.218284734554 12.973547197284388 0.2472812053673519
0.6783656193083578 12.995972396490368 21022.041677618086 13.59275922411775 0.25077939383998593
0.7002564057841514 12.99105664175545 18167.36569987631 14.238601926200067 0.2543274918331027
0.7224922858671278 12.988005957235334 15724.745825646536 14.912265390816271 0.2579274847308057
0.7450828007713295 12.986643933985459 13630.428885403868 15.61476910716888 0.26157916529607894
0.7680054890108334 12.986753549420415 11832.807853588234 16.347399960261974 0.2652846336247223
0.7912526864804114 12.988146650835283 10287.192488286799 17.111764679924104 0.26904848160554484
0.8148308624760031 12.990666410706599 8953.546701374367 17.909318837784575 0.27287314285294234
0.8387136999465304 12.994143366523657 7805.297724438362 18.741411713473475 0.2767595526925765
0.8628975556510364 12.998419698959532 6812.017114453804 19.60942035481483 0.28070848110979757
0.8873798824191974 13.003364305748518 5953.439482107181 20.515415730749996 0.28472614871104934
0.9121380532767461 13.008862676951463 5209.509280591047 21.461192661128024 0.2888155702189844
0.9371598228986845 13.014752606270786 4563.774613596156 22.44821473403125 0.2929764996965603
0.9624458079489551 13.02096052026613 4003.24094704561 23.478549235721026 0.29721306991864044
0.9879681691861641 13.027353723729961 3515.2693465800517 24.554599426902307 0.3015312200872282
1.0137120061147806 13.033806824216695 3090.7134191043356 25.67828306875691 0.30593239668339006
1.0396788956450131 13.04026475040032 2720.4615011253304 26.851611606920486 0.31041822835282673
1.0658320115964761 13.046590870607087 2397.346162665315 28.077658994410818 0.3149972721973577
1.092166716010345 13.052726130655513 2114.918816112985 29.35845036196169 0.3196697651862169
1.118666541588086 13.058554304551105 1867.6924419071395 30.696802670809603 0.3244408085023977
1.1452997423441502 13.0640159379184 1651.481138015928 32.09605409156225 0.3293180402388372
1.1720641452021852 13.069018138512046 1461.4701244840958 33.558211663850116 0.3342995836923354
1.1989235810039893 13.073475226263783 1294.9483623756464 35.08778793990751 0.339398800870672
1.225870875837803 13.077347022140497 1148.6053602060117 36.68676846470357 0.34461221980371065
1.2528687466753106 13.080504199981002 1019.7303382340231 38.36024338408022 0.3499545095340084
1.2799134172044977 13.082944490084037 906.3535648522209 40.11049504002595 0.35542248799230297
1.3069579274433076 13.084528218094265 806.4433073099814 41.94291678850008 0.36103025628001817
1.333997037690766 13.085237250253666 718.2912809963943 43.86107479340846 0.3667802032468411
1.361006178227504 13.085029838754995 640.3593382494015 45.869578275197156 0.3726796370761399
1.387938897191439 13.083771148096139 571.5508567475454 47.973802391164824 0.3787387418469962
1.414789743119729 13.0814580416101 510.6079363198102 50.17855256110343 0.3849634105620839
1.4415212741741623 13.078018898597094 456.68730750390563 52.488959854815405 0.39136014747102915
1.468117310122444 13.073413785319566 408.8419044545023 54.91148769391179 0.3979408815730829
1.494527527804042 13.067545413577038 366.382700632179 57.45232859367514 0.40471467833143954
1.5207397202866986 13.06039459770019 328.7059084701362 60.118113415540826 0.41169131366133815
1.5467262482126578 13.051898336369508 295.16229237174764 62.91595082997973 0.4188813324329591
1.5724407791768567 13.042014727243869 265.3480781524627 65.85347055807732 0.42629611175162885
1.5978548090335052 13.030675560348588 238.81001940962784 68.93887077546482 0.4339479295745065
1.6229517689451514 13.017854694713652 215.1377617482934 72.18097010995956 0.4418500392914226
1.6477055395978593 13.00350676626085 194.0139519694206 75.58926471835096 0.45001675097340366
1.6720525105957154 12.987568043654681 175.15206229605224 79.17361518772759 0.4584619508184751
1.6959903713443756 12.970007816119882 158.2930239481298 82.94437985808811 0.4671995975385551
1.7194705165044606 12.950789495796414 143.2156320878779 86.91422360348098 0.4762509161243369
1.7424509822535574 12.929837613706242 129.72182052322086 91.09464595025469 0.48562992204149497
1.7649335476443893 12.907183415939427 117.62552040427384 95.49991018239504 0.4953592118634123
1.786860376398969 12.882745523325255 106.78283056894644 100.14352109518893 0.505455646548954
1.808197602984514 12.856475970534648 97.04116227385373 105.04209734907188 0.515945274775671
1.8289106650650606 12.828342896872199 88.29075666210613 110.21218945105998 0.5268506475231165
1.848983227568038 12.798353560939539 80.42462917559672 115.67154504558975 0.5381955431794251
1.8683574892179238 12.76640743907498 73.35358290762389 121.44017747037672 0.5500085456036299
1.8870337065132832 12.732579196300556 66.9784649681073 127.53952740210362 0.562319505174425
1.9049549442234253 12.696751844447213 61.22783526920787 133.9922201734281 0.5751583543091888
1.9220945621976828 12.658924179707922 56.048526894855385 140.82389031226066 0.5885611779498039
1.9384062409864193 12.619024793270539 51.36757046465577 148.06222427370398 0.6025662367045518
1.9539001866696855 12.577169229847676 47.14267960583533 155.7356255182791 0.6172089312221547
1.9685133852117112 12.53322977280225 43.322039824387296 163.8778673158247 0.6325372582389011
1.9822250067528164 12.487216865478242 39.86053100757861 172.5228748349287 0.648593243019436
1.9950091156199743 12.439125842708814 36.728562055640424 181.709710907327 0.6654292369322253
2.00684299999131 12.388955083731085 33.888494605618 191.48053151366068 0.6831001179773172
2.01768657811008 12.336668849743605 31.314903106003403 201.88140185965764 0.7016651602205705
2.0275190516875403 12.282275630516413 28.979209917072723 212.9621575525362 0.7211865980372385
2.036324763574944 12.225792567562713 26.858739663293207 224.77861408095487 0.7417357640830989
2.0440644836108746 12.167186789317926 24.931635037377347 237.3916788175964 0.7633888660091414
2.05071964260771 12.106465558455781 23.178151214045382 250.86841343611115 0.7862290415083016
2.05628765595003 12.043705074492081 21.58509356820096 265.2821387478916 0.8103450598263974
2.0607282482082625 11.978845989916081 20.13366875943496 280.7141737975505 0.8358351150448988
2.0640285478239067 11.911934596070488 18.813866521267588 297.2547914531448 0.8628078035586834
2.066184602504537 11.843019090724988 17.611438991549328 315.0043057183504 0.8913832436537009
2.06717163644899 11.772114359063803 16.51721358094102 334.07201119422905 0.921686739335552
