M[M_sun], R[km], Lambda[1], P_c[MeV/fm^3], rho_c[fm^-3]
0.24162668629717493 15.618656898711224 2160425.4255784233 3.5677272577965504 0.1711233750220791
0.2536414481698769 15.277389280388023 1723245.7339837344 3.7847936397774027 0.1738878493966494
0.26603713014378133 14.98132611804159 1383149.220368052 4.011346900302614 0.17666600150452028
0.2788109634638411 14.723592963604057 1116612.970098844 4.247643938614832 0.17945653674403259
0.2919636427379852 14.498494287321355 905976.3370359284 4.49430951974734 0.18226601373175635
0.3054965087170485 14.30133713393965 738803.8840621441 4.7514969489879295 0.18509009370581395
0.3194110767112583 14.128258858720574 605183.7928111315 5.019892271860939 0.187935478127332
0.3337070328465671 13.976115422803346 497763.230278126 5.29971434902748 0.19079868851761905
0.34838603132093837 13.842154833226555 411084.5617699108 5.5916977691221605 0.19368614258972505
0.363445895881036 13.724116499179836 340726.0843975117 5.896002252520862 0.19659276387432997
0.37889807295287076 13.620109349633651 283361.24635121133 6.213494950168482 0.1995262979245308
0.39472777379999274 13.528570584319652 236457.53367748318 6.544438652209347 0.20248301896986448
0.41094956382921466 13.448006497048809 197921.60035936267 6.889524966309909 0.20546645620790963
0.4275548987392405 13.377160857292507 166125.0766643796 7.249463618960574 0.2084797693576436
0.44454756557414754 13.315037163784233 139846.94776820298 7.624521327327387 0.21151862954389605
0.46192594032874745 13.26066177043413 118015.95141094872 8.015631539244334 0.2145889590924449
0.4796874855428438 13.213250079327203 99842.76775787746 8.423506116030554 0.2176925195858408
0.4978409970158038 13.172074232202815 84673.24463902993 8.848596470733883 0.22082693252424207
0.5163763971476604 13.136477027737879 71963.3135993374 9.291754710320816 0.22399530754610275
0.5352921325168546 13.105910182030277 61300.57287087644 9.753875156727888 0.22720070716250051
0.5545946402825731 13.079871111971935 52319.33135264336 10.235766973961079 0.23044448162924466
0.5742725734599938 13.057908111761632 44747.098533386066 10.73791603940648 0.23372351663658317
0.5943269249683565 13.039575990789722 38344.939716103276 11.2615374764044 0.23704363072325665
0.6147614859813495 13.024533321038946 32916.87116184784 11.807582303059757 0.24040661728250348
0.6355588047661346 13.012471830947126 28307.388472669874 12.377028981399143 0.2438141082897362
0.656727461684921 13.003040218754016 24382.117707355814 12.970586684290303 0.2472642842890932
0.6782551853207577 12.996001552884705 21037.90175385081 13.589541559324477 0.25076147874448096
0.7001393779431212 12.99106970420426 18181.65972970466 14.235109857460486 0.25430854718976004
0.7223694590154698 12.988013817280777 15736.897239529744 14.908480557518883 0.2579074728904587
0.7449534629512123 12.986648937940155 13641.486485598269 15.61070889685376 0.261558412194192
0.7678690947835963 12.986762735323618 11841.987905966067 16.34300939035266 0.2652627477349173
0.7911102423945442 12.988122673529045 10294.74089173043 17.10702171564486 0.26902541817635733
0.8146804204651572 12.990657438244117 8961.431419393548 17.904199983505496 0.2728488542554037
0.8385581945525876 12.994117462122112 7811.6013862695445 18.73593967308068 0.2767344114982814
0.8627350299339723 12.998380225929433 6818.650783309125 19.60352398020226 0.28068202779555984
0.8872056477686157 13.003337325458798 5959.046355425485 20.509066643614524 0.2846983260267802
0.9119617700626488 13.008816057320155 5214.33974439609 21.45436053992166 0.28878631705447216
0.9369772835972848 13.014712637418286 4568.0858173168135 22.44092803840821 0.2929462349113576
0.9622514070927358 13.020904457999123 4006.8563787968046 23.470716525369482 0.2971812589545778
0.9877721231053941 13.027300312304549 3518.8247281528834 24.546183835143754 0.30149778893624046
1.0135112245812083 13.033755346433662 3094.121962936955 25.669317170565886 0.30589779555553637
1.039469721220926 13.040209893541684 2723.3000903253537 26.841985795743515 0.31038186377151555
1.0656193204463587 13.04654894503867 2399.7472598190607 28.067328213712113 0.3149590541473854
1.0919437238521503 13.052663598537086 2106.6472007086672 29.347451225001485 0.3196301750466647
1.1184379257945856 13.058506572872252 1869.8954135477054 30.685003863542878 0.32439918744522067
1.145064517777856 13.063971131108014 1653.1159612668691 32.08349412184174 0.3292748854199848
1.1718238666026783 13.068983511173045 1463.144707134711 33.54474321017498 0.3342541936147945
1.198675160901237 13.073438723724523 1296.3511594004601 35.07334743675757 0.3393510500415844
1.2256171333385693 13.077311177682338 1149.8649659116375 36.67139781605901 0.3445626364705086
1.2526091885755735 13.080474968779813 1020.9072809705349 38.34381518262659 0.3499026019711007
1.2796468064735176 13.082926710510073 907.3813728468834 40.092953372506166 0.35536821993328926
1.3066883412048473 13.08451821926294 807.3629380503991 41.92423858075321 0.36097378922826334
1.3337205107845946 13.08523620072158 719.1517531587143 43.841050640994645 0.36672068111013817
1.3607259666035252 13.085037425514617 641.1099902296331 45.84825013385909 0.3726176177383378
1.3876542476695672 13.083786904397252 572.2540666051441 47.951079166216296 0.378674064213576
1.4145081220635423 13.081504395128476 511.2289438092606 50.154185096924614 0.38489513024210475
1.4412295121476133 13.078061335421324 457.2179343454052 52.46298683253042 0.3912888352830851
1.4678224985048913 13.073470440780502 409.34719057324156 54.88379411328187 0.39786633543460903
1.4942272834398846 13.067615081763861 366.8198859196566 57.422790139557755 0.40463668053831237
1.5204385128602596 13.060484580487929 329.0996531334944 60.08659562392658 0.41160962960505426
1.5464207591291934 13.052007944812237 295.5376478195202 62.882308170818625 0.4187957091906841
1.572135503248581 13.04214197672523 265.6826635696656 65.81754542562676 0.42620627653547355
1.5975581496342313 13.030828273437997 239.11529973779665 68.90049237576693 0.43385358802478985
1.622646094970418 13.018027289321966 215.41787853857792 72.139953233776 0.44175087359685933
1.647397797695257 13.003696686399707 194.26306373976678 75.54540838643643 0.4499124177991002
1.6717465949389376 12.987780734223389 175.37464057668817 79.12693014136605 0.45835303513942516
1.6956837398433129 12.970250450246077 158.49832423642655 82.8944106383567 0.4670847684171463
1.7191565464922793 12.951048480143895 143.40728609092073 86.8607129976515 0.4761297409298521
1.7421534956206375 12.93013599966169 129.89578869015375 91.03757168435422 0.48550295280814854
1.764638279628547 12.907512848414497 117.77459019671171 95.43872247420653 0.49522495236909536
1.7865638590019497 12.883088655563418 106.9145280997265 100.07816666790443 0.5053146145301957
1.8079045605967485 12.856852362436987 97.16913758910135 104.97223732695223 0.5157969268722675
1.8286189376941882 12.828740561880968 88.40526900241893 110.13736316667584 0.5266940571658099
1.8487014883970012 12.798796417472895 80.53226530389752 115.59122574988326 0.5380296312305536
1.8680919190864955 12.766914815108551 73.44536706559259 121.35412799723605 0.5498333804099294
1.8867667023963732 12.733089754351004 67.06678279400671 127.44736144877548 0.5621346803399095
1.9046945390278816 12.697297746376073 61.31124665292744 133.8935546897271 0.5749635580090022
1.9218419184584785 12.659510613906976 56.12230446157304 140.7179164458468 0.588354700558205
1.9381631796186058 12.619645470621 51.43601651509903 147.9483074475039 0.6023471120216404
1.953668291465771 12.577838732221679 47.20574375505979 155.6134439339242 0.6169773848892531
1.9682908511434822 12.533933804796138 43.37499342017836 163.74658893631164 0.632291890087879
1.9820161412124861 12.487966547289256 39.91366703103533 172.38147519640697 0.6483321640472222
1.9948142160047826 12.439916430692008 36.77618044152857 181.5575857832753 0.6651521389094309
2.0066531552416484 12.389774705761852 33.93193450843286 191.3166930991647 0.6828055836946315
2.017516453330043 12.337547524756427 31.35465936666535 201.70476049547818 0.7013516392233856
2.0273637765115016 12.283196154436174 29.015896470038566 212.77195531447364 0.7208538506011865
2.036184745091176 12.22676095399582 26.892443985240366 224.57309062973934 0.7413805119048535
2.0439411399114458 12.168200616947674 24.962420403502723 237.16983296301677 0.7630105984479758
2.0506136291401456 12.107529770753038 23.206834667199523 250.62841014984693 0.7858248415951763
2.0561927229925225 12.044796402927178 21.611042541161094 265.02219182907334 0.8099125258395427
2.0606598028133205 11.980003853272331 20.158508783001366 280.43300887823375 0.8353739183914192
2.06398016356801 11.913143689809832 18.835334391965535 297.0446695754618 0.8624226522365762
2.0647550003630006 11.84919229616694 17.79181937418196 315.7055554436627 1.4284575664177
