M[M_sun], R[km], Lambda[1], P_c[MeV/fm^3], rho_c[fm^-3]
0.24162668629717493 15.618656898711224 2160425.4255784233 3.5677272577965504 0.1711233750220791
0.25364434730434665 15.277285742610413 1723180.9815397027 3.7848261784887085 0.17388825497598862
0.26604065958109074 14.981252449139465 1382987.6357529105 4.011415302994965 0.17666682811068882
0.2788161448881235 14.723474990761453 1116444.1283559888 4.2477505192798075 0.17945777291913265
0.29197166001360547 14.498375368841652 905815.3008544144 4.494457074958349 0.18226765679327672
0.30550637903820815 14.301208710322214 738606.8552788992 4.751690488711518 0.18509218430420482
0.3194232352505107 14.12811767770991 605065.852402345 5.0201332215612515 0.18793797807347076
0.3337221689001481 13.975935458285058 497667.11898105044 5.300009051985397 0.19080165568740465
0.3484034493089414 13.842006989983075 410994.06535924226 5.592046960933099 0.19368952111655524
0.36346499949464833 13.72398550071072 340635.6289311289 5.896413777939349 0.19659662900814848
0.37891979438815176 13.619994296659737 279373.06990603986 6.213973788915801 0.19953066435734695
0.39475211503206337 13.528461980202895 236406.20318860386 6.544984306924422 0.20248780362457228
0.41097850025816274 13.44784944014633 197856.43425976788 6.890147970375568 0.2054717619719663
0.4275860315779219 13.377055901259634 166075.3882557196 7.250169818169333 0.2084856115627143
0.44458300609897494 13.31491063162712 139790.15677186818 7.6253087696306645 0.21152489809095387
0.4619644766695935 13.260571301416748 117976.36358763785 8.016513958906398 0.21459578532193666
0.47972943025253595 13.213138928251528 99802.85557724419 8.424490393533617 0.21769991997666913
0.49788696762697165 13.171974996008842 84639.69281759164 8.849678976741462 0.22083477033025617
0.5164257712183619 13.136393866690428 71933.43068468421 9.292952962336663 0.22400374331499662
0.5353447916846392 13.105835894823114 61270.54897874008 9.755197278612616 0.22720975910876326
0.5546524831359613 13.079794132752296 52301.68045556154 10.237221583188486 0.23045416875925429
0.574335327790181 13.05782967034227 44726.84410643332 10.739496815627305 0.23373366570958404
0.5943928943212008 13.0395158354927 38324.765549778436 11.26326819101248 0.2370544442594475
0.6148305081517697 13.024494857087975 32899.37261993165 11.809473179511212 0.24041811696618604
0.6356356101730332 13.012450830691 28290.884524987654 12.379090880932335 0.2438263169498713
0.6568062794816414 13.003024721430288 24369.52988620551 12.972810138387718 0.24727699264094377
0.6783386219954342 12.99597359463295 21026.407582597294 13.591958139813245 0.25077493361720177
0.7002275508001078 12.991060690068217 18170.95191725293 14.23773252064045 0.25432277526551045
0.722458673342663 12.988023810640449 15728.224785439084 14.911323092114321 0.25792250244236625
0.7450496436372588 12.98666395540955 13632.862985298847 15.613758244416722 0.2615739984362217
0.7679708667085121 12.986764313964677 11835.336330516464 16.34630684295864 0.2652791847091285
0.7912164943376526 12.98814643941427 10287.846016664846 17.110583821203438 0.26904273948945856
0.8147924255728094 12.990657138043561 8955.63333461906 17.90804438697705 0.27286709567498824
0.8386768002000857 12.994129944216038 7807.0809891098515 18.7400493235534 0.27675329321581327
0.8628549107865267 12.99840978140459 6813.471549348549 19.60795230960861 0.2807018949168049
0.8873372651097932 13.003372338697499 5954.966974128687 20.51383496362514 0.28471922154440643
0.9120938090225525 13.008858221345568 5210.696161310421 21.459491621505258 0.28880828685991866
0.9371148829484498 13.014735980523861 4564.723279848364 22.446400508272315 0.2929689644356212
0.962398784937158 13.020948612752672 4004.1630933472206 23.476599054142206 0.2972051496517934
0.9879201764207945 13.027333751864338 3516.2931319828504 24.552504108907293 0.3015228963835282
1.013662304692335 13.033792106459606 3091.5692786670497 25.676050725635612 0.30592378164135997
1.0396271896113607 13.04025257630902 2721.1686981278062 26.849214944774392 0.3104091741948046
1.0657768987973408 13.046586676068522 2397.8772916802063 28.07508679297766 0.31498775650577754
1.0921083827237388 13.052707329272685 2115.555349893008 29.355711738330605 0.3196599078226685
1.1186094477517101 13.058543484580134 1868.3904649353774 30.693864924791942 0.32443044541295923
1.145241152166534 13.063995310267401 1651.9256008143104 32.09292681219476 0.32930729521495516
1.1720048352033283 13.069012718305219 1461.9051524538506 33.55485816415136 0.3342882820525903
1.1988615041595296 13.073464851725625 1295.2787990173679 35.084192389858316 0.33938691136141513
1.2258076684237706 13.0773382540062 1148.9161674350128 36.6829412993129 0.34459987396059283
1.2528036621757932 13.080493573578707 1020.0617173016749 38.35616906985098 0.349941679909091
1.2798479068096802 13.082934324342526 906.6217927376881 40.10612726227143 0.35540897554711076
1.3068908345864039 13.084523749030948 806.6823021536838 41.93826599587939 0.36101619622933384
1.333923441584745 13.085241845484216 718.4728758012159 43.85608883608097 0.3667653824031165
1.3609370113337038 13.085030168035246 640.5571343670041 45.86426760154334 0.3726641943585551
1.3878672300545225 13.08377188640093 571.7318827603542 47.96814431483653 0.3787226371352991
1.4147251718744822 13.08147990460361 510.7672689406935 50.17248503108384 0.38494640867431335
1.4414490443641446 13.078027944145077 456.8207900012304 52.482492504269246 0.39134239054953623
1.4680432959468503 13.073431036908213 408.9673541997592 54.90459188231096 0.39792231928843813
1.494452822933571 13.067562242771304 366.47666766753895 57.44497336038349 0.40469525646317234
1.5206649822602123 13.06041450135827 328.792646034941 60.110265272069164 0.4116709737783632
1.5466488008322943 13.051928482973766 295.2566095365763 62.90757353151054 0.41886001154233027
1.5723648741551268 13.042046229746902 265.4284830089417 65.8445248519497 0.42627374191222067
1.597789190005949 13.030716496995767 238.88764040591965 68.92931412402933 0.43392443747182313
1.6228762876339218 13.017894240494755 215.20290213945356 72.17075638489601 0.44182534576928617
1.6476279319351614 13.003554451238417 194.0737413053386 75.57834386317971 0.4499907705177571
1.6719774984677516 12.9876208462488 175.20296278137047 79.16198987904137 0.4584348291063123
1.6959145925139711 12.970067546541955 158.34793814009444 82.93193665565947 0.46717100309561455
1.7193945108421298 12.950856080221195 143.26014200088213 86.90089844332591 0.4762207411926892
1.7423776078929436 12.929919461702223 129.76294501338708 91.08043328623802 0.4855983040955515
1.7648589113540452 12.907266455061704 117.66368601105265 95.4846730771544 0.49532577825223406
1.7867862650743325 12.882827019668408 106.81322803869524 100.12724628067232 0.5054205262052901
1.8081241478633394 12.856568892392506 97.07534738199789 105.02470041975566 0.5159083323598026
1.8288339836987235 12.828433735991458 88.31787681953767 110.19357834022469 0.5268117366410598
1.8489134383704315 12.79846571803473 80.45649489019743 115.65154319498278 0.5381542262581791
1.8682897097104998 12.766525940109785 73.37431692857103 121.41874848378257 0.5499649240397716
1.8869683742282037 12.732703606081214 67.00000878553016 127.51663243488137 0.56227368271021
1.9048919108619728 12.696887122149333 61.24883290889292 133.96764906067148 0.5751098433033444
1.9220327564355346 12.65906922679472 56.06786237984518 140.79749895003852 0.5885097575400673
1.9383460184525887 12.619180500629785 51.38537952862999 148.03385459169058 0.6025116662097193
1.9538415418830755 12.577334400459904 47.155994993677425 155.70519736255406 0.6171512668211544
1.9684571398743769 12.533403198294398 43.33265114298829 163.84519626324263 0.6324762284411624
1.982172454994714 12.487401768543577 39.87440060058462 172.48766001087563 0.6485282226971312
1.9949628978124618 12.439324792281791 36.74192280888179 181.671824637158 0.6653602265657896
2.0067982792270507 12.389162732094306 33.89963723472838 191.43972772711035 0.6830267645208679
2.017644494165966 12.336887307190777 31.323752746402604 201.83740910985438 0.7015870774291966
2.0274799295596324 12.282500987507195 28.989067505398722 212.91478703861128 0.7211037261572147
2.0362897337150576 12.226034219214892 26.866055964256574 224.72742726305253 0.7416472864497695
2.044033252055105 12.167438308451894 24.938488287951337 237.33642628732164 0.7632946553694391
2.0506927983155827 12.106730731001598 23.18473952337651 250.8086959359151 0.7861285597012994
2.05626520802096 12.04398322176954 21.59126749442865 265.21741093137825 0.8102373817677688
2.060711360227415 11.979132457240777 20.13898394712079 280.64414839020543 0.8357202570785821
2.0640167600430015 11.912235799995711 18.81990853271411 297.17881847607987 0.8626847137229154
2.0661769621582824 11.84333323063303 17.61658505293798 314.9217749862236 0.8912511281841116
2.067168730193191 11.772440293385616 16.521576676320084 333.9823782763514 0.9215451713015912
