M[M_sun], R[km], Lambda[1], P_c[MeV/fm^3], rho_c[fm^-3]
0.24162668629717493 15.618656898711224 2160425.4255784233 3.5677272577965504 0.1711233750220791
0.25364475126637315 15.277265362667757 1723082.5458885308 3.784842416421145 0.173888457373983
0.2660422002310576 14.98122454044366 1382980.0645127469 4.011449438595544 0.17666724061927636
0.2788183883633772 14.723456114239342 1116349.8762555695 4.247803707641456 0.17945838982397463
0.2919743505227002 14.498346959195297 905771.2847574524 4.494530712024473 0.18226847675909827
0.30551155827918813 14.30114010594097 738543.5332090289 4.7517870750787585 0.18509322762130886
0.31942940291401356 14.128051939461946 605036.5909156555 5.020253468959792 0.18793922568664187
0.33372861067530524 13.975898922099235 497612.7758625399 5.3001561265220865 0.1908031364839483
0.348412138081943 13.841887124372663 410942.517466415 5.592221230073674 0.19369120721843008
0.36347685277309194 13.72388184922976 340615.4451357061 5.896619157260911 0.19659855797419948
0.3789308495070604 13.619933655729715 283245.37936776876 6.214212764162952 0.19953284352385606
0.39476602424560664 13.528357657858928 233241.79713876237 6.545256630235496 0.2024901915321196
0.41099300071957295 13.447783413695896 197831.03730320925 6.890458899426126 0.20547440997423716
0.4276020029516705 13.377014499914019 166051.82104317515 7.250522271110329 0.20848852731556922
0.4446009278087843 13.314840659816825 139767.1454444554 7.625701772554648 0.21152802664692882
0.4619817889237986 13.260500112366987 117942.77992579888 8.016954367363956 0.2145991922374108
0.4797510466980232 13.213087377682388 99790.82537403826 8.424981642276576 0.21770361348046302
0.4979113219796704 13.171905674946789 84619.06794537886 8.850219254653668 0.22083868217318353
0.5164515284102474 13.13634219470641 71921.53748694545 9.293551013638103 0.2240079536334429
0.5353721105276275 13.105811982727895 61258.55028510449 9.755857158860382 0.22721427699823443
0.5546814814519037 13.079755077900362 52288.76849701209 10.237945165553784 0.23045897248049546
0.57436567127974 13.057826423378053 44314.30087519035 10.740285803382024 0.23373873125536715
0.5944251971029901 13.03949192467514 38317.09294056804 11.264132021747034 0.23705984148950912
0.6148652828125699 13.024473221662287 32891.64776752158 11.810416957112194 0.24042385670865815
0.6356722903197994 13.012423003918041 28282.959734933826 12.380120027738457 0.2438324106044761
0.6568452327754103 13.002996302177923 24362.41481141114 12.973919928342035 0.24728333574523184
0.6783797337051564 12.9959669450487 21020.74554608783 13.59316433388228 0.25078164938261943
0.7002709399131125 12.991055566793037 18165.72802154065 14.23904158725947 0.25432987701580767
0.7225080390172938 12.987990549052547 15724.143333114267 14.912741915370528 0.2579300042957513
0.7450985062305148 12.986640855258187 13628.671593420208 15.615280305935103 0.26158177820508033
0.7680219234473448 12.986752498995319 11831.62988217734 16.347952757002837 0.2652873891778293
0.7912698250788153 12.98815156345674 10286.25403295146 17.11236184960756 0.2690513854394969
0.8148464567976924 12.990677253765487 8952.657272537908 17.909963339380187 0.27287620096692944
0.8387333049293546 12.994141938380956 7804.38549398035 18.742100688132524 0.27676271817464976
0.8629154317468752 12.99842475197889 6811.170908971371 19.610162762350225 0.28071181182419697
0.8874011075650498 13.003366405236138 5952.701834835326 20.516215145134442 0.28472965186883314
0.912159876934952 13.00887171605528 5208.868228193431 21.462052901104375 0.28881925351744886
0.9371826074858163 13.014757832119107 4563.074846612 22.449132215782075 0.2929803103934184
0.9624703522475254 13.020962914485485 4002.7445229701016 23.479535474999498 0.2972170753293905
0.9879926355711256 13.02735420017809 3514.9802895437383 24.555659066882995 0.3015354295338368
1.0137370236239018 13.033812928597772 3090.6849668964373 25.67941200722358 0.30593675347435423
1.0397056572710417 13.040273566762934 2720.143074159332 26.852823647899932 0.3104228072253954
1.0658598821948015 13.046600792853088 2397.0393194188173 28.078959812712494 0.3150020844898947
1.0921948953652054 13.05272685218882 2104.052284847551 29.359835346631623 0.31967475028064374
1.1186954832186158 13.05856034580347 1867.4379417254445 30.69828836032355 0.3244460493684284
1.1453295828238688 13.064012424027716 1651.2463692818137 32.09763563623529 0.3293234742705579
1.1720950369648973 13.069028378186488 1461.2836514572873 33.559907618666166 0.33430529923492575
1.198953412135136 13.07348265317369 1294.7161699524925 35.089606311261996 0.33940481373177966
1.225902997744741 13.077343890132683 1148.4264506659292 36.688703974986495 0.34461846346027286
1.2529015090577016 13.080510648871938 1019.6191002962945 38.362303889671175 0.34996099786858076
1.2799459332040821 13.082948176478554 906.2084688304178 40.11270396563993 0.35542932167019825
1.3069986685411044 13.084552153769078 806.3401663621515 41.94526884955092 0.3610373669169106
1.3340316397417118 13.08524384713696 718.1331022668461 43.863596366094306 0.3667876986649248
1.3610420629614826 13.0850288666322 640.2760275759564 45.87226407502352 0.37268744701719664
1.3879808337217203 13.083782717979956 571.4476751310282 47.9766638924274 0.3787468866033022
1.414826368267001 13.081457650796208 510.5727022800267 50.181621148190146 0.3849720090812661
1.4415589115534901 13.078011647194066 456.6108437925545 52.49223065547586 0.39136912786417966
1.468153631008891 13.073408616318385 408.752108938906 54.914975194123606 0.3979502692964399
1.4945653624863033 13.067535663111371 366.3193823878236 57.456048452958704 0.4047245008094104
1.5207778148349909 13.060381286336828 328.6623906859657 60.122082572044974 0.41170160044815535
1.546762074497076 13.051888040670619 295.1121559207638 62.920187616056175 0.4188921153903631
1.5724796149289662 13.042000289278164 265.30474248657083 65.85799482750927 0.42630742524429094
1.5978932863911341 13.030657104059044 238.77434200416695 68.94370404366175 0.4339598106851178
1.623002462780386 13.01784269777131 215.09823124713787 72.18613570858827 0.44186252805759674
1.6477442448903172 13.003481972549697 193.96756662164282 75.59478796605822 0.45002989064880755
1.67209210883929 12.987539430743928 175.13070150904844 79.1794947303509 0.4584756677241489
1.6960287597635906 12.969978411294337 158.26257780135552 82.95067307445214 0.46721405933143084
1.719508825660945 12.950756211793552 143.1915331617292 86.92096289771115 0.4762661773099724
1.7424902059366296 12.929808500318684 129.69596961632874 91.10183412722036 0.4856459130893708
1.7649717303635752 12.907144349482046 117.60322446370213 95.50761650699498 0.4953761212603232
1.7868830738970927 12.882667785126738 106.75768493930477 100.15175227811544 0.5054734090846097
1.8082341476451667 12.856428512107874 97.02423841241648 105.05089608381722 0.5159639589073456
1.8289382442899633 12.828274073712718 88.27655561158811 110.22160230651033 0.5268703272999705
1.8490195368543918 12.798297845705793 80.41603277648345 115.68166132938494 0.5382164399308847
1.8683897921364567 12.766347990493381 73.33529280429357 121.45101559201063 0.550030608047548
1.8870670761826227 12.73251537196484 66.9654307645715 127.55110700905986 0.5623426808409471
1.9049886930629343 12.696682705161994 61.21729197077312 134.0046475736991 0.5751828898559972
1.922126763347205 12.658849642384686 56.03955064155205 140.83723839815264 0.588587185097142
1.9384360962828595 12.61894447452357 51.35713448318028 148.07657300266428 0.6025938371986006
1.9539294023304705 12.577084812546595 47.1351382070909 155.75101543377204 0.6172380966525661
1.9685413090413642 12.533141791112612 43.31432647049159 163.8943917058952 0.63256812593688
1.9822517185962347 12.487123771869054 39.855261323117674 172.54068589609034 0.6486261291964498
1.9942544927274983 12.440527869052397 36.86532972518197 181.95705997178314 1.0373000804313768
1.9943304061700002 12.400712217479862 35.68480233676666 194.93495253564305 2.0897402613366527
