M[M_sun], R[km], Lambda[1], P_c[MeV/fm^3], rho_c[fm^-3]
0.24162668629717493 15.618656898711224 2160425.4255784233 3.5677272577965504 0.1711233750220791
0.2536443377944337 15.277269183599522 1723197.5979032768 3.784825774270498 0.17388824993760363
0.26604063762235286 14.981258306845607 1383008.941605669 4.011414453244628 0.17666681784195748
0.27881574568544637 14.723490256282512 1116427.0144449854 4.247749195245927 0.17945775756233492
0.29197079631661643 14.498386678471132 905848.4649610859 4.494455241894121 0.18226763638168111
0.30550631347475865 14.301208303737651 738607.9471198801 4.751688084372265 0.18509215833275214
0.3194232511593456 14.128116326341052 605075.1880861914 5.02013022823273 0.18793794701653205
0.33372120030041963 13.975939467495067 497673.2343165515 5.300005390857337 0.19080161882591998
0.34840323199778617 13.842008823535629 410995.2076501286 5.592042622861204 0.19368947914451629
0.36346684401460955 13.723950464730217 340632.1500501491 5.896408665457971 0.19659658099064145
0.37891965472162886 13.61998728667993 283294.1549922088 6.213967840152066 0.19953061011178447
0.3947517166203974 13.528462630788189 236405.61631048252 6.544977528051334 0.2024877441830131
0.41097912704776907 13.447857547023256 197856.7750733419 6.890140230521244 0.20547169605611895
0.42758606192391213 13.37704583979793 166074.6251253494 7.250161044698548 0.20848553898203895
0.4445824070925516 13.31490765968646 139791.15579712487 7.625298986789352 0.21152482021324667
0.4619640092298654 13.260582141709518 117976.34221919363 8.016502996050486 0.21459570051538307
0.47972928203688 13.21315329530084 99802.21343582458 8.424478165170113 0.2176998280364705
0.497887398066824 13.17196169602573 84636.16232916323 8.849665527955663 0.22083467295530076
0.516425754877377 13.136390810949369 71932.71946502756 9.292938075475004 0.22400363851056243
0.535344604211857 13.105840642023066 61273.81660503941 9.7551808527308 0.22720964664848162
0.5546508776788523 13.079825958807547 52301.60536193624 10.237203511208078 0.23045404840691466
0.5743344724987599 13.057832634281759 44727.27192078388 10.7394771760697 0.23373353961754065
0.5943902427402741 13.039529857969574 37989.98907593853 11.263246688512536 0.23705430991143872
0.6148295625376289 13.024509714349845 32899.03290078497 11.809449687032787 0.24041797409272087
0.6356344277939863 13.012435920574736 28290.549849325955 12.379065263513489 0.24382616526723344
0.6568052611147971 13.003010138016863 24369.090359578608 12.972782513668273 0.24727683474937545
0.6783376105337575 12.995973222647494 21026.690494682804 13.59192811549549 0.25077476644984453
0.7002260648533024 12.991062317772732 18171.378633346438 14.237699935726335 0.25432259849076105
0.7224560987518086 12.988025181497944 15727.785382200584 14.91128777526109 0.25792231570885044
0.745048336217817 12.986656102326988 13633.029688824723 15.613720357874202 0.2615738047853475
0.7679712096684804 12.986747829132359 11835.767965253357 16.34626587363552 0.2652789804873282
0.7912154560486339 12.988137743287826 10288.036736780154 17.11053956346688 0.2690425242790726
0.8147910197204861 12.990656576394333 8955.710654017481 17.907996621560418 0.2728668690315017
0.8386738023351036 12.99413622909689 7806.851929887499 18.739998262321297 0.2767530586158715
0.8628533631136683 12.998402962216629 6813.562440113375 19.607897288602263 0.28070164807224934
0.887335466440365 13.003358152821107 5954.83491467293 20.51377571800859 0.2847189619209285
0.9120941432263094 13.008840774165265 5210.811959907255 21.459427868306417 0.28880801388718336
0.9371119459912429 13.014743965674048 4564.892100919546 22.446332513073283 0.29296868202227505
0.9623970175899 13.020948189435487 4004.207799626934 23.47652596359973 0.29720485280938314
0.9879183395162359 13.027339248473794 3516.2383219015924 24.55242557896348 0.30152258442134133
1.0136600777243967 13.0337997378465 3091.6129750333976 25.67596706028179 0.3059234587606465
1.0396250064739845 13.040246747773411 2721.2100265553063 26.84912512112044 0.31040883485721454
1.0657765515244395 13.046576290050977 2397.9781017785012 28.07499039052857 0.31498739987119934
1.092109326744923 13.052702812073527 2115.6285252933803 29.35560909876942 0.3196595383832692
1.1186078236116686 13.058545350468302 1868.4379774943518 30.693754822627426 0.3244300570204394
1.1452387632085792 13.063995148084995 1651.939415397675 32.092809606795065 0.32930689250874606
1.1720031280753422 13.069006646078476 1461.9536178236951 33.5547324806213 0.3342878584861355
1.1988585414829989 13.073470568125515 1295.2881492381553 35.08405763495251 0.33938646576347375
1.2258058706429606 13.077336731059608 1148.9646514308472 36.68279786410027 0.3445994112608002
1.2528012469895478 13.08049968728452 1020.0677559145374 38.35601637219663 0.349941199078816
1.279845469003332 13.082933507042993 906.6372599094743 40.10596356648786 0.3554084691270436
1.3068874883668349 13.084522500009095 806.6396710643519 41.93809169354326 0.36101566928696505
1.333925652781865 13.08523378498786 718.5076224796716 43.855901972837884 0.36676482694891954
1.3609342345644222 13.08503572664964 640.5407869102461 45.86406856895728 0.3726636155988313
1.387865024299311 13.083771809194811 571.7394791256628 47.96793226272233 0.3787220335665301
1.414723021466845 13.081480634893312 510.7564249444923 50.1722576340539 0.38494577148277576
1.4414457583943436 13.078031099383884 456.82187997956083 52.482250123332705 0.3913417250622968
1.4680412019513764 13.073428095370648 408.964687783425 54.90433344415546 0.39792162361940264
1.494450106247921 13.067564231208424 366.4950054252166 57.44469770475328 0.4046945285804357
1.5206625032156602 13.060415922453211 328.79926006691153 60.109971143980154 0.41167021149223376
1.546646079896825 13.051927929429723 295.25767236616235 62.90725957268942 0.4188592124921697
1.5723619855654165 13.04204777487846 265.4376415536955 65.84418959140827 0.4262729035519655
1.597786336590429 13.030717941276006 238.8928035779775 68.92895596768015 0.4339235570540546
1.6228734051390736 13.017895712682078 215.20456091649737 72.1703736040977 0.4418244203276811
1.6476254435182678 13.00355693931387 194.07625334446627 75.57793458209028 0.44998979684774465
1.6719738233893795 12.98762174166824 175.20089082882595 79.161554197948 0.458433812667306
1.6959106011102874 12.970068836999925 158.34762727599582 82.93147032347551 0.467169931465614
1.7193925109186052 12.950858382543895 143.26291937388208 86.90039905930871 0.47621961033359184
1.7423730777837239 12.929917854170931 129.76304958453184 91.0799006425299 0.48559711915936005
1.7648565879034173 12.907267953654966 117.66612283655067 95.48410204218588 0.4953245252740072
1.7867833471189976 12.882830657498621 106.81383236700496 100.12663635721421 0.5054192100169282
1.8081216138592566 12.856573236896224 97.07277793627264 105.02404844480614 0.5159069478896307
1.828831302898386 12.828437432005915 88.32077250059689 110.19288086370035 0.5268102784031816
1.848911643551622 12.798469605480333 80.45532288236772 115.65079360066501 0.5381526778549837
1.8682867503642395 12.766530884014772 73.37680653508043 121.4179454077533 0.5499632892712706
1.8869664347771715 12.732708672879337 67.00167347776595 127.51577442144693 0.5622719654642532
1.9048894560045517 12.696892370905989 61.25007590188383 133.9667282343256 0.5751080253062236
1.9220303975985724 12.659074641691925 56.06854977405401 140.79650991077818 0.5885078305154756
1.9383435172424648 12.619186346515525 51.384882342508554 148.0327914161757 0.6025096211387202
1.95383979810414 12.577340801730154 47.15746089335068 155.70405704713212 0.6171491058092827
1.9684561924343877 12.53340968807865 43.33342569625945 163.8439718970815 0.6324739413149982
1.9821709240583232 12.487408415369472 39.87416358551617 172.48634031954552 0.6485257860313822
1.9949610874626715 12.439332038462934 36.74242166923742 181.67040483632826 0.6653576403788917
2.0067963814324377 12.3891702364709 33.899801358245824 191.43819859599608 0.6830240155835245
2.0176428471553836 12.336895681405696 31.32519881678952 201.83576047680418 0.7015841512681568
2.0274787689469327 12.282509518547139 28.989862136045947 212.91301182879405 0.7211006205338469
2.0362879725507774 12.226043615000037 26.866631258176717 224.72550904375365 0.741643970762045
2.044032753921711 12.167447182931888 24.93984784224413 237.33435571271784 0.7632911248495333
2.0506919655854925 12.106740141783959 23.185160183989016 250.8064580452806 0.7861247941837528
2.0562645602332013 12.043993576576899 21.591686518086107 265.214984519454 0.8102333440773553
2.060710355483328 11.979143023947062 20.139972569705076 280.6415242335821 0.8357159528509528
2.064016752507301 11.912248860599416 18.820407059617505 297.17597144903164 0.8626801010289638
2.066176409043483 11.843345536761976 17.61714893657027 314.9186822247946 0.8912461772813631
2.0671685803801556 11.77245040874959 16.52114181394051 333.9790193803545 0.9215398661936708
