M[M_sun], R[km], Lambda[1], P_c[MeV/fm^3], rho_c[fm^-3]
0.24162668629717493 15.618656898711224 2160425.4255784233 3.5677272577965504 0.1711233750220791
0.2536442191552219 15.277259012395191 1723230.877981126 3.784824247430958 0.17388823090628533
0.2660403905241212 14.981252954838954 1383020.5462723542 4.011411243513138 0.1766667790542467
0.27881592451327447 14.723472503952191 1116411.908735077 4.247744194021919 0.17945769955567312
0.291970600695875 14.498403708815221 905818.5048019681 4.494448317930965 0.1822675592817444
0.3055062907907433 14.30119166444334 738653.141838758 4.75167900255707 0.18509206023181513
0.3194221505775412 14.128120197266009 605117.2775586558 5.02011892165552 0.18793782970642955
0.33372180303794413 13.975966269435594 497685.765441877 5.299991561832848 0.19080147959058988
0.3484024111673063 13.842015749050631 410999.5227980556 5.592026236850503 0.19368932060535513
0.363465450878541 13.723974642148988 340636.1119143003 5.89638935431031 0.19659639961625594
0.3789190070687104 13.619991824314395 283292.7095483163 6.213945370159726 0.19953040521250998
0.39475197491286135 13.528427909057303 236407.1259159728 6.544951922532657 0.20248751965720566
0.4109773387039745 13.447871478621439 197869.00468814422 6.890110995142683 0.205471447075367
0.4275852882287583 13.37706423428291 166077.97455666255 7.2501279051010155 0.2084852648266415
0.44458043362854627 13.314934979233643 139794.49237531025 7.625262034556836 0.21152452604971564
0.46196215260714324 13.260562193548822 117978.6959606209 8.0164615866214 0.214595380179971
0.47972734139739154 13.213139897741145 99806.97914454702 8.424431975618907 0.21769948075561724
0.4978844135690913 13.171976886735536 84640.15181739419 8.849614728581827 0.22083430514612928
0.5164229102429808 13.136397154821973 71935.35618740245 9.292881844152047 0.2240032426385432
0.5353420608813264 13.10583662637788 61274.795222618 9.755118808170742 0.22720922185858136
0.5546486117837555 13.079822068492328 52298.007070401894 10.237135248953086 0.23045359380692562
0.5743311852995963 13.057851923149636 44728.191751157414 10.739402992714856 0.2337330633374234
0.5943895797340132 13.039514077329981 38327.9600396231 11.263165468398842 0.23705380244669857
0.6148255676075317 13.02450222484693 32900.754283518276 11.809360950318736 0.2404174344254455
0.6356310348980846 13.01242750616722 28290.926661339796 12.378968500420054 0.2438255923257771
0.656801422934719 13.003017485291602 24370.093303059206 12.972678168549002 0.24727623835546245
0.678333591414746 12.995979145497406 21026.77118724917 13.591814706558038 0.2507741350192648
0.7002204634369477 12.991059480854455 18171.054868138996 14.237576854849209 0.2543219307709957
0.722456252721031 12.987999335631763 15728.835316625822 14.911154375248051 0.257921610372696
0.7450445618530992 12.986640941363358 13633.260035859032 15.613577251579663 0.26157307332089597
0.7679649566284781 12.986751005006878 11835.87655357191 16.34611112300725 0.26527820909425903
0.7912102184517822 12.988143805010436 10288.303976585634 17.110372391789557 0.26904171137981486
0.8147860468024731 12.990668921026382 8955.774874444873 17.90781620062129 0.27286601294704627
0.838668095530949 12.994133315185255 7806.998972425488 18.7398053923786 0.27675217247827844
0.8628494346489884 12.998408510838923 6814.312940735237 19.607689461750972 0.28070071568423716
0.8873293766336954 13.003356718025067 5955.142068060069 20.513551933912936 0.2847179812643231
0.9120850017617843 13.008847126094677 5210.876818253625 21.45918705812694 0.2888069828077303
0.9371061020090123 13.014747002080103 4564.982763573604 22.44607567996885 0.2929676152837778
0.9623903278603386 13.020949394927147 4004.373914464903 23.476249884327377 0.2972037315694269
0.9879113790304362 13.027337143802791 3516.3731974306993 24.552128953952675 0.30152140607098793
1.0136529120498503 13.033800093257652 3091.631951168242 25.6756510377692 0.30592223916890793
1.0396176343052714 13.040247604138896 2721.2828619890056 26.84878583745695 0.31040755310462853
1.0657686498579704 13.046576795452454 2398.179265631514 28.074626257428548 0.31498605278452513
1.0921014186611349 13.052705240221346 2115.702447652504 29.35522140683641 0.31965814293035444
1.1186001987097942 13.058539894870469 1868.5285684270948 30.693338942955897 0.3244285899779498
1.1452308556208146 13.063998668997009 1651.9799641242362 32.09236689678689 0.32930537140076316
1.1719943574969918 13.069010119321689 1461.9935470822727 33.554257747049235 0.33428625858505057
1.1988498735031992 13.073463514439528 1295.398849996139 35.083548637026816 0.3393847826453231
1.2257963511939018 13.077334476970172 1148.9922918259583 36.68225607896047 0.34459766354580573
1.2527930776293594 13.080490980665543 1020.1161657299284 38.35543960101671 0.34993938288166354
1.2798343128845489 13.082933956510276 906.6823623274431 40.105345253275686 0.35540655627253026
1.3068784412600554 13.084527929002702 806.6931256284595 41.937433317354134 0.3610136789160018
1.333916224538695 13.08523180496688 718.5634379879971 43.855196151744785 0.36676272888360706
1.360924347518007 13.085035237204321 640.5781244701689 45.86331678196511 0.37266142950438064
1.3878553311204407 13.083773610478149 571.7718335223551 47.9671312985409 0.3787197537639129
1.4147124935579838 13.081482612968951 510.792735686064 50.17139870931294 0.38494336468099616
1.4414353888135574 13.07803061215941 456.8378450928461 52.48133460162486 0.3913392113827034
1.4680304870638021 13.073431000325582 408.98570317169373 54.903357271406904 0.39791899593792435
1.49443953856783 13.06756685403239 366.50674797651413 57.44365649849265 0.4046917792222534
1.5206513995903694 13.0604187520072 328.80968441712656 60.108860163935304 0.41166733218655066
1.5466351772597238 13.051932702444645 295.27346021660117 62.90607368844959 0.4188561943224973
1.57235225844102 13.04205061051287 265.45254862222043 65.8429232468258 0.42626973690144726
1.5977755355192529 13.030723333425431 238.8961596926222 68.92760314164488 0.43392023154528747
1.622862458249897 13.017900149792023 215.21587283956148 72.16892776727197 0.44182092475643364
1.6476148654065264 13.003562701486532 194.08458774360466 75.5763886491435 0.4499861191099002
1.6719632111016698 12.987628359788923 175.2225454718703 79.15990854766669 0.45842997338402713
1.6959000546832967 12.970076584869256 158.34862852327393 82.92970889889783 0.4671658837170646
1.719381165158631 12.950866477724736 143.26804748706084 86.89851279249241 0.4762153388673139
1.7423614848557198 12.929922429611363 129.77281209396287 91.07788874835266 0.4855926434353673
1.7648461550760994 12.907279088686192 117.671289553399 95.48194513801187 0.4953197925446361
1.7867729200066225 12.882843196597776 106.8126742330857 100.12433256492412 0.5054142385331134
1.808111143679651 12.85658603848335 97.07861520549002 105.02158581731118 0.5159017184949832
1.8288211688939482 12.828451392695756 88.32592052597074 110.19024636957276 0.5268047703767567
1.8488996851053099 12.798485992822437 80.45331377430742 115.64796224961215 0.5381468292607325
1.8682778244069305 12.766547132686922 73.38344020367884 121.41491204806205 0.5499571144625415
1.886956356174304 12.732727386554236 67.00330610791333 127.51253355474111 0.5622654791261331
1.9048798623793017 12.696911581098693 61.25203960254402 133.96325011386466 0.5751011584164869
1.9220212851160332 12.65909422968796 56.06938865322002 140.79277414009738 0.5885005518135475
1.9383345546687545 12.61920763385743 51.38897919889605 148.02877562212055 0.6025018965590568
1.9538326583714734 12.577363374573036 47.159181156267536 155.69974988451327 0.6171409433049669
1.9684480968374467 12.533434834413148 43.337935216875245 163.83934726288277 0.6324653024598816
1.9821628397588962 12.487434715207788 39.87582247889144 172.48135562903948 0.6485165823453776
1.9949534129827895 12.439359335131684 36.74191732008087 181.6650420185291 0.6653478719319108
2.006789106906287 12.389200585856777 33.901231481934005 191.43242282301492 0.6830136324071664
2.0176363259416297 12.336926492735884 31.32450784195377 201.82953332926087 0.7015730986955248
2.0274732546597485 12.282541714426626 28.989281918188766 212.90630658426008 0.7210888901096967
2.0362832178652504 12.226077506551396 26.86837600173663 224.71826363432172 0.7416314468993532
2.0440285198320836 12.167483376176333 24.940404113846952 237.32653483824666 0.7632777895401222
2.0506885730024873 12.106777219796815 23.186348976365597 250.79800519771942 0.7861105712609165
2.0562606097030245 12.0440326550384 21.59232103554421 265.2058196047592 0.8102180931268328
2.06070850398576 11.979183857742138 20.140565515620136 280.63161241395204 0.8356996951598037
2.064014445769566 11.912288883695695 18.82029840252584 297.16521782262254 0.8626626782273343
2.066175334268735 11.843389572810926 17.617494455849375 314.90700043266094 0.8912274770297888
2.067169325831093 11.772498310727823 16.522726300265195 333.96633236933735 0.9215198280732005
