M[M_sun], R[km], Lambda[1], P_c[MeV/fm^3], rho_c[fm^-3]
0.24162668629717493 15.618656898711224 2160425.4255784233 3.5677272577965504 0.1711233750220791
0.2536398504893243 15.277391783890732 1723260.3080715637 3.7847603695303773 0.1738874346990703
0.2660328771712801 14.981411878915871 1383109.7855321614 4.011276960642785 0.1766651563250068
0.2788043313289196 14.723743763693696 1116614.8491000056 4.247534964444665 0.1794552728078792
0.29195521659322426 14.498628076366469 906112.5354706148 4.494158652608652 0.18226433379115262
0.3054865767909737 14.301472068363898 738857.9512687864 4.751299067528394 0.18508795620838853
0.3193964341688043 14.128461437997098 605274.6817969407 5.019645919604812 0.18793292212759144
0.33369178277302036 13.976218535255937 497859.9499519191 5.299413041720879 0.19079565485300082
0.3483679798136449 13.842304878525235 411177.81289651507 5.591340755678082 0.19368268838644256
0.36342586674722027 13.724260600400848 340799.89313636615 5.895581513962566 0.19658881220875268
0.3788726752785915 13.620296291542333 283443.6079988339 6.213005396735763 0.19952183378668512
0.3946997137092892 13.528740277259073 236532.5424678361 6.543880793380655 0.20247812730156722
0.4109199237458968 13.44811741858148 197979.99763258087 6.888888035086823 0.205461031834336
0.4275208916594393 13.377316247828132 166192.192942418 7.248741640613016 0.20847379661580145
0.44451190643446536 13.315142833960932 139891.6341090998 7.6237162984298115 0.21151222099623945
0.46188576505131923 13.260787515565966 118060.77632123655 8.014729421406836 0.21458198048164093
0.4796440815345363 13.213352193718881 99891.5891380273 8.42249987727655 0.21768495407710667
0.49779414179997916 13.172195594512756 84709.62058493 8.847489822124746 0.22081891991547734
0.5163256104361957 13.136573724104855 71996.23355122289 9.290529747115187 0.22398668372876757
0.535236846592197 13.106007966962924 61325.98004842784 9.752523576492525 0.22719145352877612
0.5545353012665435 13.07994819418802 52346.83203815399 10.234279969911444 0.23043457876235626
0.5742094065888723 13.057960321199863 44770.83933299721 10.73630007302149 0.23371314163182777
0.5942619299306794 13.039647783128926 38362.356881426305 11.259768252074483 0.23703257657762694
0.6146896978870825 13.024604244531922 32934.125725206264 11.805649373098348 0.24039486184331568
0.6354837844473105 13.012491840053492 28322.372704133682 12.374921246487435 0.2438016282349238
0.6566473820940969 13.003070468563138 24396.362961760562 12.968313823213347 0.24725129354720787
0.6781711786391466 12.996021678712532 21050.142482692987 13.58707130577177 0.25074772503452003
0.7000499221534118 12.991079803203988 18192.028900657835 14.232428971578509 0.2542940032530096
0.7222742639780033 12.988028502760171 15746.358848535825 14.905574948987294 0.2578921098428747
0.7448531517372617 12.986654940049945 13649.708169522326 15.607591912831612 0.261542480239448
0.7677648995539215 12.986757768309982 11849.871067857892 16.339638832823248 0.26524594635099824
0.7910015144850063 12.988122759910558 10301.461608789787 17.103380675333213 0.26900771303028154
0.8145642682850526 12.99064885328167 8967.645605063055 17.900270430357782 0.27283020880669434
0.8384389869783133 12.994096620952886 7816.7490616775385 18.73173903351715 0.2767151117329562
0.8626108376850706 12.998359657065334 6823.206102102229 19.59899765314076 0.28066172102063996
0.8870762290928612 13.003298336099581 5963.196224308785 20.50419285303795 0.2846769683207805
0.9118268040966331 13.008798573334433 5217.888007976763 21.44911601902578 0.28876386153474104
0.9368372688003305 13.01467206768009 4571.58416181185 22.435334629467008 0.29292300307501995
0.9621071993095296 13.020871624846219 4010.122213253626 23.464704059320255 0.29715684054347413
0.9876212844857107 13.027266904182994 3521.4159205270153 24.539724024092912 0.30147212717355176
1.0133592049793654 13.033734341819658 3096.570404512151 25.662435013576637 0.3058712359862863
1.0393097445633597 13.04016995174443 2725.374881780004 26.834597187869132 0.3103539509414294
1.0654536295602692 13.0465067542734 2401.6988654737866 28.05939858452265 0.3149297190009466
1.0917728881726128 13.052630594732873 2108.2037636958203 29.339008670846333 0.3195997870354608
1.1182619659019801 13.05847034015302 1871.4221307186608 30.675947628033885 0.3243672409876333
1.144884305893848 13.063926593757035 1654.6412186816922 32.07382762161449 0.32924159302014366
1.1716381647644591 13.068949311385358 1464.434335236985 33.53440567522571 0.33421935505617106
1.198484595548737 13.073408815319276 1297.4596924100229 35.062263966849954 0.3393144000113354
1.2254221502874756 13.077282992504484 1150.841684533056 36.659600564100344 0.3445245803618653
1.2524098350390582 13.080459502033266 1021.9085050667773 38.331168473048734 0.3498625399675924
1.279444702266264 13.08290234068107 908.1816861210655 40.0794901613762 0.3553265692558214
1.3064800249861468 13.08451057781363 808.0773601405501 41.909903240654415 0.36093045132335017
1.3335093006133383 13.085229507464595 719.8018070535671 43.82568252170751 0.3666749991118108
1.3605075151895554 13.085048877986825 641.735274111147 45.83188142451247 0.3725700197550789
1.3874365040596175 13.083799407848492 572.7740019098131 47.93363998276809 0.37862442666799156
1.4142853005190892 13.081526743163135 511.69664831518355 50.13548430449106 0.384842728560836
1.441011610799393 13.07811317863992 457.66097301089246 52.443054105914705 0.3912341074839456
1.467593648875501 13.073520386452962 409.7311037755837 54.86254123422919 0.3978091265064462
1.4939975164656456 13.067673839320955 367.1961902179706 57.40012174606724 0.4045768234903107
1.5202070118100748 13.060552359939484 329.41903551051524 60.06240857085593 0.4115469444833127
1.5461864150079467 13.05209165628057 295.817538622666 62.856490826710086 0.418730001997358
1.5719014157729898 13.042241292860652 265.96951275157795 65.7899768986536 0.42613733804003096
1.5973169895986634 13.030929350697736 239.3401528373736 68.87104166083573 0.4337811924557004
1.6224089936740576 13.018149886510654 215.6130068862087 72.10847827184324 0.44167477720064807
1.647160675830419 13.003841086159362 194.45697995485926 75.51175502598775 0.44983235725212073
1.6715141096898427 12.987945096701967 175.55733384331361 79.09107780439946 0.45826933893512517
1.6954495998620502 12.970432243522263 158.66626643650736 82.85606761729314 0.46699665626641523
1.718913304591314 12.951223235508316 143.5507646270066 86.81965321615213 0.4760367607265529
1.7419286675337566 12.930378915632529 130.0285216124042 90.9937780474398 0.48540552808587223
1.764407916789285 12.907759959328148 117.90234420255463 95.39177334844527 0.4951219355039448
1.7863355002729653 12.883357401645119 107.02373886911579 100.02802118095632 0.505206402744862
1.8076784425949861 12.857137022369583 97.2671077007672 104.91863559039898 0.515683103472343
1.8284063315738557 12.829082144677535 88.49543611698348 110.07979506744502 0.5265733277411196
1.8484841858438352 12.799134379036795 80.61463039128874 115.52960103123753 0.5379023358268871
1.8678793339242774 12.767282107379799 73.52112697055692 121.28810793863767 0.5496989877642755
1.8865602208779053 12.733485609045806 67.13411418947882 127.37657560681112 0.5619926137198973
1.9044939619257288 12.69771723369399 61.37387021119696 133.8178577289199 0.5748141087046711
1.921649225049227 12.659959590283691 56.1795415623939 140.63661395578316 0.5881962923897867
1.9379832358641804 12.62015288049152 51.48835070240852 147.8609128562541 0.6021790041772193
1.9534809797424317 12.578315090328635 47.25362117389035 155.51971046399478 0.6167997505808843
1.9681201522613958 12.534472454431212 43.42055862329924 163.6456545218907 0.6321028970555441
1.981854785155731 12.488538131604678 39.953524872236436 172.27300262164113 0.6481318812980631
1.9946596400696486 12.440519795657702 36.81305256927792 181.44088764562596 0.6649395716335913
2.0065123149492936 12.390413673831905 33.96828874359093 191.19101207397838 0.6825796454083369
2.0173920754982015 12.33823931397614 31.38812992040855 201.58084378657017 0.7010532640017778
2.0259279652994286 12.285733419327425 29.21630912831764 212.9962814585763 0.9871858492241677
2.0302566495647363 12.23193133198062 27.547841972698077 225.98014213528043 1.280024909357464
2.030563558748948 12.174402317543246 26.245151389657224 240.60840039567282 1.5686390977621292
