M[M_sun], R[km], Lambda[1], P_c[MeV/fm^3], rho_c[fm^-3]
0.24162668629717493 15.618656898711224 2160425.4255784233 3.5677272577965504 0.1711233750220791
0.25364382438774463 15.277304549527402 1723142.2843904148 3.784817012729549 0.1738881407292224
0.2660397049428832 14.98127751354003 1382987.474475337 4.01139603470419 0.17666659526476616
0.2788144697464128 14.723529322171151 1116433.801372267 4.247720496544394 0.17945742470064516
0.29196816241176443 14.498454300152572 905911.9782946663 4.494415509920935 0.18226719395693836
0.3055046293836394 14.30120767366544 738689.0794667478 4.751635970003303 0.18509159539810557
0.31942069009515245 14.128121006741237 605124.8043691082 5.0200653475449855 0.18793727385435505
0.3337182584425376 13.975945228092447 497674.10163537733 5.299926035675858 0.19080081985091654
0.3483985168979754 13.842047622539232 411018.1351830152 5.591948595019627 0.19368856939928286
0.3634597341323014 13.724069858275481 340664.25891491567 5.896297852440249 0.19659554021132847
0.3789141937006574 13.620010488400945 279405.4197252658 6.213838900916757 0.1995294343412114
0.39474590081736677 13.528469150980733 236413.91790764607 6.5448305964344025 0.2024864557912275
0.41097001003210315 13.447899433837595 197885.64686307957 6.889972469956003 0.2054702673367474
0.4275777955850862 13.37707582285687 166094.56870176157 7.249970880888142 0.20848396580557027
0.44457261856834457 13.314958796709371 139811.5656776094 7.625086945293534 0.21152313222659774
0.46195388904782914 13.260595626358219 117990.0476519513 8.016265378283281 0.21459386234984804
0.47971784378492754 13.213165327059933 99817.29165786857 8.424213118163895 0.21769783525351266
0.49787476203572245 13.171993515624205 84645.4676655191 8.849374028952314 0.22083256237796856
0.5164120828838935 13.136414102485993 71945.60527616685 9.29261540701532 0.22400136690449024
0.535330339620035 13.105856768568707 61280.69645943299 9.75482482696823 0.22720720910765566
0.5546353343066086 13.079843031093848 52301.16977247381 10.236811807350223 0.23045143981202554
0.5743178318907233 13.057850513742821 44733.266594021705 10.739051496054955 0.23373080661998683
0.5943749458078779 13.03952625115796 38330.53686153884 11.262780630594092 0.23705139797313035
0.6148102166615791 13.024512012953013 32904.85931884434 11.808940497874136 0.24041487737307293
0.6356127736782528 13.012446875466757 28294.129634845518 12.378510018000592 0.24382287761735072
0.656783190844604 13.003029630324729 24372.48101475608 12.972183761582283 0.2472734125279818
0.6783153515496007 12.995977450231909 21029.348740666137 13.591277354235608 0.25077114318549887
0.7002022330531251 12.99106662805185 18173.75600823136 14.236993675901896 0.2543187669967445
0.7224364497252305 12.988000848561505 15731.422433303716 14.910522303276569 0.25791826836992143
0.7450225726438149 12.986653951294446 13635.287402617372 15.61289919036223 0.2615696075217282
0.7679427287531578 12.986754252932638 11837.566942576661 16.345377890020824 0.2652745541117229
0.7911864612939075 12.988143126073588 10289.806929853301 17.109580306993497 0.26903785973967403
0.8147589750131347 12.99067149251082 8957.143406256902 17.906961339988797 0.27286195669447055
0.8386409930707655 12.994129866624043 7808.194313848149 18.738891547587606 0.2767479738342998
0.8628211157640631 12.998402983518737 6815.3088593790735 19.60670475039721 0.2806962979054178
0.8872973686666719 13.003354286059595 5956.092446547917 20.5124916164827 0.28471333478893895
0.9120563651011776 13.008844245076661 5211.705269361958 21.45804607055079 0.2888020974293444
0.9370741745494748 13.01473369660631 4565.607972757586 22.444858775231083 0.2929625609542976
0.9623534056086157 13.020934686874977 4004.915736735464 23.474941790887776 0.2971984190132963
0.9878785276044397 13.027329030073346 3516.9575715515657 24.550723514587922 0.3015158229275851
1.013619799347531 13.033785477953408 3092.144663358845 25.67415369280407 0.3059164606263151
1.0395831045021149 13.040236672474952 2721.7173317663405 26.84717828125391 0.3104014800467653
1.0657331387432731 13.046566039358854 2398.593654285177 28.072900964902505 0.31497967017725664
1.0920647727761972 13.052696769724282 2115.866556775432 29.3533844927986 0.3196515311676893
1.1185617806817139 13.058531136588893 1868.8731125757595 30.69136847618597 0.32442163902873583
1.1451914819370381 13.063986531058612 1652.3149364561039 32.090269308551875 0.3292981642941918
1.1719536868096772 13.068999031203209 1462.2214536512677 33.55200843254195 0.334278678163247
1.1988086363724555 13.073465037031347 1295.5540275449841 35.0811369797803 0.3393768079486107
1.2257545289554743 13.07732779335044 1149.2394805515937 36.679689077497514 0.3445893827964495
1.2527486584255012 13.080489169466174 1020.2841421992014 38.35270354431899 0.3499307583524196
1.2797895779162876 13.08293790645077 906.7458319764007 40.10241566688645 0.35539749311095353
1.3068329087912665 13.084524207194143 806.8693866986908 41.934313915482534 0.3610042484915566
1.333870386187155 13.085236167771601 715.7640619615933 43.85185196028061 0.36675278821708707
1.3608779992562494 13.085031071281648 640.6972721580331 45.85975480818198 0.3726510717684769
1.3878078697472742 13.083776838330083 571.8769661914688 47.96333632802293 0.37870895205277566
1.4146638127232931 13.0814864887385 510.8956639270991 50.16732912847683 0.3849319612670163
1.4413865584714685 13.078036601922332 456.9415469774687 52.4769968708911 0.3913273015993158
1.4679811664002826 13.07344011810162 409.06845307304235 54.89873218355611 0.39790654603323394
1.4943897447936922 13.06757718221095 366.584631040027 57.43872329048422 0.40467875283515253
1.5206015665179995 13.060435668255606 328.8785741833749 60.10359637760913 0.4116536901324437
1.5465839803890937 13.051950987865535 295.33139166698027 62.90045501732815 0.4188418943577891
1.572300175483688 13.042073155098565 265.50127174254123 65.83692336746965 0.42625473346451886
1.5977242709552235 13.030747528105305 238.95718708747438 68.92119352782396 0.4339044754714097
1.6228113782378308 13.017931518058123 215.27487737091892 72.16207748500385 0.44180436296376974
1.6475638760767453 13.003596309038807 194.12579162213726 75.56906413040656 0.4499686942534038
1.6719132793634364 12.98766237418209 175.2596992404623 79.15211158678922 0.458411783163503
1.6958500311040265 12.970118954936735 158.38969304304615 82.92136342356655 0.46714670583905926
1.719329914392661 12.950912280929211 143.3009759698421 86.88957584203722 0.4761951010715961
1.7423157793427777 12.929974911930818 129.79361614655912 91.06835660284953 0.48557143792027946
1.7647957948369148 12.907331240714136 117.69649913842557 95.47172597001979 0.49529736940823216
1.7867229417818185 12.882902213569855 106.8374758174252 100.11341747629618 0.505390684245392
1.8080619765074921 12.856649803664705 97.09839962124033 105.00991820732418 0.5158769423007196
1.8287744105571908 12.82851952532781 88.34533379622182 110.17776450050683 0.5267786741088138
1.8488540199272092 12.798560469214957 80.47473428408878 115.63454772848779 0.538119119489085
1.8682411388594786 12.766659136793793 73.39227948449712 121.40054046788221 0.5499278591918919
1.8869110543281147 12.732812877817707 67.01724195501235 127.49712493650779 0.5622345552627185
1.9048355461774908 12.69700251171404 61.267261190855955 133.94677139018034 0.5750686242993358
1.9219789626461692 12.659193084494898 56.082678659513334 140.77507475283014 0.5884660666764142
1.938293863569882 12.61931225958039 51.39885597050359 148.0097495781876 0.6024652990169471
1.9537927480907744 12.577474407987937 47.169368872010224 155.6793434351133 0.6171022710406396
1.9684109155143372 12.533553482651081 43.34634611528291 163.81743674497784 0.6324243734303461
1.9821278641929199 12.487559983923603 39.88529011973828 172.4577392996391 0.6484729773752957
1.9949187236785206 12.439492652109584 36.74949132769619 181.6396342660854 0.6653015913585362
2.0067584942886123 12.389338351967464 33.907433499550045 191.40505865224804 0.6829644395091949
2.017607653167925 12.337074055617943 31.33158779448337 201.80003073108477 0.7015207344939536
2.02744661258183 12.28269577416842 28.995736408764394 212.87453896181904 0.7210333145548327
2.036259527828888 12.226238709774483 26.87366885751294 224.68393694869957 0.7415721124060528
2.044007798631006 12.167652727550538 24.94555625114388 237.28948185756678 0.7632146108043182
2.050670647843757 12.106955535707234 23.191328152809476 250.75795822253545 0.7860431874551937
2.056245366811665 12.044220098541867 21.596325569003003 265.16239920416797 0.810145839057577
2.060696146893549 11.979378885608055 20.14456819285122 280.58465354574525 0.8356226716863637
2.064005729098867 11.912491953452365 18.82400056613919 297.11427090947853 0.8625801350993163
2.0661698174435834 11.843599864962258 17.621263842421246 314.85165636776424 0.8911388820672289
2.0671673833470967 11.772718280771132 16.525540269520928 333.906226128736 0.9214248950674233
