M[M_sun], R[km], Lambda[1], P_c[MeV/fm^3], rho_c[fm^-3]
0.24162668629717493 15.618656898711224 2160425.4255784233 3.5677272577965504 0.1711233750220791
0.253638517011711 15.277418922529344 1723281.3341109806 3.7847346927832306 0.173887114650804
0.26603024990992474 14.981478318695423 1383265.6601573688 4.01122298439437 0.1766645040538993
0.2787998993675294 14.723809689900072 1116660.4806040456 4.2474508640340956 0.17945429736985322
0.29194863128442 14.498754160224703 906238.5131742172 4.494042222666422 0.1822630373167239
0.3054779683172113 14.30160291916598 738919.5269482583 4.75114635644685 0.18508630663725437
0.3193888776052428 14.12849340243499 605314.2509144741 5.019455804045716 0.18793094960528794
0.3336799178299966 13.97634124974673 497941.73892514914 5.299180518507984 0.19079331373007274
0.34835502359708675 13.842406067657686 411241.6787537994 5.591065245873129 0.19368002275328952
0.3634097044282639 13.724409404829654 340866.6425551252 5.895256830297294 0.19658576271105807
0.37885582485293423 13.620405173510171 283506.9221372829 6.212627612444981 0.19951838884883508
0.39467998316052183 13.528835393676573 236591.42551547673 6.543450302307617 0.20247435247642162
0.41089681086849117 13.448227272683015 198042.4389917069 6.888396529868907 0.20545684596964808
0.42749652572542995 13.377395254858634 166232.883833941 7.248184511893401 0.20846918763268393
0.44448324382253046 13.31523794770411 139931.09453663707 7.623095087533066 0.21150727575806408
0.4618551634234565 13.260864723103229 118099.12701196824 8.014033297234754 0.21457659539837765
0.479610948519301 13.213430308472487 99912.32615054978 8.421723415015734 0.21767911616637967
0.4977588036200812 13.172235747846731 84736.9378976092 8.846635885924883 0.22081273705253146
0.516286570404785 13.136633028469117 72024.60789387196 9.289584523313527 0.22398002929427605
0.5351938057323011 13.106060386644554 61350.94732902414 9.751480660388916 0.22718431317308316
0.5544907304602265 13.08000326963624 52365.854752834086 10.233132567814286 0.23042693751199217
0.5741606992858892 13.05800127804963 44785.96771931474 10.735053170994611 0.2337051361345733
0.5942113861315376 13.039678222200546 38378.33801647714 11.2584031067216 0.23702404712475802
0.6146333800178118 13.024632774288524 32947.30496378424 11.804157925159844 0.24038579135142366
0.6354238280975045 13.0125375077779 28100.368760003676 12.373294934135359 0.24379199871880997
0.6565804965268716 13.003092303054423 24408.56451003293 12.966560114376565 0.24724127006663899
0.6781046377000386 12.996045136561392 21060.275181880552 13.585165309086456 0.2507371129556233
0.6999806861611436 12.991096357602764 18199.823146836774 14.230360474355885 0.25428278155462386
0.7222024058903469 12.988017102358667 15753.964397723199 14.903333082644027 0.25788025625044
0.7447781829409506 12.986657655091754 13656.699035503154 15.605186974846545 0.26153018779172676
0.7676850403923751 12.98674565736357 11855.12488316676 16.337038271795272 0.265232983206517
0.790917102619758 12.988115129107639 10237.614330280445 17.100571448676817 0.26899405271233545
0.8144783206461927 12.990623596530302 8972.228173017003 17.897238631158434 0.2728158231362775
0.8383457315848932 12.994080292503236 7820.663395167837 18.728498105430898 0.27670022134530114
0.8625147755476577 12.998341733430635 6826.8633883512075 19.595505479253205 0.28064605383880536
0.8869745899947652 13.003282566437482 5966.340648722233 20.5004326376365 0.2846604904738607
0.9117220294997941 13.008771408509348 5220.732740429169 21.445069816774108 0.2887465368684269
0.9367300553314644 13.014648758026363 4574.530999623511 22.431019289455577 0.29290507960939444
0.9619947544888029 13.020848015029843 4012.3866776089 23.46006545903816 0.29713800180946615
0.9875058757304707 13.027235800347926 3523.570035367193 24.534740346238692 0.30145232938729993
1.013236315979117 13.033696239673006 3098.088801130422 25.657125541405385 0.3058507457106308
1.0391841735009504 13.040140129922847 2727.0578013464096 26.82889705254046 0.3103324168565785
1.065325639010358 13.046476224807705 2403.0331133321065 28.053281124196968 0.3149070878551262
1.0916405249049967 13.052600361001797 2120.1113309684183 29.332495556816998 0.3195763438240276
1.1181256135138076 13.05844233566075 1872.5402876188407 30.668961151712878 0.3243425957396986
1.144744351780061 13.063897853241029 1655.56257796037 32.06633502976342 0.3292156807228327
1.1714944067972706 13.068920292205522 1465.2753745310379 33.52643088049863 0.33419247917570505
1.1983427601086751 13.073404177422299 1298.2952690738912 35.05371381593219 0.3392861269802015
1.2252726868564847 13.0772661048982 1151.6451777354152 36.650499855147245 0.34449522288354206
1.2522562000186837 13.080440637507207 1022.4672554662876 38.321412573544734 0.34983163541666956
1.2792866301825745 13.082895139050953 908.8027649854332 40.06910448807833 0.355294439452267
1.3063193120376027 13.084500894241925 808.6266275026097 41.89884489481142 0.36089702026853476
1.3333462431239835 13.085233372701115 720.2375266688426 43.813827615964016 0.36663976020103534
1.360345646393853 13.085050096354504 642.2151336508963 45.819254782883334 0.372533303196421
1.3872671237163665 13.083815506384495 573.1479298873959 47.920187714327625 0.3785861371695232
1.414107113833707 13.0815307072711 512.0662451832977 50.121059020101356 0.38480230732427684
1.4408384992873604 13.078137510621703 457.98935322603285 52.42767868938171 0.39119189235081675
1.4674183531428668 13.073551063239213 410.03143111007074 54.84614765928331 0.397764997951012
1.4938219565208586 13.067715541891541 367.447488962899 57.38263647889455 0.4045306527514397
1.520027328844481 13.060611436122079 329.64384025285204 60.043752077260386 0.4114985928065337
1.5460071368417603 13.052155643309666 296.0456792685862 62.83657703012446 0.41867931980183054
1.5717200444012271 13.042313267053828 266.1428798938901 65.76871258353201 0.4260841640023855
1.597135794604335 13.031022283472064 239.524225860236 68.84832581528997 0.4337253525017476
1.6222286461661524 13.018240338486262 215.78552841214335 72.08420136263386 0.44161608339488817
1.646978031767376 13.003952868658947 194.5989716649143 75.48579819812664 0.4497706065737722
1.6713327147802897 12.988070912051725 175.68782136660943 79.06331199665132 0.4582043119280175
1.6952556961074874 12.970558899948102 158.78968155111045 82.82649430363276 0.4669286968777551
1.7187327222316822 12.951376476691786 143.65923872797362 86.78798490420766 0.4759650475811046
1.7417492192431514 12.930549758136168 130.13131305056376 90.96000155009764 0.4853303878119677
1.764229188556263 12.907949519232135 117.99242954978608 95.35556360502464 0.49504248324163713
1.7861602064515059 12.883562229632703 107.11321461264632 99.98934667246748 0.5051229448333892
1.8075054794080565 12.857364540330268 97.33879204480625 104.87729595363585 0.5155953186670252
1.8282352671517914 12.829324406406613 88.57077776016672 110.0353970507406 0.5264802180660437
1.8483173692739128 12.799397037599437 80.67925451257676 115.48207504458884 0.5378041635384281
1.8677163053006882 12.767562119319498 73.58226888716246 121.23719285878633 0.5495953433199934
1.8864004368316027 12.733788690011014 67.18603276954124 127.32198586104217 0.5618830525357182
1.9043383971211156 12.698042201992457 61.42143115913328 133.75948126095662 0.5746988554311792
1.9214877208889038 12.66027419884215 56.2250182226051 140.57391548239045 0.5880741319205932
1.9378301077257385 12.620495309765529 51.52774492745882 147.7935173063003 0.6020493654837454
1.9533502377964527 12.578739722057128 47.289023984605876 155.44742759054904 0.616662767300087
1.9679883927024882 12.534890277760624 43.455107723391365 163.56781985012665 0.6319571567674385
1.9817303478683728 12.488980318399609 39.98460065224791 172.18935620134195 0.6479774373286911
1.9945423308557946 12.440987144697843 36.84173513217354 181.3508996317822 0.6647756572186204
2.006403331002203 12.39090643673058 33.99559428101997 191.0940987408284 0.6824054231470326
2.0172903096006767 12.338758815811426 31.41032914731683 201.4647786679545 0.7009256951517864
2.027147273700567 12.284440989666281 29.0676835907759 212.51340464613702 0.7204012989451888
2.035981565593835 12.228041174658507 26.938387585320143 224.29388637254016 0.7408979006993741
2.0437731732259197 12.169585278819216 25.004907733005318 236.868463622427 0.762496736038011
2.05047706884537 12.108997599915241 23.247093215956554 250.30204686790208 0.785274666872615
2.056073732406692 12.046307306903229 21.646673108063084 264.6690587794094 0.8093248919283041
2.060566074581085 11.981583657961817 20.19258607990696 280.0504231621901 0.8347452702687114
2.063917969219238 11.914804178809707 18.8665109470831 296.53544822305224 0.8616423386332114
2.06611541931789 11.845990177186238 17.660219408564835 314.22289633904785 0.8901323609288337
2.067151983910316 11.775206268253672 16.56133533847514 333.2233847361067 0.9203464016327508
