M[M_sun], R[km], Lambda[1], P_c[MeV/fm^3], rho_c[fm^-3]
0.24162668629717493 15.618656898711224 2160425.4255784233 3.5677272577965504 0.1711233750220791
0.2536420008985625 15.277345867289101 1723225.3116206937 3.7848042226229714 0.17388798130671407
0.2660381331576889 14.981277757632984 1383008.5763013943 4.011369147408326 0.17666627034766344
0.2788116997496301 14.72360017190499 1116448.3150762788 4.247678602482772 0.17945693879266333
0.29196528507625225 14.498511048747757 906037.0483029991 4.494357509826356 0.18226654811242413
0.3054998758142972 14.30129280200377 738723.8558404716 4.751559894580137 0.18509077363834325
0.3194153195625606 14.128192063907191 605147.5792627754 5.019970636472423 0.1879362911904221
0.3337118293284321 13.976049095880139 497741.9595723873 5.299810195564434 0.19079965353320802
0.3483919978651045 13.842096105823458 411042.8439539392 5.591811336717608 0.19368724138745239
0.36345346102214104 13.724041884256538 340690.0059997445 5.896136092364408 0.1965940209264641
0.37890503388312735 13.62007190327328 283346.01252392837 6.213650681654559 0.1995277180081709
0.39473651392094317 13.528512513990956 236435.73268612105 6.544616113477589 0.20248457506544854
0.41095952317366247 13.44793089817826 197899.35302896076 6.889727582883988 0.20546818177567924
0.4275645903078926 13.377156831579406 166109.00469343792 7.2496932918539825 0.20848166938263066
0.44455846087708445 13.314989709619013 139827.1717319224 7.624777421590572 0.21152066821889906
0.4619387037894122 13.26062077366732 118001.52852000383 8.01591852129711 0.21459117913063816
0.4797008732331248 13.213223672072298 99833.07356915837 8.423826223332595 0.21769492634525034
0.4978561291544147 13.17204143506101 84659.99113245077 8.848948522870945 0.2208294815321347
0.5163923241741329 13.136448916808032 71954.58399886439 9.292144403962041 0.22399805101363154
0.5353096415617142 13.105897978318376 61293.21314197239 9.75430513363472 0.22720365101200474
0.5546134279174162 13.079861477728624 52311.33632140413 10.23624003639886 0.23044763204053803
0.5742937774381474 13.057873793739986 44741.91110777736 10.738430131855859 0.23372681726935407
0.5943493251410548 13.03955216777286 38336.22693103835 11.262100329156679 0.23704714743743846
0.6147829996686912 13.02452745327019 32632.946838257227 11.808197240581833 0.2404103571286383
0.6355830790455498 13.012459590690593 28302.76287793323 12.377699535537435 0.24381807869054614
0.6567529857189995 13.003037526091491 24377.99020502914 12.9713097757936 0.24726841718360842
0.6782829267944815 12.995984686055227 21033.759991991676 13.590327454944681 0.25076585440074023
0.7001683956100492 12.99106252744267 18042.20841033468 14.23596277026608 0.2543131742833568
0.7224001087106092 12.988004614636818 15735.123490590682 14.90940497124364 0.25791236061428185
0.7449848559610647 12.986643398558588 13638.474742686945 15.611700564902906 0.2615634809434598
0.7679029187960464 12.986757681892113 11839.860370948141 16.344081740127358 0.2652680931295896
0.7911444630509983 12.98812966866136 10293.060484177264 17.108180128032302 0.26903105114352616
0.8147166842840321 12.990660960105854 8959.561739174327 17.905450196096723 0.27285478642475464
0.8385966915897696 12.9941209974091 7809.947379336804 18.73727614109177 0.2767405518772852
0.8627750159621717 12.998393077924407 6817.235821464647 19.60496407835296 0.28068848860773965
0.8872453975219484 13.003344839645552 5957.24446908545 20.51061730171383 0.28470512125100467
0.912004660135263 13.008825624856067 5213.301887398507 21.45602916225878 0.2887934616121084
0.9370221829597434 13.014719596661335 4567.041541808859 22.44270767478709 0.2929536265077041
0.962299326285841 13.020915145155547 4006.2324690111564 23.472629505308962 0.29718902813451376
0.9878197911845389 13.027316969303916 3517.974210756734 24.548239161037202 0.30150595377030615
1.0135604650376393 13.033768018630143 3093.3917407304657 25.671506887429587 0.3059062460946291
1.0395204193116903 13.040224758638749 2722.5823617689903 26.844336668646722 0.31039074494602326
1.06566969049844 13.046552513499341 2399.344783976757 28.069851244698995 0.3149683879361039
1.0919967206464938 13.052687143120927 2116.5776591052067 29.35013747316507 0.31963984389068884
1.1184945040142067 13.058518491437983 1869.4028148213947 30.687885394008205 0.32440935223065565
1.1451222139174728 13.06397193573707 1652.8015394921758 32.08656153121682 0.32928542473646993
1.1718825780903468 13.068991747803366 1462.8050445013464 33.54803247182617 0.3342652787656961
1.1987364258921451 13.073444027110254 1296.0465890236544 35.07687407178387 0.33936271166754345
1.225678943771752 13.077317441560373 1149.606450120504 36.67515159203544 0.34457474557073653
1.252672604638635 13.080482152264743 1020.6195443897045 38.34783927982393 0.34991534942885205
1.279710961532919 13.082926074901758 907.1235495819417 40.097237302641844 0.35538147298196043
1.3067533812614884 13.084520998592245 807.1352948885218 41.92880004815754 0.3609875792352859
1.3337881422750284 13.085231516545495 718.8967509393265 43.8459407760965 0.36673521712065255
1.3607958854838076 13.085033348324826 640.9479832289863 45.85345869206936 0.3726327635180841
1.387724268336951 13.083782525936822 572.0935260887449 47.95662838995903 0.37868985909567626
1.4145792001810242 13.081496557847844 511.0706483149352 50.16013582113487 0.3849118048271253
1.4413007151416748 13.07805139660836 457.08293531710086 52.469329612472514 0.3913062501803718
1.4678931844703014 13.073460958921093 409.2219268533809 54.89055702765701 0.3978845399838233
1.4943015287860388 13.067597075846622 366.71970073171826 57.43000354116297 0.404655727892785
1.5205118183000295 13.060462929180321 329.00479621908323 60.09429234322884 0.41162957704491243
1.5464943128666482 13.051983093370131 295.43761895277044 62.89052373983981 0.41881661846700974
1.572209698944838 13.042111070000573 265.59543766735254 65.82631832439871 0.4262282142488159
1.5976321108419695 13.03079341681154 239.04173084702614 68.90986430389528 0.4338766260417583
1.6227144587440936 13.017953534357783 215.34656239481433 72.14996940995849 0.44177508950895267
1.6474718098691117 13.00365165725334 194.20106724014533 75.55611787913985 0.44993789542844465
1.671821557431843 12.98772752368437 175.32556879691407 79.1383303294594 0.45837963164782036
1.6957592124626961 12.970189142156661 158.448895270219 82.90661271847642 0.4671128087617232
1.7190466102655515 12.951023948708375 143.46117079041827 86.89190538363299 0.5364724111824659
1.7378920193791314 12.928812441161888 131.7797909931502 91.34422798995082 0.7372048983652554
1.7515924275653394 12.90034142441894 122.74685410228116 96.36774717032338 0.932451150454088
1.76087999098662 12.86462604870662 115.5509795546818 101.98456339946783 1.1227369490734005
1.76653713106618 12.821776983825243 109.61953199398512 108.21623072441311 1.3091195700694702
1.7690953819864064 12.771825692165606 104.5741010299236 115.08908771622461 1.4926133488931892
