M[M_sun], R[km], Lambda[1], P_c[MeV/fm^3], rho_c[fm^-3]
0.24162668629717493 15.618656898711224 2160425.4255784233 3.5677272577965504 0.1711233750220791
0.25364511863907 15.277270230161761 1723204.6256144913 3.7848433254369667 0.1738884687044267
0.26604237958623955 14.98122292033839 1353320.8372623292 4.011451349546983 0.17666726371199673
0.2788190804423099 14.723437676331933 1116359.5078675214 4.247806685198332 0.1794584243591473
0.29197459442652335 14.498326400391568 905802.7137814981 4.4945348343401195 0.18226852266203974
0.3055118307667922 14.301134204575382 738518.7893237934 4.751792482147986 0.18509328602797606
0.3194296559500939 14.128053229475874 605025.508869349 5.020260200633369 0.1879392955303534
0.3337302204387152 13.97587286331779 497641.0401568877 5.300164360053482 0.19080321938194755
0.34841268363976596 13.841928812207609 410945.09384271444 5.592230986041467 0.19369130161010226
0.36347783682738527 13.723868554518955 340627.859529572 5.896630654878292 0.1965986659622551
0.3789323649344792 13.619907534467407 279330.96186150605 6.214226142598064 0.1995329655190756
0.39476609705210314 13.528392973845 236368.5164963095 6.545271875619461 0.2024903252135415
0.4109937562354225 13.447777502214056 197820.28367076837 6.890476306111672 0.20547455821687569
0.42760383533412494 13.376972370363179 166037.34769091566 7.250542002476201 0.20848869054810237
0.4446019177843366 13.314843005123462 139768.57602004 7.625723774085077 0.21152820179325799
0.46198261639256544 13.260503581657384 117943.64738267637 8.016979022872684 0.21459938296770395
0.47975182612657924 13.213087528882495 99788.75583903128 8.425009144067204 0.21770382025548174
0.49791189564853744 13.171914908046467 84620.6588393013 8.85024950133905 0.2208389011721091
0.5164528854220914 13.136335980193408 71923.44641531326 9.293584494775413 0.22400818934273686
0.535372485089108 13.105806782933643 61259.003799615086 9.755894101512743 0.22721452992718738
0.5546826852362348 13.079775354889577 52287.828888693424 10.23798541529536 0.23045923807793703
0.5743675394862475 13.05781475334699 44716.55953055369 10.74032997419561 0.23373901484567278
0.5944268485507822 13.039492590073142 38317.173648916374 11.264180382711816 0.23706014364969222
0.6148686693499926 13.02446639286326 32612.678496969773 11.810469793988897 0.2404241780450249
0.6356745891557675 13.01240532728351 28282.173114174308 12.38017764411849 0.24383275175533758
0.6568473183391578 13.002994832096151 24360.86048827952 12.973982059637452 0.2472836908622383
0.6783827745327435 12.995962645217963 21020.28831985076 13.593231862516927 0.25078202536396516
0.7002731480954352 12.991042945626251 18164.828269531074 14.239114875398009 0.25433027460753604
0.7225106872230539 12.988004341737282 15724.093052603059 14.912821348450874 0.25793042428838964
0.7451013408919415 12.986640431544002 13628.27620001927 15.61536551901742 0.2615822137578331
0.7680248431500941 12.986758642375536 11831.31417454657 16.348044904253864 0.26528784850876436
0.7912722126574094 12.9881420692111 10285.575984887975 17.112461393609063 0.26905186948826776
0.8148495336376168 12.99067159737976 8952.397386272421 17.91007077338733 0.2728767107336114
0.8387365051201242 12.994148067161696 7804.396618585737 18.742215535589118 0.27676324583928913
0.8629184952889329 12.998426594585295 6810.87466516007 19.61028651683358 0.2807123670325159
0.8874050569540531 13.003375557957932 5952.729532706895 20.51634840242169 0.2847302358229277
0.9121633982289405 13.00886705344075 5208.885997251515 21.462196297776394 0.2888198675004726
0.9371875287121393 13.014760709690002 4563.101890421829 22.449285154429276 0.2929809456134888
0.9624725863633854 13.020971936136647 4002.6247976146096 23.479699875278857 0.2972177430077731
0.9879976308728862 13.02735938729986 3514.877172276312 24.55583570281012 0.3015361312245222
1.0137435443913474 13.033806969668829 3090.6588346203644 25.67960019496995 0.3059374797271104
1.039709834301617 13.04027557573857 2720.0425187570504 26.853025688583973 0.3104235704987183
1.0658641601873984 13.046601290467652 2396.9689748843207 28.079176652326616 0.31500288667391646
1.0921995513568348 13.052734852843761 2114.715294977072 29.36006621653786 0.31967558127055135
1.118699987361661 13.058565789229727 1867.4177292715328 30.698536017482986 0.32444692299510614
1.1453341241910049 13.064013822818993 1651.0531105904963 32.09789927221121 0.32932438009780407
1.17210046426385 13.069024269512422 1461.2214178535091 33.56019032658048 0.3343062519897454
1.1989586530924483 13.073480805468705 1294.6942289082708 35.08990942579174 0.339405816049355
1.2259073638541997 13.077345933568147 1148.31706642527 36.68902661635588 0.34461950425138665
1.252906700562037 13.080506652581004 1019.5816533096859 38.36264736754651 0.34996207944748214
1.2799509536694433 13.082944521445295 906.1934864644481 40.11307218495367 0.3554304608177409
1.307004491019496 13.084552446500576 806.3047049604374 41.94566092935937 0.36103855223357134
1.3340361501198668 13.085245054341398 718.1034604056098 43.86401670336036 0.36678894812466195
1.3610467769742112 13.085030498181448 640.25453801065 45.87271178881577 0.3726887489080872
1.3879875211320156 13.083781747664393 571.4488861950693 47.97714089553678 0.3787482443081314
1.4148326402481206 13.08145836181116 510.5431001551242 50.18213267248071 0.3849734424286994
1.44156506983526 13.07801101386098 456.6061076814513 52.492775888733064 0.3913706248704227
1.468160430621655 13.073405895177041 408.7674418539313 54.915556551204524 0.3979518342051469
1.4945713115239299 13.067533162005065 366.3016902506714 57.4566685443574 0.40472613819234327
1.520784165413304 13.0603793636655 328.64947583049405 60.12274422141199 0.41170331523213505
1.546768485677176 13.051885794630326 295.1059060512486 62.92089387946582 0.4188939128868911
1.5724864863030317 13.041994856400908 265.29843154102514 65.85874901467012 0.4263093111821288
1.597899755579155 13.030652860974563 238.75940066494059 68.9445097412889 0.43396179124614553
1.6230081106430747 13.017839696805693 215.0899714018164 72.18699680618194 0.44186460991630727
1.6477507176537076 13.003479046409717 193.96500288100626 75.59570868436529 0.4500320810158406
1.672098791003379 12.987535741269992 175.12924981641743 79.18047484360376 0.4584779543171546
1.6960356484357544 12.96997162739578 158.2586645239005 82.95172214802969 0.4672164700994566
1.7195152405789618 12.9507505896198 143.18758405778772 86.92208633357635 0.47626872133946613
1.7424973672604558 12.929801340081008 129.69388401134654 91.10303239293448 0.48564857878951895
1.7649779390254274 12.90713843527725 117.59615690629066 95.50890114948376 0.4953789400527903
1.7868894746334252 12.882660838461359 106.75693748514671 100.15312441606542 0.5054763700987772
1.8082403250686214 12.856420264328992 97.02347751559502 105.05236283451852 0.5159670735555342
1.8289444258453182 12.828265215533293 88.27430920455296 110.22317143332377 0.5268736079267375
1.8490246434069058 12.798287879713651 80.41571193343756 115.68334772062238 0.5382199234332524
1.8683967404631732 12.76633868834466 73.33598738561253 121.45282231664281 0.5500342858768084
1.8870725342012895 12.732503716760597 66.96147992707583 127.55303734240937 0.5623465442503144
1.9049931646472553 12.696671928531941 61.21441018175035 134.00671923825703 0.5751869799650807
1.92213207911091 12.658837576238628 56.0374904293918 140.83946354571796 0.5885915205307801
1.938441986843316 12.618930461008347 51.3571482916412 148.07896496289126 0.6025984382531047
1.9539342334167187 12.577070544502932 47.13464439458824 155.7535809655592 0.6172429585921161
1.968545852622703 12.533126418683723 43.31411409627096 163.89714636125993 0.6325732716559941
1.9822562887910147 12.487107791969137 39.85346697680481 172.54365504785696 0.6486316114105465
1.995038821623866 12.439008423353233 36.72258687269836 181.7320676364052 0.6654699600242349
2.006871754301153 12.388832183493989 33.88259452214311 191.5046099840879 0.6831434041323821
2.0177130674164623 12.336538973027368 31.309679193087657 201.90736227454428 0.7017112373962104
2.0275428018548274 12.28214177541013 28.97341944007416 212.99011133664018 0.7212355015101066
2.036344878863153 12.225650914463879 26.853203973022826 224.8088200585177 0.7417879758344187
2.0440821258312667 12.167038349197082 24.926879185428955 237.42428418507544 0.7634444611558733
2.0507346138281592 12.106309618684836 23.17378845557876 250.90365383410693 0.7862883376753962
2.05629981755758 12.043542038333843 21.581011673060118 265.3202755944629 0.8104084060412433
2.0607397695958958 11.97867160019218 20.13072925138437 280.7554975381131 0.8359028955974379
2.064036095849204 11.911754424391054 18.810431269087072 297.29962526571387 0.8628804423684178
2.0661850073452386 11.842829320195845 17.609247859097046 315.0530097450744 0.8914612092211412
2.0671718690429906 11.77192396716618 16.513786805181326 334.1249067654899 0.9217702836650901
