M[M_sun], R[km], Lambda[1], P_c[MeV/fm^3], rho_c[fm^-3]
0.24162668629717493 15.618656898711224 2160425.4255784233 3.5677272577965504 0.1711233750220791
0.2536380283685223 15.277459708651474 1723327.3279616141 3.7847243333608653 0.17388698552560178
0.2660290443201764 14.981489020893429 1383296.2943814616 4.01120120753241 0.17666424089337435
0.2787981223806149 14.723835126068778 1116767.8085906708 4.247416933719624 0.17945390382933724
0.2919462219982097 14.498772179178532 906213.7704635883 4.493995249299617 0.1822625142573826
0.3054767981822852 14.301567873842938 738994.8772676775 4.751084745943055 0.18508564112622797
0.3193843808448206 14.128575081087057 605349.2070625313 5.019379103364582 0.18793015380611744
0.3336750433471246 13.976394795858988 497990.15822470526 5.29908670937003 0.19079236922771106
0.3483484950033656 13.842472049456351 411273.99587556446 5.590954094880857 0.1936789473368627
0.36340336788589483 13.724423886039135 340881.8521425476 5.895125841529286 0.19658453243682877
0.37884858694919027 13.620416300718698 283521.19916253426 6.212475201953015 0.19951699904866252
0.39467209657701763 13.528871911515697 236619.3219276985 6.543276629149321 0.2024728295974443
0.41088761188078954 13.448274340697328 198049.80345929644 6.888198242938636 0.205455157274942
0.42748636322128386 13.377433277145512 166256.22533300336 7.247959751945149 0.20846732825123307
0.4444718590879182 13.315277991991142 139943.6951040708 7.622844476531577 0.21150528073334987
0.4618425250038809 13.260903684121248 118112.6463415577 8.01375246610707 0.2145744229425628
0.4795983418580715 13.213451253210398 99930.00426931336 8.421410175635565 0.2176767610441414
0.4977443650136319 13.172263347771626 83869.72041443342 8.84629139387098 0.22081024278287106
0.5162712437733379 13.136662346454061 72036.59401758564 9.289203206512216 0.22397734480022247
0.5351777893011848 13.106080879232989 61361.964237013744 9.751059935522385 0.22718143266794422
0.5544723944418076 13.080045456627772 52375.938951256314 10.232669694685297 0.23042385495752052
0.5741411123744217 13.058017844423318 44793.65611696456 10.734550161093003 0.23370190665519203
0.5941903964988776 13.039698290005246 38384.011857774465 11.257852399663053 0.23702060629709046
0.6146121232769717 13.02465591044933 32952.38406353297 11.80355627034885 0.2403821322863339
0.6354003528377141 13.012556733504596 28338.742672827826 12.372638878295678 0.2437881141635019
0.6565561455238608 13.003107861106017 24411.874695556522 12.96585267004055 0.2472372266049155
0.6780782755269259 12.996060591360648 21063.668373912744 13.584396436308113 0.2507328320779868
0.6999529351537547 12.991111379500268 18203.854967241245 14.229526054087495 0.25427825478394395
0.7221726942304872 12.988032750386894 15756.846440293572 14.90242873132809 0.2578754746041348
0.7447466892809113 12.986662235381779 13658.976891819779 15.604216846226677 0.26152522913773374
0.7676525810912496 12.986743585609867 11857.630321679077 16.335989236646693 0.26522775402940846
0.790883368772826 12.988118139025987 10239.746527560588 17.099438246714456 0.26898854233492686
0.8144411965328069 12.990621304892002 8974.274365345675 17.896015653538324 0.2728100201949171
0.8383094920404858 12.994083338374638 7822.565072504078 18.727190774734265 0.27669421483718115
0.8624752762450792 12.998330082255407 6828.331623618236 19.594096808652594 0.2806397340222225
0.8869360887490102 13.003277849962183 5967.879520042722 20.4989158533285 0.2846538436898419
0.9116807164848296 13.008755080565054 5222.168569888063 21.44343768135796 0.2887395485372201
0.9366845776956815 13.014642782684652 4575.327213960243 22.42927859882288 0.2928978497715052
0.9619499447828189 13.020835543854856 4013.116357471496 23.45819438490523 0.297130402821462
0.9874588985555545 13.027225853520083 3524.391861741784 24.532730089809927 0.30144434359282196
1.0131878110093173 13.033677918448081 3082.278210237822 25.65498388012453 0.3058424806272873
1.0391342058405877 13.040136695771212 2727.7474698967294 26.82659782464568 0.31032373078761294
1.06527441178596 13.046463369838591 2403.765422997468 28.050813577346123 0.31489795932635334
1.0915871555291465 13.052589725264438 2120.659139020467 29.329868431345695 0.31956688778539416
1.118071491236964 13.058429635123968 1872.9267502019345 30.66614310835894 0.3243326549091629
1.1446881232221537 13.063898170158408 1656.11138298685 32.063312859904904 0.32920522888380893
1.1714377016069328 13.068906810466116 1465.7162975548997 33.52321422815094 0.33418163872564255
1.1982837400509816 13.073388800060753 1298.7050685277115 35.05026511408728 0.33927472305814554
1.225211334766473 13.077259227214846 1151.910114760794 36.646829104743624 0.3444833816109599
1.2521942195158995 13.080429546779207 1022.7561516186005 38.31747757897799 0.3498191702165187
1.279223987148919 13.082891762105293 909.0855367507448 40.06491549955758 0.3552814801212345
1.3062562030843987 13.084496707018296 808.8644377022641 41.89438461259798 0.3608835361596737
1.3332803290773574 13.085225688276823 720.4774223582506 43.80904608083278 0.36662554700579747
1.3602782604396442 13.085047764783816 642.3972363467443 45.81416200568945 0.37251849409214266
1.3871983994188453 13.083814250073278 573.311534458683 47.91476196308327 0.37857069373001123
1.4140394471130184 13.08153422636302 512.2285633524564 50.11524085985933 0.38478600419810416
1.4407681781569046 13.078146881858055 458.1279157414198 52.42147734827235 0.3911748657915722
1.467343928002537 13.073553867586973 410.17670986065525 54.839535705867554 0.3977471997615507
1.4937504939133301 13.067732083027051 367.55976779261545 57.37558426109873 0.40451203101102834
1.5199552673426309 13.060631865381197 329.7472626959452 60.036227523690435 0.4114790915653033
1.545934737591239 13.052180898876586 296.1315119011037 62.828545431570014 0.4186588787449691
1.5716466736041863 13.042340860273539 266.2225172141837 65.76013635245292 0.42606271808081936
1.5970617650326993 13.031052171440047 239.59743005050683 68.83916422081424 0.4337028315256903
1.6221565745461717 13.018280694321183 215.85462956087838 72.07441023828943 0.44159241158619594
1.6469043001765045 13.003999743714319 194.6567292573347 75.47532961918583 0.4497457020725597
1.6712591642771608 12.988122209432454 175.74931138868212 79.05211392357904 0.45817808624843825
1.6951833279615678 12.970615851062318 158.84095871259677 82.81456732923793 0.4669012887253328
1.7186777618534297 12.951475890459685 143.70354518905742 86.77521310969166 0.4759361257503683
1.7416760484250358 12.930618539159857 130.16947648182457 90.94637961656417 0.48530008402390923
1.7641584068180252 12.90802408367837 118.03383402425933 95.34096046887552 0.4950104407002041
1.7860886334249675 12.88364722976171 107.1463431776381 99.973749623299 0.5050892870779424
1.8074362657269614 12.85745697189349 97.37636479743979 104.86062420534896 0.5155599161745927
1.8281675721704882 12.829416650761544 88.59471996905779 110.01749205095626 0.5264426684447792
1.8482504091901861 12.79950383105975 80.70576695317884 115.46290873330538 0.537764572553102
1.8676500622796481 12.767673792377911 73.60645397183653 121.21665995556039 0.5495535458534949
1.8863361543338388 12.733909605189348 67.20741460104645 127.29997122931701 0.5618388693455036
1.9042758856305055 12.698173228718453 61.4392488964784 133.73593971769915 0.5746523771152047
1.9214278748801452 12.660414152411063 56.24417807371729 140.54863122165895 0.5880248685655699
1.9377731122598474 12.62064367955462 51.547490467018704 147.76633911378173 0.6019970868782366
1.9532933286852232 12.578899213234001 47.30383747843416 155.41827876104668 0.6166075273503411
1.9679407194926772 12.535075960611168 43.46885267828379 163.53643250358868 0.6318983860316771
1.9816801742078918 12.48916328925641 39.994623667346524 172.155625533487 0.6479151573385318
1.9945094560887968 12.44121556433576 36.85166046126417 181.31461203807814 0.6647095588635326
2.006357944380025 12.39110710126846 34.004520725400724 191.0550188985969 0.6823351688459608
2.0172493724875533 12.338969447557105 31.421753503000478 201.42264700945802 0.7008509156139006
2.027110906254589 12.284660728692925 29.076079560359577 212.46793450326516 0.7203215895332648
2.0359480241756867 12.228273777540231 26.946345244090093 224.24487068538195 0.7408131759172231
2.0437433096984527 12.169827453443064 25.01253638236607 236.8155129621282 0.7624063805978419
2.050451300467953 12.109252127943419 23.25315740006736 250.24475462471605 0.785178085100879
2.056051965149369 12.046573768405242 21.652781547648807 264.60706852407935 0.809221736541877
2.06054975355399 11.981858068930654 20.198501763728565 279.98326420422296 0.8346349176050374
2.063905953236262 11.915096309262758 18.871861971443455 296.4627211402213 0.8615245077277055
2.066108228456107 11.846291572864681 17.665268075773103 314.1438973992486 0.8900058991641107
2.0671497889585697 11.775519122612174 16.566982651028418 333.1375936631604 0.9202109014859747
