M[M_sun], R[km], Lambda[1], P_c[MeV/fm^3], rho_c[fm^-3]
0.24162668629717493 15.618656898711224 2160425.4255784233 3.5677272577965504 0.1711233750220791
0.253642269897053 15.277365809681406 1723207.8015238775 3.784807207235554 0.17388801850847008
0.2660378089674245 14.98133702422606 1383040.9363556325 4.01137542163393 0.17666634616797708
0.27881210376261906 14.723597083732821 1116446.5579667168 4.247688378561753 0.17945705218044727
0.29196620848405214 14.498477755381934 905954.9133078188 4.494371044263024 0.18226669882151758
0.30550059271614255 14.301294940698035 738671.5186489059 4.751577646899299 0.18509096539727102
0.31941567543217514 14.128218965084693 605146.971993286 5.0199927374129 0.18793652049620974
0.33371382939304745 13.975990228658103 497718.58140260604 5.299837226944822 0.19079992569435536
0.34839308210448006 13.842091373869732 411040.67997212807 5.591843365998403 0.19368755127955503
0.36345528738849353 13.724043577116358 340685.35850361816 5.896173839081039 0.19659437545161476
0.3789069516299545 13.620060174379093 283330.6540713283 6.213694602549935 0.19952811851385252
0.39473698910759564 13.528523139551114 236416.05131163573 6.5446661629205884 0.20248501393145016
0.41096189981485964 13.447925272930203 197898.12039675913 6.889784727012361 0.20546866843905606
0.4275684400815723 13.377107907953691 166107.29118585348 7.249758066844463 0.2084822052495265
0.44456267161156626 13.314968537931428 139826.45996360385 7.624849648384245 0.21152124319061838
0.461942690697912 13.26061233443983 117997.25760996639 8.015999459615896 0.21459180525396981
0.479706007632337 13.213206579589992 99830.41163668751 8.423916504252048 0.21769560513155423
0.49786058473269873 13.172024590531482 84659.21049098905 8.84904781348876 0.22083020043863127
0.5163967538684896 13.136439274364827 71947.20017520242 9.292254310995483 0.22399882476599886
0.5353137407924604 13.105880047836921 61288.24850806885 9.754426402198217 0.2272044812807816
0.5546187895393727 13.079837992483462 52311.692177394456 10.23637345687936 0.23044852056889065
0.5742995314807664 13.057890108881592 44739.42497667212 10.738575124530476 0.23372774816723824
0.5943551248691454 13.039541859290301 38336.64196987091 11.262259074339207 0.2370481392802116
0.6147898192119913 13.024521371773591 32909.15935857549 11.808370675954297 0.24041141190507342
0.6355888783180046 13.012451373149357 28300.23339757728 12.37788865727693 0.2438191984943991
0.6567602184216144 13.003041192350473 24376.83426886066 12.971513715430337 0.24726958281894262
0.6782909279919928 12.995980370031248 21033.391871110398 13.590549108228602 0.25076708850684065
0.7001764176845484 12.991062760344327 18040.809000237357 14.236203325525102 0.2543144793073773
0.7224092174312101 12.988002111794602 15734.442190775842 14.909665693152046 0.25791373914929144
0.7449939567832483 12.986641398221288 13638.048131459485 15.61198025573057 0.2615649105374446
0.767912033990858 12.986757622883776 11757.414251629698 16.344384187132878 0.2652696007520558
0.7911544876091177 12.988128142171341 10291.495314146412 17.108506848950295 0.2690326398767134
0.814726954177838 12.990661705237992 8958.997741190447 17.905802809278182 0.2728564595490876
0.8386083547062816 12.994121122358683 7809.856823638327 18.737653082631674 0.27674228372862625
0.8627843057144355 12.998394476841064 6816.497394083152 19.605370248926807 0.28069031083894613
0.8872584694639422 13.003342426348302 5956.998802261876 20.511054655965097 0.2847070378051466
0.9120166906640933 13.008828575163802 5212.889533791704 21.456499788669763 0.28879547669811295
0.9370346996532685 13.014719245994742 4566.656029178777 22.44320961302506 0.2929557112733844
0.9623108746360607 13.020920169712955 4005.9019014282485 23.47316905366605 0.2971912194007073
0.9878334989474261 13.027322108269093 3517.7810469754245 24.548818858782738 0.3015082566342537
1.0135739472282213 13.03377708592526 3093.1906923915535 25.672124490799764 0.30590862954497827
1.0395350711343327 13.04022481297773 2722.420459248859 26.844999727101463 0.31039324986146866
1.06568418691439 13.04654932471258 2399.1093163446426 28.070562861566092 0.31497102051632997
1.0920132851146418 13.052683611135482 2116.572080447845 29.350895126564513 0.31964257097772525
1.1185101430249367 13.058520670161245 1869.2586919920466 30.68869812844137 0.3244122192040325
1.1451384204323016 13.06397897615293 1652.711120865198 32.087426694334766 0.32928839735172805
1.171899423399999 13.068994520362654 1462.699403725943 33.548960210580766 0.334268405340953
1.1987513712886986 13.073449916873967 1295.8872651781408 35.07786876424628 0.33936600084585494
1.2256970511933416 13.077322346516118 1149.51869586551 36.67621035198431 0.34457816096643906
1.2526905178851893 13.080485628642792 1020.5549639050492 38.348974287175054 0.3499189448833221
1.279729532500946 13.082933733115249 907.0201738762274 40.09844559898253 0.3553852110471728
1.306772762703976 13.084521880839453 807.0964586618474 41.93008662739607 0.3609914687592399
1.3338080107242754 13.085235618487467 718.8473776878395 43.84732006080821 0.3667393170681293
1.3608147870481817 13.085037052853146 640.8648945274589 45.85492779254619 0.3726370354627085
1.387744915295847 13.083780999685532 572.0348823295482 47.9581935802419 0.37869431413247573
1.4145987980236658 13.081496851497048 511.03184261117235 50.16181426137321 0.384916508001641
1.4413211834274262 13.078047831524602 457.0732655641107 52.47111863854275 0.3913111621756705
1.467913889584848 13.073457091507962 409.19148663781726 54.89246455995177 0.3978896747176986
1.4943222326913344 13.067594286830479 366.68681206233066 57.43203814157754 0.4046611003588457
1.520532772215151 13.060456223150595 328.972454660727 60.09646327259055 0.4116352034009192
1.546515260818731 13.051975568803226 295.41373431307665 62.892841021066715 0.4188225161319642
1.572231293450883 13.042101903675162 265.5794865378014 65.82879281202797 0.4262344020097477
1.597654626615548 13.030780995644493 239.02299756940567 68.91250776069243 0.43388312417124825
1.6227351095115905 13.017943678266152 215.33082196632986 72.15279459141615 0.4417819198945789
1.6474940708404608 13.003638272769026 194.18339223998717 75.55913862676508 0.44994508171545844
1.671842229065458 12.987713269589566 175.30663571194248 79.14154590371432 0.4583871335457685
1.695780195415097 12.97017403531049 158.4350162978817 82.91005448659384 0.46712071793483295
1.7192446345812369 12.95093630912924 143.3464994768777 86.87746544170007 0.47616767697326284
1.742247869125674 12.930042036726213 129.83196814966095 91.05543969806172 0.4855427025616683
1.7647283056132668 12.907403376746926 117.73067459659428 95.45787814085823 0.4952669841789817
1.7866532037069767 12.882982194758121 106.85746439386949 100.0986266654722 0.505358766317315
1.8079958120983262 12.856734653274566 97.1271208585804 104.99410772463406 0.5158433687075871
1.82870821140363 12.82861320145127 88.36743171685373 110.16085069593828 0.5267433118426643
1.8487898163482357 12.798659364039228 80.5015203421825 115.61637019124639 0.5380815709697302
1.8681778261441309 12.76676619739442 73.41339325367314 121.38106612769796 0.5498882165718263
1.8868512170897285 12.732927987754817 67.03669131139789 127.4762444687611 0.562192648330559
1.9047764682911017 12.697126482315515 61.28553657875221 133.9244419119032 0.5750245389759752
1.921922319052035 12.65932675671744 56.10062040381419 140.75109131542555 0.5884193378199097
1.938238881143968 12.619451876228956 51.41490246229307 147.98396857426408 0.6024157079732153
1.9537502786200702 12.577660587101139 47.183087613646805 155.6516920395567 0.6170498688781161
1.9683600782860284 12.533712698998485 43.358241024340224 163.78774741062105 0.6323689135070321
1.9820809703268907 12.487731019720652 39.897580782977634 172.4257386969139 0.6484138917612372
1.9948781780650289 12.439669802025929 36.76305547142156 181.60520640192775 0.6652388805266036
2.0067107443613708 12.389511600846792 33.92128934248326 191.36797998458331 0.6828977827436423
2.017570148384225 12.337271475466018 31.341975504467236 201.7600546687082 0.7014497809265485
2.027411702635021 12.28290485568285 29.00435599286128 212.8314939843308 0.7209580099420161
2.036227999608248 12.22645679884948 26.880628623769205 224.63742469253705 0.7414917148639761
2.0439795990416347 12.167882141614458 24.952275041979373 237.23927575220898 0.7631290047826718
2.0506470765598137 12.107197078027852 23.19754609424986 250.70361391999643 0.7859516181526707
2.056219886915795 12.044448434760564 21.60175292636387 265.10356600400814 0.8100479371943741
2.0606816349702743 11.979640156517592 20.15001113273505 280.52102617237443 0.8355183079848941
2.0640014614509963 11.912777477789229 18.82949480812981 297.0452402978223 0.8624682931394513
2.0661644473006833 11.843883329032876 17.626055136130137 314.7766682810755 0.8910188408894618
2.067166287976674 11.7730123423551 16.530559561503757 333.8247860480614 0.9212962669653855
