M[M_sun], R[km], Lambda[1], P_c[MeV/fm^3], rho_c[fm^-3]
0.24162668629717493 15.618656898711224 2160425.4255784233 3.5677272577965504 0.1711233750220791
0.25364429997498855 15.277280900687273 1723225.3453056468 3.7848254110795923 0.1738882454106042
0.266040585175675 14.981252942856944 1382920.607568867 4.011413689742317 0.17666680861548265
0.2788165721372601 14.723468258589904 1116402.0175820272 4.247748005599096 0.17945774376422444
0.2919709933552747 14.498375390419223 905868.1856736608 4.494453594882804 0.18226761804182784
0.3055062396025425 14.30121921394658 738651.9591485244 4.751685924069673 0.18509213499736113
0.31942310294663856 14.128122393991857 605086.3811625552 5.020127538722726 0.1879379191118277
0.333721600025277 13.975951511065178 497667.19495781825 5.300002101328882 0.19080158570582675
0.3484030367443669 13.84201047095743 410996.2340714891 5.592038725098299 0.19368944143258796
0.3634666097807365 13.723952925222136 340638.31392231304 5.896404071887802 0.19659653784685832
0.3789194014851421 13.619989153373158 283300.7456607334 6.213962495181973 0.199530561372093
0.3947514304347727 13.52848747982379 236404.8490116826 6.544971437227888 0.2024876907747198
0.41097819108148664 13.447847213819033 197867.21324137025 6.890133276256209 0.20547163683067968
0.42758712084415085 13.37702711390815 166075.3541320999 7.25015316172936 0.2084854737682551
0.444581836151176 13.314908192003902 139797.53950791885 7.625290196901044 0.21152475024008388
0.4619635386540824 13.260555435443122 117977.25424549042 8.016493145919648 0.21459562431665757
0.47972828941393686 13.213142193377887 99800.03613831595 8.424467177981478 0.21769974542817178
0.49788612727790976 13.17199873160835 84640.27076073978 8.84965344421855 0.22083458546388107
0.5164242051465203 13.136395360317643 71932.30539418044 9.29292469962804 0.22400354434376593
0.5353430447645983 13.105850339559355 61274.41590267916 9.755166094075836 0.22720954560291753
0.5546513461192554 13.07980042405096 52302.45278896983 10.237187273535445 0.23045394027034927
0.5743338994879826 13.057860682017457 44326.23149586989 10.73945952993098 0.23373342632386396
0.594391698345648 13.039513693696426 37989.61723603231 11.263227368522783 0.23705418919979312
0.6148285700418272 13.024497357167967 32900.42799112405 11.80942857905055 0.24041784572097097
0.6356337364958782 13.0124444175006 28058.659356247877 12.379042246275889 0.24382602898046166
0.6568044838605069 13.003023868469315 24369.438572346262 12.972757692874673 0.2472766928838975
0.678336708200787 12.995973278252489 21026.5780661715 13.591901138667426 0.2507746162500934
0.700225013622632 12.991064805749254 18171.421833778353 14.23767065820787 0.25432243965879453
0.7224593133631809 12.988001129346456 15728.458106500606 14.911256043101332 0.2579221479289603
0.7450482346308259 12.986650610134463 13633.356919361777 15.61368631685443 0.2615736307902347
0.767969129873575 12.986756966784768 11835.46120531224 16.3462290627449 0.2652787969942709
0.7912137804045264 12.988146264826277 10287.88390051282 17.110499797945227 0.26904233091280655
0.814789740469277 12.990669765585723 8955.690112227603 17.90795370439776 0.2728666653926336
0.8386731833722703 12.99413511046829 7806.76389904152 18.739952383877355 0.27675284782815973
0.8628521512095202 12.99840369517959 6813.970195550211 19.607847852312865 0.28070142628279665
0.8873337793579931 13.003358297469177 5954.807263204617 20.513722485920024 0.28471872864966263
0.9120906027006568 13.00884555977894 5210.662055046107 21.45937058616952 0.2888077686216613
0.9371108117828877 13.014737501012874 4564.835058805734 22.446271419512815 0.2929684282744063
0.9623953898672786 13.020947333035481 4004.2255950072404 23.47646029189075 0.29720458609705996
0.987916624320659 13.027333082849077 3516.3107228287704 24.552355019971817 0.30152230412396336
1.013657813581891 13.03380016647271 3091.6625790415574 25.675891887142523 0.30592316865302455
1.0396251136487888 13.040240469325642 2721.2531843051806 26.849044414772084 0.3104085299631632
1.065774555563022 13.046577335781693 2397.964472991069 28.074903773158898 0.3149870794358848
1.0921074963864343 13.052706698223757 2115.6371065638855 29.355516877379035 0.3196592064428881
1.1186056654974434 13.058540983667411 1868.4383805971474 30.693655896119445 0.32442970805077226
1.1452370086052308 13.063995852599108 1651.9721899486044 32.09270429805995 0.3293065306783047
1.1720005341246977 13.069008370754787 1461.9370271192015 33.554619554323814 0.3342874779128698
1.1988575758074378 13.073468670347369 1295.3933469748827 35.083936558065865 0.33938606539503363
1.2258031060349723 13.077337550876694 1148.9439610013144 36.68266898799762 0.34459899552644263
1.2527989762862362 13.080497079192206 1020.0780521670297 38.3558791738335 0.34994076705432325
1.279843359887311 13.082937178014378 906.6398124400382 40.10581648636056 0.35540801411026607
1.3068867299764866 13.084520198417616 806.6781832670632 41.93793508348106 0.3610151958310207
1.3339235646921452 13.085233540431243 718.5246492608161 43.8557340768672 0.36676432787526525
1.3609312521046422 13.085032516321727 640.5557401555271 45.86388973889573 0.3726630955853046
1.387863257334074 13.083773260345263 571.7570673082763 47.96774173468492 0.37872149126223187
1.4147204223308536 13.081484683812958 510.7751673507427 50.172053318697195 0.3849451989686303
1.4414432960739916 13.078029472102392 456.824272295579 52.48203234502101 0.39134112712464736
1.4680385408967707 13.073431222850381 408.9795500930559 54.90410123852598 0.39792099856360935
1.4944475340721703 13.067564241898365 366.493183277839 57.44445002932528 0.4046938745808486
1.5206600006970694 13.060418208413898 328.8018265738836 60.10970687116096 0.41166952658143474
1.5466433922178313 13.051930956757559 295.26572558583433 62.90697748208142 0.41885849454914514
1.5723611008110887 13.042047085706846 265.43633672059747 65.84388836134136 0.42627215028910115
1.5977837794621523 13.030719841438852 238.8937994294632 68.92863416588048 0.4339227660028195
1.6228707261727493 13.017896612398367 215.20524368140576 72.17002967739626 0.4418235888228616
1.6476224792444931 13.003558101978841 194.078679502335 75.57756684506053 0.44998892201006563
1.6719716623169611 12.987624127764295 175.20633005777225 79.16116274069533 0.45843289940201404
1.6959083907285146 12.970069947577711 158.35070624223934 82.93105132643925 0.467168968611645
1.719389430166521 12.950860733358903 143.26261237337872 86.89995036544516 0.47621859426275254
1.7423695538320907 12.929909172327964 129.7655539839804 91.07942206507971 0.4855960545006914
1.7648537185991968 12.907270821141152 117.66371369497033 95.48358897048584 0.495323399480134
1.7867809604756648 12.882833160568351 106.81478865768928 100.1260883445072 0.5054180274292813
1.8081190253399888 12.856575739827942 97.07237986886791 105.02346264916754 0.5159057039513643
1.8288288634116956 12.828441047475257 88.32003096559642 110.1922541852655 0.5268089681852757
1.8489090098713004 12.798473062416582 80.45407038242068 115.65012009483554 0.538151286624349
1.868284057413283 12.766535109944344 73.37977080179641 121.41722384906149 0.5499618204421958
1.8869629164475488 12.732713580893735 67.0007397988767 127.51500350196487 0.5622704225299464
1.9048875854155534 12.696896245279136 61.25239901414657 133.96590087800178 0.5751063918479485
1.9220282509743067 12.659079510802684 56.068837127391745 140.7956212657728 0.5885060990970705
1.9383420977178696 12.619190600348215 51.38638610879252 148.0318361604382 0.602507783656782
1.95383768927552 12.577346364560768 47.15592289801989 155.70303248191252 0.6171471641556311
1.9684536544376858 12.533414982381466 43.33356011824652 163.84287181308028 0.6324718863489416
1.9821688800808983 12.487414924805979 39.87523974836484 172.4851545868337 0.6485235967055751
1.9949591432644689 12.439338865473792 36.74239561871088 181.6691291562406 0.6653553167099236
2.0067939453753536 12.389178302681135 33.89940225491344 191.43682468377645 0.6830215456850498
2.0176412152197067 12.336903260833513 31.32547956134209 201.83427919335955 0.7015815221361591
2.0274773182185193 12.282517102396382 28.989049245867275 212.91141681747624 0.7210978301569728
2.0362868919158164 12.22605220733217 26.866725417142877 224.72378554000113 0.741640991644778
2.0440315331338166 12.167455888706854 24.939884469705778 237.3324953194325 0.7632879527080831
2.050691422615931 12.10674884727261 23.185445642307265 250.80444732046357 0.7861214108997516
2.056263521190146 12.04400240243313 21.590900271003683 265.21280441050015 0.8102297162493944
2.0607105188266153 11.979153236351976 20.140220071563515 280.63916645337764 0.835712085542649
2.0640151507316506 11.912256592588376 18.819830873351506 297.1734134225033 0.8626759565676378
2.066176300328241 11.843356055956448 17.617438035212203 314.9159034090369 0.891241728943886
2.0671685846974803 11.772461628846441 16.52187976261606 333.9760014461125 0.9215350996076064
