M[M_sun], R[km], Lambda[1], P_c[MeV/fm^3], rho_c[fm^-3]
0.24162668629717493 15.618656898711224 2160425.4255784233 3.5677272577965504 0.1711233750220791
0.2536439945475073 15.277270586819359 1723321.913684665 3.7848212736752385 0.17388819383985488
0.2660400552808785 14.981264431498852 1383013.170959827 4.011404992070806 0.17666670350925545
0.27881521110289953 14.723497293608672 1116434.1840095476 4.2477344533821935 0.17945758657893113
0.29196981449530646 14.498423541160546 905896.8768586604 4.494434832476845 0.18226740911808295
0.30550476202599997 14.301250296791784 738696.0224525477 4.751661314377532 0.1850918691657177
0.31942136374202973 14.128144407699834 605104.669392518 5.020096900439346 0.18793760122781233
0.333720485492817 13.97594080348565 497679.90606245666 5.299964627802101 0.1908012084095919
0.3484008088657189 13.842028205423082 411006.4387375652 5.591994322741601 0.19368901182757223
0.3634629715827388 13.723987957889442 340645.54498180223 5.896351743105974 0.19659604636386546
0.37891675668059316 13.620002148212937 283295.4009941827 6.213901606689786 0.19953000614235877
0.39474878428113613 13.528455438543864 236406.22077362167 6.544902052218936 0.20248708236192584
0.41097432043360543 13.447890377684832 197864.75944877256 6.890054055213868 0.2054709621510393
0.42758204865644406 13.37705483137613 166079.32023376782 7.25006336121552 0.20848473087161798
0.44457721552261575 13.314944827816557 139801.38344661205 7.62519006509263 0.21152395312650435
0.46195860736823746 13.260567220366198 117983.37751974388 8.01638093622367 0.21459475628394153
0.4797232153220699 13.213156937748776 99808.95655803745 8.424342015359803 0.21769880438023093
0.49788088110466033 13.171981961509951 84646.16808011931 8.849515790146665 0.22083358878958556
0.5164182662050587 13.13640628984078 71938.13479865402 9.292772326362915 0.22400247162648007
0.5353364338739156 13.10584794167316 61276.56951380102 9.754997968435273 0.22720839452578814
0.5546446195695257 13.079815631926694 52300.51895035565 10.237002299554408 0.23045270841579416
0.574326742450661 13.057837191043586 44731.04814641728 10.739258511311634 0.23373213572206
0.5943829976533967 13.039521064934473 38328.04168230452 11.263007282135474 0.23705281409606246
0.6148199265037719 13.024502882105867 32902.181578304306 11.809188124664063 0.24041638335711185
0.635623451051776 13.012436700972629 28292.036640681155 12.37878004253805 0.24382447645267363
0.6567942569656691 13.003016499695997 24371.17377283284 12.972474943870905 0.24727507680653865
0.6783267122584953 12.995985265395689 21027.88552923966 13.591593829158175 0.250772905233079
0.7002136396529494 12.991058738131855 18172.364132312126 14.237337140364316 0.2543206303082159
0.7224477270907373 12.988008931085087 15729.663712652671 14.910894563214969 0.2579202366485402
0.7450362421015883 12.986638091883412 13634.175404933889 15.613298535597234 0.26157164870967337
0.767956111771438 12.986756905109809 11836.51625740064 16.345809728556404 0.2652767067185139
0.7912003434314615 12.988142920287043 10288.827189554351 17.110046806162632 0.2690401281671637
0.8147755167448292 12.99066871072082 8956.494551426835 17.907464810816904 0.27286434562755
0.8386563528491796 12.99412837424401 7807.272452024072 18.73942975697553 0.2767504466279603
0.8628378333946547 12.998409617917199 6814.751995612305 19.607284696413195 0.2806988997574387
0.8873178770945707 13.003354445051798 5955.47680870099 20.513116090422436 0.2847160713305691
0.9120733174910599 13.008849035489394 5211.123437139983 21.458718054852614 0.2888049746715269
0.9370945315801587 13.014731119877872 4565.332764120377 22.44557547064674 0.2929655376990298
0.9623773505724731 13.020949750751022 4004.6470952866125 23.475712191472027 0.29720154783897723
0.9878974055390974 13.027328954319062 3516.6079147982637 24.551551246576185 0.3015191111138317
1.0136385808998947 13.033795946238605 3091.8555384751385 25.675035552150263 0.3059198638913686
1.0396037000369123 13.040245991423326 2721.484487353219 26.848125048898734 0.31040505676444347
1.0657543040770492 13.046570262250892 2398.363529414212 28.073917072662116 0.3149834292016969
1.092086284956492 13.052702559341785 2115.828362582024 29.35446633940133 0.31965542515120193
1.1185841868230746 13.058533407535355 1868.6146150365412 30.692528977799604 0.32442573277337655
1.145215072433597 13.063998177383006 1652.1268053450906 32.091504677536854 0.32930240890034523
1.171977395806052 13.069003756653414 1462.0552970800695 33.553333159627044 0.33428314263010883
1.1988329004689493 13.073461197602363 1295.4709758278714 35.08255731739778 0.3393815046200573
1.2257790407170508 13.077327445930218 1149.0791407716583 36.6812009039376 0.3445942597145195
1.2527743829552058 13.08049294746877 1020.1879903147344 38.35431628828551 0.3499358456775611
1.279816236430912 13.08293948135859 906.693091458312 40.10414103475932 0.35540283082274404
1.306860451024688 13.084524102497232 806.7442975547765 41.936151073585854 0.3610098024988312
1.3338975483462379 13.085234264122086 718.6233561999757 43.853821506137216 0.366758642725947
1.3609044061352054 13.085035979463813 640.6189781602152 45.86185261494587 0.37265717190558073
1.3878360346982919 13.083778466439218 571.8101578002934 47.9655713560073 0.3787153136639019
1.4146927161866605 13.081483229982272 510.835712103534 50.16972588537398 0.3849386772439702
1.441415790039356 13.07803518917544 456.89266682394026 52.47955155192701 0.3913343157962841
1.4680096962909248 13.073435771936952 409.01212837642635 54.901456100523376 0.39791387832782404
1.4944189277942974 13.067572045815181 366.53134626521563 57.441628671442686 0.40468642464160703
1.5206309119179147 13.060427188731865 328.84418343583565 60.10669644892202 0.41166172452783234
1.546614358420107 13.051940338013885 295.2927918159418 62.90376409388341 0.4188503162207055
1.5723303642380742 13.042061005406143 265.46990498450197 65.84045695199848 0.42626356962762524
1.5977545622817482 13.030733840461611 238.92200617652853 68.92496842033859 0.43391375488932826
1.6228404892824841 13.017914573542956 215.23708312513796 72.16611190350383 0.44181411689800204
1.6475933310687123 13.003574831289368 194.09821983702517 75.57337784414358 0.44997895647615643
1.6719429946214857 12.98764249009828 175.23834178262626 79.15670353907558 0.4584224961356517
1.6958796299567618 12.970096044126423 158.36503158248405 82.92627841566978 0.4671580004765977
1.7193597700959877 12.95088499994162 143.2784660314746 86.8948391747654 0.4762070199306165
1.742345816787041 12.929945867914004 129.7794487898702 91.07397046703527 0.4855839267017036
1.764825299110475 12.907300076427171 117.68036226540572 95.47774444544518 0.49531057528717576
1.7867519654342823 12.88286475879805 106.82435015255265 100.119845803401 0.5054045562963991
1.8080908257234618 12.856612031278111 97.08429339743621 105.01678971988404 0.5158915339720437
1.828801348434408 12.828479192762586 88.33203444179553 110.18511555758508 0.5267940432137262
1.848881651684422 12.798516146811535 80.46511132002927 115.64244805479035 0.5381354388370331
1.8682584329895329 12.766579253849796 73.39011457221902 121.4090044374153 0.5499450887321625
1.8869385701778394 12.732760901383664 67.0106857304853 127.50620006870396 0.5622527689806245
1.9048607015743553 12.696949229568114 61.25665676142176 133.95647632399192 0.575087784852035
1.9220039885564986 12.659134187852448 56.07566771954059 140.78549857329105 0.5884863762426507
1.9383180587361564 12.619251015183519 51.39277826750442 148.020954707172 0.6024868526400385
1.9538163831486914 12.57740828111234 47.162576808108184 155.69136152674886 0.6171250465273169
1.9684333610640359 12.533480097931745 43.34281029997895 163.83034062733861 0.6324484779898347
1.9821489710629032 12.48748672761278 39.879837025232135 172.47164778349057 0.6484986578700054
1.9949390878127486 12.439414384448224 36.745981709076545 181.6545977701344 0.6653288475886421
2.0067764625897775 12.389256981201534 33.90349960919736 191.42117434573026 0.6829934108846466
2.017625015845204 12.336987074601854 31.32849778443222 201.81740580289025 0.7015515735324988
2.0274620714492753 12.282604981123528 28.991524497406207 212.8932479676867 0.7210660448412738
2.0362737811568223 12.226146128791612 26.870411729908994 224.70415305351088 0.7416070564244964
2.0440200167537426 12.167553071758858 24.94323421640873 237.31130354760253 0.7632518187904038
2.0506819370044256 12.106850419541878 23.18873387776629 250.78154315081355 0.786082871906211
2.0562544487094767 12.044109850596085 21.593219002991606 265.18797082355496 0.8101883917179167
2.060704011082888 11.979263905268361 20.14250677444854 280.61230905310845 0.8356680331552023
2.064010712302182 11.912372738370689 18.82183463133622 297.1442750674548 0.8626287472114164
2.0661734000986005 11.843476158651502 17.619192420788046 314.8842501052529 0.8911910582302535
2.0671682567152754 11.772590031527708 16.52412304339202 333.9416244138587 0.9214808038311795
