M[M_sun], R[km], Lambda[1], P_c[MeV/fm^3], rho_c[fm^-3]
0.24162668629717493 15.618656898711224 2160425.4255784233 3.5677272577965504 0.1711233750220791
0.2536443503970937 15.277284044690159 1723167.0838167744 3.7848264305035086 0.17388825811723152
0.26604072568340964 14.981259945393427 1382961.9349495443 4.011415832782289 0.17666683451285597
0.27881629039112144 14.72348224510319 1116401.123647427 4.24775134476517 0.17945778249351887
0.2919711611180089 14.498383069041283 905918.4470677788 4.494458217805158 0.18226766951914117
0.3055064408080671 14.301208532391692 738606.4788906637 4.751691987727049 0.18509220049643346
0.3194235735469251 14.12811443874223 605073.1998334186 5.020135087789727 0.1879379974363115
0.33372317520659406 13.975882499906147 489692.3158086269 5.30001133456222 0.19080167866916578
0.34840358479490147 13.84200584681512 410993.35319601704 5.59204966555943 0.193689547284559
0.3634667586548293 13.723959916485933 340641.49547581974 5.89641696538152 0.1965966589452799
0.3789200688395465 13.619986375285034 283286.0719254436 6.213977497749376 0.19953069817744343
0.3947520073921283 13.528447027701784 236390.93462541795 6.5449885333008115 0.20248784068418366
0.41097872258801593 13.447873047718858 197859.40102907113 6.890152795888694 0.205471803068061
0.4275859010920949 13.377056208572494 166064.4027074834 7.250175288104692 0.2084856568140877
0.4445830975443493 13.314907652418961 139791.56884581788 7.625314868871935 0.21152494664483618
0.4619647291914484 13.260556544734735 117975.3489917726 8.016520793844034 0.21459583819570507
0.4797297807866262 13.213137785146872 99802.4672011351 8.424498017469531 0.21769997729800913
0.49788768247054194 13.171969745512856 83760.0326662968 8.849687361566662 0.22083483103997317
0.5164261728896324 13.13639496401593 71936.05895204947 9.292962243750424 0.22400380865672812
0.535346125433846 13.105826767965294 61270.881803849756 9.755207519550256 0.2272098292236432
0.5546529703424425 13.079813991605853 52301.671329325945 10.237232850409677 0.23045424379455207
0.5743357082428114 13.057831003136704 44726.47402532499 10.739509060176836 0.23373374432338492
0.594392956332078 13.039517309197086 38322.73014712528 11.26328159704015 0.23705452802055096
0.614830612639978 13.024496200313944 32899.65077851768 11.80948782621966 0.24041820604261088
0.6356359150189748 13.012426540530704 28290.110850748944 12.379106852465794 0.24382641151850606
0.6568068179729466 13.003008901534098 24368.525427098746 12.972827361401876 0.24727709108063006
0.6783392927133074 12.995973239313164 21026.186644642352 13.591976858892194 0.2507750378400182
0.700228475572191 12.99105921990986 18171.33418225893 14.237752836160842 0.2543228854782001
0.7224579207400808 12.988019542302778 15727.457184056448 14.911345110902664 0.25792261886400025
0.7450502221978861 12.986649481294407 13536.365499985824 15.613781865315929 0.2615741191705901
0.7679724435339962 12.986761227491169 11835.512837194497 16.346332385863573 0.26527931203410315
0.7912170188338191 12.988148338959466 10288.265418933695 17.110611414319102 0.2690428736654362
0.8147924885605459 12.99067039219802 8955.392075613137 17.908074167008916 0.2728672369791101
0.8386758887814629 12.994132558357219 7806.802091597763 18.740081158411222 0.2767534394805131
0.8628560514143286 12.998412486717953 6813.630020557052 19.607986613248 0.2807020488156007
0.8873390443058088 13.003362498605684 5954.872802439599 20.513871901162457 0.2847193834104222
0.9120950167365369 13.008846373241415 5210.5503080144235 21.459531369364203 0.28880845704874025
0.9371156840428145 13.014744045482544 4564.865010428912 22.44644290087163 0.2929691405103441
0.9623998843644442 13.02094889539726 4004.142795872581 23.47664462351255 0.29720533472254634
0.9879212428323041 13.027337374430235 3516.245367188503 24.552553069557433 0.3015230908809485
1.0136638339794175 13.033795802458224 3091.728984588517 25.676102888037303 0.305923982946114
1.0396285605632183 13.040251716027752 2706.8745757609727 26.849270946665357 0.3104093857598645
1.0657802433662669 13.046583808324566 2385.7546839415863 28.075146896522725 0.31498797885492574
1.0921121312589674 13.052703643213546 2115.566172470891 29.35577573050189 0.31966013815519373
1.1186112955090646 13.058545363375664 1868.4269508487625 30.693933569642635 0.3244306875621181
1.1452420372790395 13.06399659415914 1651.921752154691 32.09299988567093 0.3293075462882218
1.1720062806976643 13.06900880187356 1461.9183591889037 33.55493652345494 0.3342885461315226
1.198862943695683 13.073463430158096 1295.266614910145 35.084276404858365 0.3393871891762438
1.2258089303050819 13.077332327775204 1148.9317440173065 36.68303072619089 0.34460016243785824
1.2528054418995307 13.080493472603461 1020.0365167910544 38.356264271549115 0.34994197969011176
1.2798489357829912 13.08293596307797 906.6067818743115 40.106229320934425 0.35540929128251847
1.3068928049811446 13.08452686923421 806.6413064827257 41.938374667371924 0.36101652475971946
1.333925701726154 13.085245961144484 718.448989062113 43.85620533887977 0.3667657287096854
1.360937955301669 13.085033076165868 640.546745218491 45.864391691521256 0.3726645551953545
1.3878701985648876 13.083770208835562 571.7284064018406 47.96827652205633 0.37872301343972403
1.414726851503668 13.081479724102467 510.7624604908117 50.17262680535068 0.3849468059414329
1.441450753037297 13.078028517913435 456.8255381172828 52.48264362050523 0.3913428054581019
1.4680449311752215 13.073429998660203 408.9645096903126 54.90475300969223 0.3979227530143704
1.4944545670700482 13.067562287275404 366.47739726383304 57.44514522229278 0.4046957102733004
1.5206667505068863 13.060415212515032 328.7978261105567 60.11044865094903 0.4116714490378905
1.5466504807848023 13.051926578530265 295.25038018224785 62.90776927420189 0.418860509723042
1.572366404630364 13.042046809913833 265.42634977395994 65.844733875567 0.426274264601507
1.5977909585068184 13.030716595992049 238.88729305094574 68.92953742243637 0.433924986382615
1.62287776298729 13.017893409764792 215.2034869831397 72.17099503584677 0.44182592275099447
1.6476296267513455 13.003554360296015 194.069133371422 75.57859903620302 0.4499913775683324
1.6719797572110993 12.987619096842861 175.20184793053946 79.16226151161092 0.4584354628219893
1.6959160394098096 12.970066716594774 158.3455887716222 82.9322273981968 0.4671716712211186
1.7193962700811978 12.950853642343725 143.25835892359322 86.90120979261987 0.47622144624565327
1.7423794321702206 12.929916532441881 129.76278223878495 91.08076537188073 0.4855990428638702
1.7648602307061836 12.907264079510943 117.66150561460373 95.4850290985232 0.4953265594426129
1.7867882775431745 12.882826440486488 106.81167482001024 100.12762654777376 0.5054213468051976
1.808125856464153 12.856566527747741 97.07212200902698 105.02510690462505 0.5159091955312747
1.8288355642365972 12.828430172312684 88.31732519143065 110.19401319388382 0.5268126458043866
1.8489156699810054 12.798461900717676 80.45457803257096 115.65201054244615 0.5381551916367692
1.8682910571478653 12.766523254341946 73.37823124500461 121.41924917541107 0.5499659432644443
1.886970472546555 12.732700713603533 67.00092441816807 127.51716737825446 0.5622747533570178
1.9048931255592967 12.696883581972614 61.248865547203835 133.96822316593386 0.5751109767653905
1.922034165801243 12.659065871874784 56.06702137713861 140.79811558393243 0.5885109589773867
1.9383475150149017 12.619176145408684 51.385412770037405 148.03451744724384 0.602512941245355
1.9538434611668398 12.577330738774394 47.155203098820856 155.70590831245323 0.6171526141423804
1.9684589819794263 12.533398168703144 43.333455758004995 163.84595961618942 0.6324776543908109
1.9821735872291233 12.487396644788396 39.874617502652065 172.4884827961508 0.6485297418801803
1.9949630489617562 12.439320990843015 36.740921504173066 181.6727098376514 0.6653618389707624
2.006798782633335 12.389157793100319 33.89756753756789 191.44068109171525 0.683028478395852
2.0176449578272235 12.336882052191788 31.32354904084895 201.83843698030444 0.7015889017978544
2.02748048735249 12.282496592438074 28.989464527884092 212.9158938258576 0.7211056624152852
2.0362901522220804 12.226029474524365 26.866367865189133 224.72862321243053 0.7416493536767409
2.0440341425302457 12.167431994463179 24.939050653947476 237.33771722568525 0.7632968565379367
2.0506937869051103 12.106724193114754 23.184939102916672 250.81009119085667 0.7861309073839268
2.0562658917744323 12.043976294318133 21.59159861280723 265.21892372379256 0.8102398991422376
2.0607118241164866 11.979128317406555 20.13955015124875 280.6457844706228 0.8357229406312611
2.0640169360537746 11.912229090317405 18.81873794889633 297.1805935097059 0.8626875895954421
2.066177250298023 11.84332564231607 17.61643080335106 314.9237032281121 0.8912542149201191
2.0671680418865996 11.772433303436532 16.521411367471284 333.98447244546094 0.9215484788744186
