M[M_sun], R[km], Lambda[1], P_c[MeV/fm^3], rho_c[fm^-3]
0.24162668629717493 15.618656898711224 2160425.4255784233 3.5677272577965504 0.1711233750220791
0.25364484380063984 15.27726918158418 1723149.436285104 3.7848503165898086 0.17388855584577423
0.2660428392897305 14.98121326890563 1383014.1071822355 4.0114660465117655 0.17666744131614256
0.2788198893001755 14.723434632541657 1116361.888770901 4.2478295853673576 0.1794586899665982
0.2919773453834854 14.498299506573746 905787.1481930176 4.494566538808198 0.18226887569865002
0.305513900041161 14.301115205221254 738541.4516221043 4.751834067633131 0.18509373523058273
0.31943251497255787 14.128016097870722 605049.7711563004 5.020311973649977 0.18793983269538328
0.3337346696653681 13.975757855621165 497576.0195169028 5.30022768388243 0.19080385694783183
0.3484164375122799 13.841897283842998 410925.9225035795 5.592306018976815 0.1936920275743926
0.36348230400037557 13.723834784204886 340599.63539317134 5.8967190829217975 0.19659949649715305
0.37893677869007486 13.619884488571678 283235.13724729634 6.2143290361266725 0.19953390378416463
0.39477237795074277 13.528332169461708 236350.77665545052 6.545389127992576 0.2024913533584535
0.4109999970474408 13.447748486978709 197807.1273437774 6.890610181248412 0.2054756983537187
0.4276101580994096 13.37695659107629 166027.13918092154 7.2506937569695005 0.2084899459741341
0.4446094641446214 13.31480616443455 139756.7788618177 7.625892988675655 0.2115295488502036
0.46199143871260473 13.260482726059262 117939.2580457105 8.0171686495522 0.21460084988337658
0.47976114632680456 13.213086842903065 99777.51604589933 8.425220661904707 0.21770541057392326
0.49792132829472235 13.171900105018214 84613.54339933746 8.85048213057885 0.2208405855072001
0.5164626897426104 13.136331219926904 71913.58947733142 9.293842000720934 0.22401000220064696
0.5353849814524492 13.105772032465326 61252.10071364496 9.756178230587443 0.22721647522523106
0.5546951436006382 13.079761717128592 52283.76504435504 10.238294979809252 0.2304612808126148
0.5743809965019949 13.057786619124656 44711.11507219436 10.740669696461781 0.2337411959678544
0.5944415338429448 13.039473234472336 38311.45667930484 11.264552332322458 0.23706246759759042
0.6148817739333963 13.024465513731352 32887.919022917544 11.810876168843711 0.24042664948216363
0.6356898340975958 13.01241520930602 28278.90698001885 12.380620779264085 0.2438353755914166
0.6568641436996865 13.002988797857627 24359.474591527913 12.97445992008767 0.24728642211661586
0.6783999958787209 12.995957138485705 21017.834347046963 13.593751235295121 0.2507849170924458
0.7002919318894565 12.99105620291438 18163.11665150158 14.239678546072318 0.25433333254845414
0.7225310384597929 12.988000909204784 15720.749335456296 14.913432281599944 0.2579336545222417
0.7451223090049991 12.986650503483276 13626.922444944274 15.616020907800946 0.2615855636705579
0.7680470278980172 12.986762875929063 11829.739598653663 16.348753625822074 0.2652913813080284
0.7912967978374948 12.988141114143021 10284.295913252063 17.113227005903024 0.2690555924015952
0.8148734162969737 12.990680152137479 8950.928444379702 17.910897070277528 0.2728806314532724
0.8387603104452688 12.994153974992138 7803.091848095171 18.743098851730252 0.27676730421991763
0.8629457672712301 12.998427027675916 6810.1346460049035 19.611238339995598 0.2807166372627604
0.8874313547695354 13.003374904024382 5951.809981120533 20.517373315042246 0.2847347271489462
0.912191443829181 13.008874622550794 5208.052271790992 21.463299196143915 0.28882458979189735
0.937215918170906 13.014765771459038 4562.733297548535 22.45046144363364 0.2929858312491662
0.9625040783825609 13.020981095267137 4001.901826279018 23.48096432036298 0.29722287829496297
0.9880286725708955 13.027359362780425 3514.3204722146784 24.55719425717432 0.30154152811607515
1.0137755437399742 13.03382135343128 3090.1391374728596 25.68104759898643 0.30594306553796424
1.0397439449974453 13.040285589509658 2719.7039871978027 26.854579641403728 0.3104294410526518
1.0658978531367422 13.046606409179075 2396.7172463789016 28.080844430156073 0.315009056509313
1.0922368071024244 13.052731169533454 2114.3837998217905 29.361841907403363 0.3196819726673874
1.1187374546674196 13.058571102294815 1867.0955926169117 30.700440826786867 0.32445364233335416
1.1453729223437144 13.064022646845459 1650.8561995000614 32.09992698183957 0.32933134710836576
1.1721395234402023 13.069030255410071 1461.1035858233536 33.562364727636705 0.33431357994549504
1.1989998001352702 13.073485463405376 1294.5044597384174 35.09224078417915 0.33941352521950946
1.225949363338925 13.077356384363892 1148.2182062315935 36.69150816520762 0.3446275093438469
1.2529487377940587 13.080511553775963 1019.4047554432364 38.36528918036501 0.34997039826278614
1.2799946313057613 13.08294733857254 906.0254170827286 40.115904297210925 0.3554392224269172
1.307047908268322 13.084547356135916 806.1652019204007 41.94867656516113 0.36104766895746687
1.3340820593795226 13.08523989984386 718.0141221300622 43.867249682855935 0.36679855821169666
1.3610923857571788 13.085031697452349 640.0816335533079 45.876155336174044 0.3726987622760345
1.38803335934794 13.083778279073591 571.3202425125697 47.980809723421636 0.37875868697661513
1.4148791612329041 13.081450050062767 510.4203966390897 50.18606702310542 0.38498446691272425
1.4416117101081745 13.078005342791743 456.50105471101034 52.49696951477248 0.391382138996311
1.468207501634874 13.073397238941794 408.6793418376767 54.92002802718679 0.39796387061431376
1.4946197885251962 13.067523336082449 366.23548840018975 57.46143794964853 0.4047387320500231
1.5208325501032036 13.06036488699976 328.58409867786753 60.127833274975586 0.4117165044346911
1.5468178337771556 13.051868274032218 295.0491889226172 62.926326088072244 0.41890773828967415
1.5725361533258746 13.041976282041933 265.24769992166097 65.86454983605331 0.4263238168500913
1.5979491156577565 13.030628899478835 238.714290497729 68.9507067639306 0.433977024729674
1.6230582667607791 13.017812723022313 215.04856059602224 72.19361994761059 0.44188062255503247
1.6478006845362572 13.003447706058955 193.92578422287005 75.6027904100905 0.4500489282735159
1.6721483568131366 12.987499919880742 175.08990625367846 79.18801341683528 0.4584955417222568
1.696085076514439 12.969936679815946 158.2272744838296 82.95979114494726 0.46723501263087247
1.7195652855779069 12.9507082489665 143.15469490997006 86.93072730575413 0.47628828889000957
1.7425464231267698 12.929754590282489 129.6757482582249 91.11224893656922 0.4856690822066185
1.765025376271223 12.907089018287124 117.5697057960785 95.51878208332721 0.4954006210279482
1.7869371165878938 12.882604567168025 106.72815821286974 100.16367834473441 0.5054991450189756
1.8082868714394873 12.856359005425142 97.00310856023194 105.06364450405914 0.515991030204451
1.8289900537088957 12.828202867280414 88.25512967606544 110.23524055950269 0.5268988412590964
1.849071068214789 12.798218598377344 80.39938271246317 115.69631882527115 0.5382467172594727
1.8684422701351537 12.766260061508685 73.32216897880865 121.46671900608627 0.5500625744439467
1.887118294251912 12.7324176605869 66.94891142300168 127.56788480993619 0.5623762602810396
1.905035421939743 12.696582445692625 61.20142877296375 134.0226538071681 0.5752184397517509
1.922173362263176 12.65874252745268 56.026136724969454 140.85657868897283 0.5886248673384006
1.9384819066497894 12.618843063291298 51.34984689632818 148.0973632139481 0.6026338282043826
1.9539716021613696 12.576964593715715 47.123466315379176 155.7733143140298 0.6172803552628039
1.9685797138595738 12.5330093739409 43.30289413756447 163.91833443558167 0.6326128511549123
1.9822901065380434 12.486986852994013 39.84522418147932 172.56649302145613 0.648673779231745
1.9950701996539582 12.438882455073621 36.71391573731982 181.75663832622897 0.6655147158764408
2.006900230583659 12.388697021688523 33.874318642737634 191.5310730129692 0.6831909770367782
2.01773909020793 12.336397485323797 31.30148820863196 201.93589372916614 0.7017618779137683
2.0275672557472024 12.281990426914607 28.96713378893123 213.0208336872941 0.7212892484245158
2.0363681687076083 12.225494908081295 26.84838698774567 224.84201779594468 0.7418453589138873
2.0441022899064394 12.16687319662487 24.922137023096944 237.46011909979688 0.7635055629773246
2.0507514908278623 12.106138354500132 23.169420738591178 250.94238493471485 0.7863535073654115
2.0563141561109473 12.043361780392315 21.57688268684851 265.36219022519674 0.8104780272459933
2.060749510793812 11.978484641321256 20.126298982261122 280.80091495151123 0.8359773907262212
2.0640433756313885 11.911559654668489 18.80723421675429 297.34890069586385 0.8629602773944872
2.0661897799999926 11.84262680860007 17.606213458870354 315.10653905946674 0.8915468991250776
2.0671760819411293 11.771714263625197 16.51165685805402 334.1830431679094 0.9218621054688085
