M[M_sun], R[km], Lambda[1], P_c[MeV/fm^3], rho_c[fm^-3]
0.24162668629717493 15.618656898711224 2160425.4255784233 3.5677272577965504 0.1711233750220791
0.25364161860897555 15.27734734163087 1723304.8734965445 3.784791426846124 0.17388782181352855
0.2660363487526702 14.981339243430131 1383117.9129525588 4.011342248321458 0.1766659452880734
0.2788104805762495 14.723596621852716 1116556.731689673 4.247636690243353 0.1794564526738465
0.2919632015384621 14.498520618923024 906037.3134301647 4.494299484827532 0.1822659019905953
0.30549558483251316 14.301344480210766 738732.0377311576 4.751483786839896 0.18508995152949484
0.31941193639783966 14.12823141387561 605228.6831846994 5.019875885576424 0.1879353081133056
0.3337059613523852 13.97610301651669 497770.85647690605 5.299694307262571 0.19079848673030173
0.3483848534456029 13.842161714222984 411086.5869555092 5.591674021886389 0.19368591282868633
0.3634455500994248 13.72410792313927 340736.1088155823 5.89597426637412 0.1965925010225173
0.378896650787711 13.620122314706245 283379.3829933712 6.213462386511276 0.19952600098318626
0.39472498669814987 13.528600901848097 236471.4788749051 6.544401544899676 0.20248269358888818
0.4109475914257404 13.448015511716717 197925.6026535613 6.889482599093215 0.20546609539091354
0.4275524602347259 13.377173730283532 166136.48735814737 7.249415594356687 0.2084793720624033
0.44454609926348954 13.31501617002463 139849.35166875375 7.624467778115977 0.2115182032577412
0.4619231190332652 13.26066879331662 118019.41463315487 8.015571531532581 0.21458849488428036
0.47968435314235797 13.213262434984289 99842.44883468002 8.423439181994606 0.21769201633546253
0.49783795083646704 13.172081061921196 84676.20872799042 8.84852285720654 0.22082639953085145
0.5163728835304363 13.136490393664742 71966.2221779415 9.291673226182406 0.2239947338926884
0.5352877910397903 13.105925106998189 61301.5142055275 9.7537852496242 0.22720009161087806
0.5545916761495405 13.079887148649872 52324.187474679704 10.235668057980272 0.23044382288739973
0.5742688622994482 13.057904159679179 44347.93475296096 10.73780854435646 0.23372282648506423
0.5943233947040233 13.039571997424137 38012.230499464975 11.261419785970793 0.23704289539129772
0.614756540481201 13.024537924079356 32918.38960284712 11.807453722150825 0.24040583529604467
0.6355536532941606 13.012458864155679 28307.346002207116 12.376888771565252 0.24381327809690576
0.6567221670450561 13.003042997569636 24383.21715491408 12.970435489386174 0.2472634201210216
0.6782501003381938 12.996001613543624 21038.425529968 13.589377232713849 0.2507605638179387
0.7001337356958249 12.991080025813467 18182.84171971128 14.234931518267517 0.2543075796909343
0.7223636907045937 12.988007505306738 15737.41492468821 14.9082872682788 0.2579064508973854
0.7449458558532492 12.986651007827179 13642.031640488514 15.610501545489978 0.26155735235156197
0.7678626820654519 12.986756040519174 11842.330811060552 16.34278516941115 0.26526163004976044
0.7911027008709283 12.988128274031014 10295.069195983328 17.10677950009047 0.2690242403641374
0.8146728120480128 12.99065642005617 8961.945298093608 17.903938573726336 0.2728476138846933
0.8385512930918247 12.9941108433064 7811.838619083664 18.735660228420315 0.2767331275946555
0.8627266075192376 12.998384864277082 6818.757888552057 19.603222867926487 0.28068067689468
0.887197472230031 13.003326341858822 5959.412470630144 20.508742414853256 0.2846969052060758
0.9119533425760136 13.008824029321826 5214.687879253698 21.454011646605522 0.28878482319432747
0.9369679052048482 13.014703223777857 4568.280634014187 22.44055593371232 0.29294468940029517
0.962241556117193 13.020907341423834 4007.294700089559 23.47031654065585 0.2971796344978087
0.987762712355899 13.02729721795149 3519.0076302995185 24.54575408822921 0.3014960817557594
1.013499929832938 13.033759383471192 3094.031193164383 25.66885932469231 0.3058960286401341
1.0394590138465378 13.040206449945725 2723.467020438491 26.841494254941082 0.3103800068188755
1.065608058308519 13.046544809251355 2399.8891619016413 28.066800677736214 0.3149571025624204
1.091932450273902 13.052665617917386 2117.2273428550693 29.346889563212347 0.3196281534090859
1.1184261288792825 13.058501251895915 1869.981809570427 30.684401371909928 0.32439706211694497
1.1450525297964462 13.063962455786235 1653.1832739471174 32.082852766407235 0.3292726817858828
1.171811655063703 13.068979659977849 1463.2742965258456 33.54405546983705 0.3342518758589467
1.1986625449862625 13.073436213453492 1290.5099779355762 35.07261006649653 0.33934861175803266
1.2256044699084752 13.077305918099665 1149.9436743270123 36.67061295522655 0.34456010463095693
1.2525954090676512 13.080473067751102 1020.9772990376383 38.34297380342986 0.34989993666625413
1.2796329631209546 13.082922979952265 907.4487363462898 40.09205766777477 0.35536544892208594
1.3066736117835112 13.084516975832338 807.4553755279682 41.92328484902166 0.36097090595274917
1.3337072581321858 13.085235104763635 719.2046137701843 43.84002819241653 0.3667176418641926
1.3607120383370408 13.085036437476369 641.1679409612295 45.8471611102907 0.3726144510057336
1.387640416797356 13.083791148983737 572.2875925088091 47.94991891744945 0.37867076177104914
1.4144930627059313 13.081507647864271 511.25408369223624 50.15294090431839 0.3848916438773093
1.4412212385353766 13.078081404281233 457.25334807023404 52.46166067069199 0.39128519413954665
1.4678074840214104 13.073474450861996 409.3688408308637 54.882380111873694 0.39786252919712084
1.4942136957262013 13.067617744512338 366.8595909620541 57.42128195282387 0.40463269809439706
1.5204224254026095 13.060490694201448 329.12463737323526 60.08498638813559 0.4116054589795062
1.546404585164441 13.052014808419358 295.5540495362331 62.880590457461054 0.4187913374736248
1.5721197466905859 13.042148477976266 265.70344684584137 65.81571118989501 0.42620168980322787
1.5975425048575478 13.030835096831828 239.13659471002288 68.898532899786 0.4338487712528002
1.6226298243804014 13.01803382385871 215.4322858807815 72.13785906399028 0.4417458105637701
1.6473812418854894 13.003706939149644 194.27334032512135 75.54316926448423 0.4499070909810393
1.671731116091966 12.987792498456008 175.38878758073838 79.12454661511909 0.4583474743999603
1.6956688990777447 12.970261916152792 158.50860381856987 82.89185946098647 0.46707890581897976
1.7191412612817971 12.951062086373902 143.42088751148927 86.85798104105768 0.47612355439231535
1.7421379274439397 12.930150349179502 129.9026960466803 91.03465781120428 0.4854964705129481
1.7646227500381955 12.907528599789174 117.78363738625171 95.43559862458069 0.49521809794549454
1.78654867566299 12.883106479496517 106.92256241329346 100.07483012210125 0.5053074144091043
1.8078896728389522 12.856871747196864 97.1773310927882 104.96867078929915 0.5157893533220854
1.8286036429331425 12.828760902240642 88.41030425533944 110.13353268784705 0.5266860240448372
1.8486863302270673 12.798820604674692 80.53926314860597 115.58712532352183 0.5380211611646393
1.8680774247211553 12.766937676979328 73.4516688774893 121.34973508062312 0.5498244380415298
1.8867532005941654 12.73311699797165 67.0689883468796 127.44265138767906 0.5621252272848714
1.904681410561324 12.697326055356562 61.31347142103512 133.88851781240848 0.5749536136492387
1.9218304501355343 12.659538693253442 56.12594835368756 140.71250653546448 0.5883441599954954
1.938157170269934 12.619707426430633 51.440662887226466 147.94249211998027 0.6023359259498181
1.9536556443545379 12.57787329802346 47.20744534090576 155.60720676574525 0.6169655648312047
1.9682799005282854 12.533968649737757 43.37824178912004 163.7398725502054 0.6322793140979768
1.9820054029412917 12.488004674413299 39.91598920232391 172.37425714920002 0.6483188367122595
1.9948046512570465 12.43995730295228 36.778612159080964 181.5498203228894 0.6651379940156638
2.0066463296890173 12.389813528711029 33.936994936727004 191.30832981898246 0.6827905489255455
2.0175076230854674 12.337592245183927 31.355609973176552 201.6957437924737 0.7013356354649771
2.0273561433871827 12.283243883649694 29.01755742498635 212.76224651137824 0.7208368656310303
2.0361776129645914 12.226810228094772 26.89367509692475 224.56259990550777 0.7413623784382705
2.0439347624016193 12.168251971271427 24.964375452688117 237.1585092290664 0.7629912904413745
2.050607811331887 12.107584437356113 23.208325276538858 250.61614706067456 0.7858041687987669
2.0561885454349347 12.044852446570959 21.612072569676528 265.00892262989777 0.8098904451211903
2.060656223146445 11.980065982341547 20.159530353725323 280.41863270920624 0.835350296098971
2.0639828657827755 11.91321738677161 18.837532744487497 296.9341944668215 0.8622883789959142
2.0661538728205673 11.844341624274694 17.633231505525693 314.6560400760731 0.8908257388589949
2.067163384231483 11.773487640802298 16.537452139572853 333.69378013424136 0.9210893535891853
