M[M_sun], R[km], Lambda[1], P_c[MeV/fm^3], rho_c[fm^-3]
0.24162668629717493 15.618656898711224 2160425.4255784233 3.5677272577965504 0.1711233750220791
0.2536450149849949 15.277235617675654 1723329.7442951782 3.7848401189559473 0.17388842873718766
0.26604180639083624 14.981222715001229 1382945.242418395 4.011444608820595 0.17666718225429645
0.278818115134978 14.72348566538922 1116445.9552750727 4.247796182112085 0.17945830253917466
0.29197404510666564 14.498368183813954 905828.5604279834 4.49452029321761 0.18226836074326577
0.3055107352971165 14.301158449395203 738586.230995153 4.751773409172851 0.1850930800034433
0.3194283916392159 14.128072483565816 605040.1887684566 5.02023645523876 0.18793904916271947
0.33372865725306805 13.975882401226157 497641.9142366073 5.300135316997255 0.1908029269665625
0.34841096518070763 13.841943378059641 410954.7624124902 5.592196572737954 0.193690968651924
0.3634743295100864 13.72391671731241 340624.75826111675 5.896590098077506 0.19659828504419938
0.37893051925492355 13.619917980132943 283265.1927009174 6.214178951401962 0.19953253519218903
0.3947644675775975 13.528357211809926 233253.13350798035 6.545218098952561 0.2024898536648215
0.41099092233827494 13.447789289255228 197834.2414871728 6.890414905678869 0.20547403530502426
0.4275995656641588 13.37700388099874 166051.4693124189 7.2504724019803275 0.20848811476103707
0.44459713533049483 13.31486766845355 139777.00659237165 7.625646165828297 0.21152758398163207
0.4619792502070536 13.260502102521269 117948.1143082378 8.016892052998221 0.21459871018541285
0.47974697911977626 13.213114033533834 99784.68853702158 8.424912134250132 0.2177030908772746
0.49790641757982 13.171935860153392 84623.6309917986 8.85014280921498 0.2208381286755448
0.5164469446097321 13.136357405296359 71924.03131500584 9.293466393492478 0.22400735790234225
0.5353682437828017 13.105796595352682 61258.845140176454 9.75576379013747 0.22721363774653444
0.5546769444278642 13.079765554295097 52291.14368114657 10.23784343855051 0.23045830121079908
0.5743617542255626 13.057804008621831 44717.635863656375 10.740174166336477 0.2337380145109539
0.5944215537800495 13.039490238823365 38318.47276074086 11.26400979460034 0.2370590778120847
0.6148604466654252 13.024476739008257 32892.77030679796 11.810283417645852 0.2404230445658971
0.6356670240637021 13.012436074537439 28284.248237571373 12.379974408669721 0.24383154838316476
0.6568396590995474 13.003004746995174 24362.94550720028 12.973762898387209 0.24728243822640322
0.6783734371677652 12.99596661718763 21020.848073807534 13.592993662836689 0.2507806991319631
0.7002643423676107 12.99104519834183 18166.771824186544 14.238856359806968 0.2543288721478378
0.7225009084737618 12.98800775902806 15723.790308063575 14.912541157375502 0.2579289428125553
0.745092388322445 12.986646849214157 13629.236076510671 15.61506493973768 0.26158067739593716
0.7680159888406974 12.986759063781676 11832.511862437303 16.347719865613737 0.2652862282726658
0.7912633874867454 12.98814532310295 10217.999970519704 17.112110263924034 0.26905016206351196
0.8148394324979609 12.990679372099464 8953.122458206992 17.909691812778146 0.27287491259261787
0.8387248927919919 12.994145577418358 7804.853393009323 18.741810425043578 0.27676138456594224
0.8629092494528924 12.998414575273666 6811.576118561819 19.609849987984468 0.2807104086028743
0.8873923820681056 13.003372212969548 5953.093192358397 20.515878353762265 0.28472817599681993
0.9121500885658402 13.008864850879615 5209.20021609772 21.461690483872584 0.28881770175181365
0.9371729602411564 13.014763595149248 4563.4853979775635 22.448745682556886 0.2929787049544596
0.9624606571338313 13.020973699501935 4002.9597950659922 23.47911997415373 0.2972153878569985
0.9879825930174178 13.027349845680325 3515.017469431844 24.555212642223132 0.30153365610059085
1.0137276701661626 13.033814387738564 3090.5353795619 25.678936387022542 0.30593491796439914
1.0396952941606015 13.040262686147113 2720.288898210377 26.85231301646005 0.3104208781517647
1.0658482931974491 13.046598956866882 2397.1592436869596 28.07841177920285 0.31500005707563933
1.0921828660903246 13.052727911034133 2114.7494934058927 29.359251853662624 0.31967265006422185
1.1186836680712182 13.058555301915934 1867.575852184396 30.697662440146512 0.3244438413944453
1.1453171037637933 13.064021829266872 1651.3417091960127 32.09696933204241 0.32932118491497947
1.1720825846580218 13.069019589041643 1461.365444688265 33.559193113131215 0.3343028912776044
1.1989413702896399 13.073476714167814 1294.8338767374114 35.088840231231785 0.3394022805128045
1.2258896765156904 13.077344594608638 1148.4930706479543 36.687888543945824 0.34461583300596166
1.2528867098148264 13.08051038041708 1019.6704210102378 38.36143579767318 0.3499582643301001
1.27993202595445 13.08294011765409 906.2720057012738 40.11177334368067 0.355426442636757
1.3069848816117027 13.084548589135558 806.3887185229279 41.94427792406007 0.36103437119902715
1.3340169842653455 13.085236853705904 718.175725722949 43.862534024568305 0.3667845408365069
1.36102681435414 13.085029864987918 640.307426400048 45.8711325438575 0.3726841566782727
1.3879588510482488 13.083767413728387 571.5200214235467 47.9754583374038 0.3787434552045434
1.414812153645414 13.08145739047465 510.59686984630594 50.180328346782076 0.384968386509251
1.4415430267021805 13.078014811656553 456.65519731129535 52.4908526604027 0.3913653444059989
1.4681378055882572 13.073414540771205 408.80282386143375 54.91350590230631 0.3979463142271141
1.4945494609561387 13.067539099305469 366.33912917172125 57.45448126688826 0.4047203625747408
1.520762148388007 13.060387091489659 328.68345203967704 60.120410355507744 0.41169726659661465
1.5467458789299773 13.051892923008499 295.1346337349756 62.918402645440494 0.4188875724982347
1.572463233173338 13.0420050751765 265.3263133087082 65.85608873820105 0.42630265883333196
1.5978770189345093 13.030665048979897 238.78030873332145 68.94166777097819 0.4339548051319388
1.6229751494035631 13.017843193778512 215.12350611002495 72.18395942262808 0.44185726649384804
1.6477278941668527 13.003492676228133 193.9822505363882 75.59246099977247 0.45002435485115894
1.6720758606033836 12.987551621608253 175.1474309317727 79.1770176542921 0.4584698887340433
1.6960128939843244 12.969989883004043 158.27296734066067 82.94802171418736 0.46720796651326435
1.7194916933122102 12.950771444901306 143.19874050452887 86.91812360095716 0.4762597476997852
1.742474126104851 12.929819805491707 129.71306621480872 91.09880571228275 0.4856391759808541
1.7649557874589132 12.907160672868967 117.60683612848344 95.50436979159858 0.4953689972417872
1.7868819364463577 12.88272002535256 106.76198678324248 100.14828443499067 0.5054659256295946
1.8082185008302547 12.856447020703547 97.0328456450976 105.0471891255993 0.5159560871737997
1.828931701542977 12.828312292558614 88.28532827717001 110.21763661305621 0.5268620360898633
1.8490047595566974 12.798320624893469 80.41969649853543 115.67739927397399 0.538207635995128
1.8683783342026872 12.766371068745674 73.34679889444281 121.4464494184836 0.5500213129915629
1.8870529262907179 12.732541680523013 66.96836778325947 127.54622843971295 0.5623329167706538
1.9049748629374554 12.696711748807184 61.22220336749189 133.99941181919147 0.5751725528509118
1.922113566767512 12.658880088127049 56.04311033829816 140.83161474773038 0.5885762280875533
1.938423940026488 12.618978442430247 51.36259142329638 148.07052776887033 0.6025822088906289
1.9539168390118775 12.577119167861529 47.138716890786135 155.744531535038 0.6172258090154177
1.968530392487031 12.533178317296358 43.317991348377234 163.88742983831705 0.6325551211103869
1.9822404559740072 12.487163272403349 39.85776577936579 172.5331819363376 0.6486122739552324
1.9950236826104215 12.439069531250626 36.72534110778529 181.7207999602596 0.6654494357959005
2.006858082365669 12.388893174475593 33.88522661431741 191.49247454881427 0.683121588114848
2.0176999809327163 12.336604617215595 31.311664425991705 201.89427833655887 0.7016880146969104
2.0275313759267224 12.282208876334877 28.976171351363575 212.9760227372185 0.7212108543483126
2.0363341736475533 12.22572258502336 26.855750055564535 224.79359634773672 0.7417616612879087
2.044073156076738 12.167113066164312 24.92940882308166 237.40785117479768 0.7634164413637876
2.0507268187349603 12.106387666772829 23.175819677868745 250.8858927591326 0.7862584525512388
2.056293768436081 12.043624401714998 21.583234139115707 265.30105469729364 0.8103764796710506
2.060734658400383 11.978757371175867 20.13273435388677 280.7346704309182 0.8358687342941715
2.0640325460623585 11.911845535177248 18.812384740568568 297.277029062791 0.8628438324708698
2.0661869369678296 11.842927155936627 17.610515409375424 315.0284629300413 0.8914219145982601
2.067172040862505 11.772020697106521 16.515478329209557 334.0982473838094 0.9217281773012621
