M[M_sun], R[km], Lambda[1], P_c[MeV/fm^3], rho_c[fm^-3]
0.24162668629717493 15.618656898711224 2160425.4255784233 3.5677272577965504 0.1711233750220791
0.2536447244998136 15.27724403485229 1723149.9447247295 3.7848331417050156 0.1738883417691207
0.26604040342411606 14.9812689507975 1382984.3394443167 4.011429941136741 0.17666700500399335
0.2788168431250471 14.7234978926789 1116430.3780880985 4.2477733276516725 0.1794580374618748
0.29197225581184816 14.498375157399064 905844.923935987 4.494488652145287 0.18226800841258195
0.3055087085594781 14.301172826805491 738618.9387216389 4.751731906992728 0.18509263170068987
0.31942589843312014 14.128096852911815 605053.4386258115 5.020184786113218 0.1879385130755995
0.3337260068955234 13.975865214370003 497664.6412328212 5.300072120462663 0.19080229068232119
0.348407193017525 13.841975398646662 410974.39644075884 5.592121690882955 0.1936902441493776
0.3634704205627651 13.723946655082225 340635.3698777249 5.896501848392261 0.19659745618447994
0.37892550142708076 13.61995108701235 283272.46524364804 6.214076265762393 0.19953159882279772
0.3947581727670068 13.528424537213011 236383.9335678516 6.545101083848003 0.20248882760043418
0.41098475004616153 13.447821398795265 197839.09765951388 6.890281301899701 0.20547289747917621
0.42759318998507456 13.377021618368778 166060.59216903572 7.250320955593984 0.20848686188389523
0.44458967537012767 13.314909584724411 139786.05562387643 7.625477295301989 0.21152623966365927
0.4619728497922443 13.260527085439882 117964.80184455191 8.016702812512342 0.2145972462572602
0.4797383644693215 13.213133071996973 99805.84879257133 8.424701047884225 0.21770150380289632
0.4978967375282753 13.171965615904668 84630.82131252823 8.849910655182692 0.22083644778115924
0.5164371472807318 13.136372516755515 71929.27925816133 9.293209414405995 0.22400554875355264
0.5353568562139536 13.105813680048268 60677.10730144092 9.755480243310549 0.22721169643486724
0.5546646610552262 13.079798433411467 52297.36480468548 10.23753290519277 0.2304562420423557
0.5743488570906014 13.057815581484883 44320.66843012002 10.739835142275268 0.23373583787146446
0.5944077284060796 13.039496576017214 38321.85735258268 11.26363861061621 0.23705675864783482
0.6148451486386789 13.024487271643045 32896.59283672324 11.80987788057449 0.24042057822387958
0.6356512943123915 13.012423482927671 28054.807726500083 12.379532188504418 0.24382892996475194
0.6568230967194582 13.00300384830734 24365.670594686413 12.973286025898416 0.24727971261880805
0.678356277815595 12.99597421214419 21024.011932501384 13.592475365492403 0.25077781339121025
0.700245642072706 12.991060190180773 18168.494486885666 14.238293858080626 0.2543258205485195
0.7224819790483833 12.988005891403326 15725.750675937104 14.911931493129824 0.2579257192878737
0.7450710067005019 12.986639216588086 13631.150233010141 15.614410913915085 0.26157733444976455
0.767992478429687 12.9867632174254 11833.594396761044 16.34701262017157 0.2652827028315199
0.7912398451938633 12.98814059235033 10286.661273435562 17.111346248689426 0.2690464469161433
0.8148148662098073 12.990666352335204 8954.313085201782 17.90886724217895 0.27287100006408427
0.8387001554943225 12.994137459645179 7805.952950893982 18.740928956627677 0.2767573346746552
0.8628821052965253 12.998414704938408 6812.556012991901 19.608900158912654 0.2807061473188549
0.8873652559083004 13.003358280419832 5953.844439255872 20.514855591670152 0.2847236940947505
0.9121234452418356 13.008855199108005 5210.035355289899 21.46058990325489 0.2888129893843225
0.9371430573333803 13.014747004534096 4564.11965320626 22.44757186843724 0.29297382959887497
0.9624291102352046 13.020956646954989 4003.6129895445633 23.477858193802287 0.29721026339207984
0.9879507581650027 13.027350041456105 3515.6661777986465 24.553856955419278 0.3015282706004939
1.0136944770031617 13.033804224938164 3091.2600209214656 25.677492041985293 0.3059293439587352
1.039660229151508 13.040263427169192 2720.6798703202967 26.850762353021505 0.31041502002452115
1.0658135876938841 13.046584898391858 2397.5555837176325 28.076747537351597 0.3149939003213637
1.0921470318537334 13.052712838785427 2115.1190086912306 29.3574799324471 0.3196662722358111
1.1186465469283113 13.058548126071567 1867.9315379586408 30.695761681175803 0.32443713634401006
1.1452778845878882 13.064004515637668 1651.6009757872787 32.09494593976521 0.32931423273841115
1.1720433907947945 13.069013691926077 1461.6378982375475 33.5570233494197 0.3342955789501846
1.1989020140129687 13.073474154206048 1295.0638566481641 35.08651385324859 0.3393945878114966
1.225848156261162 13.07733936158904 1148.7402108669548 36.685412303571134 0.34460784503782665
1.2528456114791253 13.080500045675029 1019.8630275772414 38.35879964396901 0.3499499633348046
1.2798889999181806 13.082944311602963 906.4186040611398 40.10894730866023 0.35541769982852106
1.3069344298044658 13.084524685628104 806.5513935030058 41.941268768493806 0.36102527406586526
1.3339724978829932 13.085241296144426 718.3701308336418 43.859308004649044 0.36677495143693223
1.360981075759783 13.085033125373634 640.428537007694 45.86769642021438 0.3726741648974806
1.3879144084124666 13.083768380911193 571.6341898069065 47.97179743067834 0.3787330350822363
1.4147644032958255 13.081462895330915 510.66560383451355 50.17640250624343 0.3849573858714252
1.4414957788997398 13.078023047872723 456.7426295495448 52.486668119249366 0.39135385522380395
1.468091262068341 13.073420224368185 408.881978805217 54.90904412834415 0.3979343039340405
1.494501037353815 13.067551095911673 366.4165735824996 57.4497222266183 0.4047077960864275
1.5207135269951526 13.060400604633069 328.73488878876867 60.115332379693335 0.41168410610404876
1.546697595007161 13.051910543738757 295.1909569088686 62.91298228125749 0.41887377724045094
1.5724137793053479 13.042025712995851 265.3787404818068 65.85030058647985 0.4262881848474189
1.5978274623065827 13.03068865584902 238.83116451503108 68.93548430685829 0.4339396049778865
1.622925152952487 13.017866888908847 215.16085361661936 72.17735079774602 0.441841288951492
1.6476782646079349 13.003524617779602 194.033923571495 75.58539482386605 0.450007544586134
1.672026209894078 12.987587168316896 175.1721880311946 79.16949565958484 0.45845234000644847
1.6959634087160491 12.970028249059295 158.31214163061654 82.9399704959607 0.46718946483722845
1.719443791552961 12.950812548616215 143.23184549915703 86.90950170468442 0.4762402233467811
1.7424201279260794 12.929836314049542 129.74636104812214 91.08960954950105 0.48561871790365063
1.7649076188943194 12.907212024413196 117.63882539267549 95.49451075225105 0.4953473643080422
1.7868343411323024 12.88277327904514 106.78934167263026 100.13775393390831 0.5054432012651117
1.808171518137116 12.856508832729677 97.05354571392908 105.0359325453023 0.5159321838019443
1.828880183099237 12.828367079283813 88.29961756577018 110.20559437842402 0.5268368589805752
1.8489588129865533 12.798393205317659 80.43380546104808 115.6644571353499 0.5381809020027193
1.8683336614795318 12.766448429813202 73.36100822438237 121.43258382462771 0.5499930877236455
1.8870118722166798 12.732622444333233 66.98529146209931 127.5314142554131 0.5623032673536722
1.9049331668899039 12.696798839207064 61.23557819145191 133.98351304715086 0.5751411637383788
1.9220723133123658 12.658975278866118 56.053755498555226 140.81453813856064 0.5885429563589843
1.9383846931304713 12.61908020846068 51.3740828241978 148.05217103515622 0.6025468988000253
1.9538792968366063 12.577228594766119 47.14602941499545 155.72484281005273 0.6171884969107014
1.9684940314385357 12.533290177205568 43.32716337410317 163.8662897813768 0.6325156313083363
1.9822067117803106 12.487282090249227 39.86675269942228 172.51039584831804 0.6485702019350835
1.994992642577106 12.439195245956924 36.73280379769451 181.69628522285637 0.6654047818618044
2.0068270824344028 12.389029384778135 33.89228733267993 191.46607192728348 0.6830741238054703
2.0176713378556776 12.336746444775422 31.317789005016717 201.86581217390162 0.7016374900661492
2.027504944848294 12.282355758589388 28.98240683130053 212.94537085919205 0.7211572307215489
2.0363115893158374 12.225877550475587 26.860192179716396 224.76047496540565 0.7417044101900411
2.044053114961801 12.167276338277821 24.933986636917375 237.3720988925224 0.7633554804382476
2.0507099498428083 12.106559303412958 23.179705446144972 250.84725120804893 0.7861934335389643
2.0562799049218285 12.043802794759149 21.587051601557253 265.2592142273001 0.810306944880903
2.0607224831506827 11.978945758875676 20.13572664581862 280.689358621385 0.8357944123803058
2.064024818392236 11.912042061298298 18.816227827911163 297.2278685494984 0.8627641836307003
2.066181054491502 11.843131331964182 17.613329507174925 314.9750588396788 0.891336425153366
2.067170369660276 11.77222897289065 16.518207507374317 334.04024739674725 0.9216365709547037
