M[M_sun], R[km], Lambda[1], P_c[MeV/fm^3], rho_c[fm^-3]
0.24162668629717493 15.618656898711224 2160425.4255784233 3.5677272577965504 0.1711233750220791
0.25364523749539664 15.277250925501344 1723115.4994742936 3.784849473807098 0.17388854534089432
0.2660428131951834 14.981219479262561 1382925.4716167627 4.011464274792246 0.17666741990595777
0.2788197366975187 14.723436675048463 1116345.7949150405 4.247826824748249 0.1794586579475767
0.2919762834135031 14.498303989281467 905774.5560259977 4.494562716825265 0.18226883313998302
0.3055134693123755 14.301118219806431 738538.2185352611 4.751829054485179 0.1850936810790171
0.3194324239705824 14.12801343585647 605008.6876492369 5.020305732384275 0.1879397679398427
0.3337329796769704 13.975798863043842 497599.7847115076 5.300220050151734 0.19080378008883037
0.34841595814761117 13.841903646614462 410928.3623535574 5.592296973696333 0.19369194005881565
0.36348160267060553 13.723831750424162 340593.57069697784 5.896708422839133 0.19659939637540075
0.37893638864253704 13.619895833536765 283241.09064513445 6.214316632203445 0.1995337906753201
0.39477189302982824 13.528321874976493 236356.62474827477 6.545374993082092 0.20249122941438388
0.410999267705152 13.447775010673945 197814.8507417258 6.8905940424278995 0.20547556090875083
0.42760875271054977 13.376969129093286 166026.73690798032 7.2506754627509515 0.20848979463075243
0.44460756323510237 13.314827344874393 139760.48207861104 7.625872589599195 0.21152938646043842
0.4619895263986623 13.260475081972404 117939.32558853766 8.017145789744541 0.21460067304428299
0.4797599905915044 13.213067297180967 99778.3283913709 8.425195163056708 0.21770521885823305
0.4979196018063375 13.171907048559401 84609.03756020412 8.85045408668965 0.22084038245746004
0.5164625591696734 13.136317800473503 71915.789872753 9.293810957868015 0.22400978365702712
0.5353832088626799 13.105780208346523 61253.55257464181 9.75614397822999 0.2272162407154611
0.5546937150838164 13.079760964813275 52282.908222778555 10.238257661124676 0.23046103455644623
0.5743792898318267 13.057806495995223 44711.847754663795 10.740628742154097 0.233740933028513
0.5944400642426062 13.039485199803776 38312.377316024 11.264507492890354 0.2370621874400072
0.6148805337259403 13.024464518012456 32888.191438853086 11.81082717931728 0.24042635154410572
0.6356882487816391 13.012417493699473 28279.474035272855 12.380567358139288 0.24383505928097268
0.6568621228028781 13.002999891237057 24359.76953953558 12.974402312688055 0.24728609285634268
0.6783970422360105 12.995967564770858 21017.351601413626 13.593688623409449 0.25078456848624114
0.7002901876127521 12.991051609415457 18163.416105592758 14.239610593882363 0.2543329639045072
0.7225280674764661 12.98799913804778 15721.122779621966 14.91335863170617 0.2579332651074908
0.7451197948608954 12.986644179246033 13627.058371520232 15.615941898579216 0.2615851598278253
0.7680441691256881 12.98676095480074 11829.958797020627 16.348668187079788 0.26529095541732683
0.7912932467737835 12.9881405212535 10284.39299954745 17.113134708705584 0.2690551435915785
0.8148707286077915 12.990686040687727 8951.416737101183 17.91079745724677 0.2728801587965641
0.8387579015331605 12.994146830803649 7803.185613792215 18.742992364741667 0.27676681496730293
0.862943380891988 12.998424684521396 6810.376607161559 19.611123594123747 0.28071612247039984
0.8874283609158795 13.003375926789895 5951.84811691403 20.5172497578397 0.28473418570212683
0.9121880831092023 13.00887932706199 5208.174690724384 21.46316623732554 0.2888240205007402
0.9372122537412615 13.01477222508815 4562.905230792371 22.45031963714265 0.29298524226573497
0.9624993934505679 13.020976660398174 4002.0129783776874 23.48081188616752 0.2972222592144026
0.9880247140790579 13.02735806730356 3514.3362168473823 24.557030477543655 0.30154087749735237
1.01377164043312 13.033820902957643 3090.1965981268836 25.68087310800282 0.30594239214365343
1.0397401027188773 13.040282707847517 2719.7474477164487 26.854392305298358 0.31042873333057924
1.0658950373498948 13.046606150584699 2396.8154290711705 28.080643371720154 0.31500831270673163
1.0922308329077606 13.0527340847553 2114.386928156534 29.36162783936728 0.31968120215389595
1.118732953343716 13.058567507059424 1867.1341222524984 30.70021119266521 0.3244528322841101
1.1453680028446014 13.064022948270518 1650.803784909015 32.09968253127263 0.3293305072002951
1.1721347558395006 13.069030796325672 1461.142158554047 33.56210259240311 0.33431269652273055
1.198994872433608 13.07348932887198 1294.520193563265 35.091959726628694 0.339412595838385
1.2259412203462443 13.077361181569996 1148.1901110257418 36.69120900114112 0.34462654428687794
1.2529441517787894 13.080510256776023 1019.4059386247453 38.36497069533049 0.3499693953839445
1.2799898160834358 13.082949009493996 906.0680432611199 40.11556287015286 0.355438166165663
1.3070430495824694 13.084552611881358 806.1630180811671 41.94831301297288 0.36104656988412387
1.3340776049735812 13.085236719483213 718.0409793702499 43.86685992819102 0.3667973996592662
1.3610874245089546 13.085029108717373 640.1503398691374 45.875740195921125 0.37269755510457153
1.3880286197328267 13.083777855276692 571.3527989817931 47.98036742382312 0.37875742804918033
1.414873331821893 13.08145033958737 510.4399021142446 50.18559271254921 0.38498313784227567
1.4416066258640416 13.07800548906641 456.5331715384309 52.49646394643499 0.3913807508950764
1.468202437362866 13.073397715170415 408.6965171762992 54.91948896171398 0.3979624195470098
1.494613811331372 13.067522672527529 366.2440091418483 57.46086296625868 0.40473721377708594
1.5208269281658908 13.060366998549684 328.5907616373505 60.12721975521157 0.4117149143872808
1.5468118918109 13.051869444122783 295.05858193178716 62.925671197933134 0.41890607154220405
1.5725288074898063 13.041980607794084 265.25082953937994 65.86385050632262 0.42632206809001066
1.597943431765696 13.030632722266537 238.71644502345 68.94995966850038 0.4339751882242119
1.6230521532894806 13.017815786678609 215.05271195602606 72.19282147957372 0.44187869211456915
1.6477939884994883 13.003451344517321 193.92873844299513 75.60193665534378 0.450046897211206
1.6721424396652307 12.987503723318447 175.09416424013992 79.18710458478908 0.4584934214274908
1.6960791508185205 12.969942104687746 158.23026657593263 82.95881836508444 0.4672327771855809
1.7195582291312792 12.950714092588763 143.16128335702382 86.92968556851132 0.4762859298676991
1.742539941992173 12.929762974632183 129.66934417200883 91.111137808404 0.48566661035544245
1.7650204622223316 12.907092642946496 117.575987354643 95.51759085598016 0.4953980072091606
1.7869316661129688 12.882611680035536 106.73554267907764 100.16240598083418 0.5054963993128789
1.8082813689848347 12.856366299427222 97.00488079618539 105.06228440325793 0.5159881420275487
1.8289854316046004 12.828207166954375 88.26355843621843 110.23378552227335 0.5268957991633011
1.849065284975321 12.798227070715946 80.39771191292829 115.6947550443993 0.5382434870278108
1.8684370947933542 12.76626951244618 73.32258764916577 121.4650436355353 0.5500591640034598
1.8871130639687166 12.732427067920343 66.95201394252233 127.56609481236718 0.562372677742626
1.9050297202928044 12.69659725045291 61.20328111538251 134.02073274682013 0.5752146469821401
1.9221691068031626 12.658753412712716 56.02853272802173 140.85451529631686 0.5886208470648382
1.938476448728887 12.61885609735198 51.35257890306298 148.0951451270508 0.6026295616038789
1.9539672203651988 12.576977141623264 47.12379451777847 155.77093526483822 0.6172758467264396
1.9685754235655082 12.533022206543091 43.302944089232795 163.91578000108316 0.6326080794500403
1.9822863317909862 12.487001430209187 39.84625810600775 172.56373967037368 0.6486686954700164
1.9950671123984525 12.438897008287372 36.715803534757356 181.7536760737511 0.6655093200924784
2.0068967421065897 12.38871348188971 33.87547586710415 191.52788261400454 0.6831852416182964
2.0177358605492155 12.336414975574458 31.302971118432694 201.93245395358602 0.7017557726514195
2.0275645069097927 12.282008812856168 28.968103214631032 213.01712976940402 0.7212827686417655
2.036364801243948 12.225513358318109 26.84813414115831 224.83801543545596 0.7418384407384998
2.0440991645374567 12.16689431814809 24.92210469061241 237.4557987902142 0.7634981964526157
2.0507497828872197 12.106159016429125 23.16946852469232 250.9377154480357 0.7863456503978936
2.056311771384365 12.043384442890627 21.576105211333907 265.3571369169578 0.8104696335800726
2.0607476454830405 11.97850711962568 20.1262227247409 280.7954393300162 0.8359684094325297
2.064042803822495 11.911582717030758 18.807433602789565 297.3429599310513 0.8629506522910181
2.066189195332779 11.84265083341211 17.60658662383016 315.10008542200836 0.8915365681208395
2.067173058003771 11.771737834750558 16.5117167469818 334.17603407250175 0.9218510351624948
