M[M_sun], R[km], Lambda[1], P_c[MeV/fm^3], rho_c[fm^-3]
0.24162668629717493 15.618656898711224 2160425.4255784233 3.5677272577965504 0.1711233750220791
0.25364502639833464 15.27727226295381 1723216.080373772 3.7848397907316946 0.1738884246460307
0.266041814585342 14.981256723187132 1383081.954037154 4.011443918821669 0.17666717391606662
0.2788180727504321 14.723461806635092 1116382.8095575543 4.2477951069885425 0.17945829006936173
0.29197394573354146 14.498353832015287 905828.2266094858 4.494518804750997 0.18226834416884458
0.30551107632003804 14.301149892043798 738628.6769915964 4.751771456815407 0.18509305891425676
0.31942820267013683 14.12805548923672 605026.9422712146 5.0202340246022095 0.1879390239439271
0.3337264695644011 13.975899353178372 497632.034670114 5.300132344080973 0.1908028970342285
0.3484107884275181 13.84194487363111 410955.7108562811 5.592193050112409 0.1936909345695528
0.363475341780647 13.723896521575965 340615.6540946516 5.896585946591849 0.19659824605256754
0.3789302576220476 13.619916075966692 283264.6358534674 6.2141741208075185 0.19953249114298413
0.3947639427427901 13.528371855151264 236376.00464862972 6.545212594257866 0.2024898053960855
0.4109906925061319 13.447789379678623 197836.19587529998 6.890408620602863 0.20547398177867957
0.42759982237336025 13.376995277691162 166046.69098651528 7.250465277532971 0.20848805582230995
0.4445969342054715 13.314885471557217 139776.3395177771 7.625638221694509 0.21152752074121906
0.46197889320937296 13.260502738196262 117948.43931618957 8.016883150595937 0.2145986413181339
0.479747031537857 13.213123607863992 99791.54157416608 8.424902204145832 0.2177030162167723
0.49790547435725035 13.171939979033453 84621.57192717798 8.85013188801731 0.2208380496014074
0.5164467641405645 13.136361651596168 71923.9673219405 9.293454304439594 0.2240072727946563
0.535367293429779 13.10580585738902 61258.34516616762 9.755750451245762 0.2272135464214211
0.5546766193242495 13.079763662723296 52293.215808023786 10.237828905579013 0.23045820531154862
0.5743612517928085 13.057803934736558 44718.51683115924 10.740158217598355 0.23373791211511488
0.5944198104851058 13.039516478070773 38318.14006225126 11.263992332942 0.2370589687113274
0.6148595402379061 13.024481813397488 32892.475669484236 11.810264339890681 0.24042292854131514
0.6356662105787678 13.01241309239345 28283.44057917063 12.379953605203344 0.24383142520429665
0.6568389809447331 13.002998164382609 24363.30684240333 12.97374046474385 0.24728231000489714
0.6783722614044798 12.995988069214047 21020.73175800644 13.59296928040717 0.25078056337712795
0.7002642785605414 12.991059815487585 18166.29617682037 14.238829897828975 0.2543287285903157
0.7225002916121327 12.987995340091254 15723.916202145558 14.912512476683784 0.2579287911669269
0.7450905447672045 12.986640022953114 13629.601810510614 15.615034172099117 0.2615805201321778
0.7680139680939125 12.986760457111314 11832.28205036755 16.347686594305532 0.26528606242353914
0.7912623438616179 12.988145190390313 10217.97665936686 17.11207432192802 0.2690499872897563
0.814839008822389 12.990663707660827 8953.16927123372 17.909653022001724 0.2728747285331574
0.8387237777968867 12.994145915100766 7804.888687872099 18.741768957553038 0.27676119404427907
0.8629067989823752 12.998410297566886 6811.4896999681605 19.609805304512268 0.2807102081363149
0.8873917426857993 13.003378785683532 5953.276808519205 20.515830239200213 0.28472796515134874
0.9121501863159317 13.00886709448697 5209.261690349279 21.461638708380374 0.28881748006414953
0.9371714656740625 13.014754919340653 4563.442761723384 22.448690461835003 0.2929784755990188
0.962459677251114 13.020957747524587 4003.0497469962606 23.47906061509883 0.2972151467822393
0.9879809829299515 13.02735889214537 3515.1633686806704 24.55514886537451 0.3015334027454476
1.0137253275138227 13.033811934090046 3090.63659287393 25.678868439281718 0.3059346557409813
1.0396924163356842 13.04027445640609 2720.32107347609 26.852240066998352 0.3104206025618344
1.0658460214372425 13.046594996370589 2397.1513172556643 28.07833348646775 0.3149997674367679
1.0921819379887583 13.052730452368419 2114.738206182182 29.35916849517552 0.31967235002485067
1.118681024691783 13.058557853084677 1867.568800032564 30.697573020498712 0.32444352596084347
1.1453144650874831 13.064022021343701 1651.1756066704345 32.09687414312395 0.32932085785523135
1.1720810098274763 13.069019746722434 1461.4042059940236 33.55909103816468 0.3343025472744428
1.1989386775494337 13.073482399738307 1294.8235245893836 35.08873078833236 0.3394019186148062
1.2258877680545819 13.077348644565795 1148.5230812252146 36.687772050759364 0.3446154572169749
1.2528864037240255 13.08050666111584 1019.6854702766605 38.36131178134394 0.34995787381456833
1.2799302217291175 13.082946405050611 906.2624664938509 40.111640394333705 0.355426031335893
1.3069824276671391 13.084549368046757 806.4153549022199 41.944136359761366 0.3610339432287053
1.3340150058820608 13.085239672698863 718.2426796676821 43.86238225780005 0.3667840897071837
1.361024185753625 13.085030804207145 640.3135385046351 45.87097089268019 0.37268368661860773
1.3879575793430645 13.08376707748797 571.5227944021042 47.97528611120809 0.37874296499319454
1.414808473303941 13.081459926124001 510.56639933250744 50.180143656618924 0.38496786898706065
1.4415406537998825 13.078013964785642 456.6578289053002 52.49065579952088 0.39136480389977485
1.4681353458070023 13.073413215618436 408.7920487595674 54.913295998830314 0.39794574920470704
1.494547372155472 13.067539198377187 366.34415065678866 57.45425737830971 0.40471977138554166
1.520760144756955 13.060388612862898 328.6909644199558 60.12017146236111 0.41169664746182644
1.5467435385152708 13.051894444657288 295.1359358585199 62.91814764434587 0.4188869235001754
1.572461092426904 13.042005899245542 265.32525465767475 65.8558164342074 0.42630197790367463
1.5978748094445623 13.030665084105332 238.79240746438802 68.94137686912487 0.4339540900387647
1.622973602452654 13.01784326095471 215.1280394212695 72.18364851863807 0.4418565148273883
1.6477255425538835 13.003494488042385 193.98293406510578 75.59212856977736 0.4500235640080786
1.6720733044756082 12.987553589221974 175.1492428963516 79.17666377979599 0.45846906314889246
1.6960110318527286 12.969991593288425 158.2860580452015 82.94764294169535 0.4672070960951809
1.7194894136411405 12.950774247039408 143.20175386275076 86.91771798014135 0.4762588291682066
1.7424723941653837 12.929820092001703 129.71601077384562 91.09837307432561 0.48563821352064773
1.7649536139811404 12.907162842096234 117.60732562055657 95.50390596760857 0.4953679795083863
1.7868795774340747 12.882722372276419 106.7624428273696 100.14778902106755 0.5054648565478413
1.8082160179171407 12.85644991757403 97.0337232246474 105.04665955212207 0.5159549626234108
1.8289292973984959 12.828315300584352 88.28709172438242 110.21707007715246 0.5268608516139914
1.8490027024608713 12.798323165461026 80.4213082510341 115.6767904004221 0.5382063782724759
1.8683756116213077 12.766375818930921 73.34676559246215 121.44579709926028 0.5500199851086726
1.887050870230005 12.732545157082509 66.97033657555347 127.54553149228357 0.5623315218855539
1.904971811776925 12.696716267068583 61.222403037560426 133.99866384511998 0.5751710761178509
1.9221131426244247 12.658883659545678 56.04377551367035 140.8308113597953 0.5885746627823427
1.9384218964384576 12.618982974606451 51.36239917491265 148.06966415461366 0.6025805476856386
1.9539151458481427 12.577124677528579 47.13894938150844 155.74360525424305 0.6172240536205892
1.968527408861372 12.533184152879393 43.317838084098106 163.88643527618697 0.6325532632600626
1.9822386439203488 12.487168725380174 39.85764467587366 172.53210993250178 0.64861029461736
1.9950225708607103 12.439075693265416 36.725535720764626 181.7196466276619 0.665447334984582
2.00685557070893 12.388900928773843 33.885992051508715 191.49123239563974 0.6831193550811888
2.0176975544080684 12.336611115640268 31.311172143052527 201.89293909832 0.7016856376811413
2.0275298107792725 12.282216530776436 28.976345564687936 212.9745806657817 0.7212083315306103
2.0363329527359464 12.225729638724685 26.855367383640015 224.7920380909976 0.7417589678040382
2.0440719240061624 12.167120956518621 24.929466104919022 237.40616913924998 0.7634135733386643
2.0507263908149556 12.106396273626633 23.17550126121951 250.8840747886595 0.7862553935993802
2.0562927394118327 12.043632427140052 21.58331214660381 265.2990873059856 0.8103732117870044
2.0607331558411763 11.978766727312097 20.13197520435943 280.73253863541885 0.8358652376533815
2.064031678811308 11.911854817212285 18.812099634588822 297.2747161911549 0.8628400852043965
2.0661865113810443 11.842936707845519 17.61077034795642 315.0259504034374 0.8914178925373433
2.0671715981316474 11.772030856574192 16.515360483674897 334.09551862560727 0.9217238674456535
