M[M_sun], R[km], Lambda[1], P_c[MeV/fm^3], rho_c[fm^-3]
0.24162668629717493 15.618656898711224 2160425.4255784233 3.5677272577965504 0.1711233750220791
0.2536442051655293 15.277255489842654 1723180.8682102817 3.784823394241803 0.1738882202716941
0.26604061312511473 14.981254406675639 1383074.1905169978 4.0114094499344235 0.17666675737990642
0.2788197324656409 14.723357481943415 1116392.6856163845 4.2477413993691275 0.1794576671419122
0.29197046427754303 14.498420342442413 905879.5233267838 4.494444448865155 0.18226751619879863
0.3055053439208577 14.30122582407856 738654.1639026909 4.751673927699673 0.1850920054136697
0.31942181366710043 14.1281342410534 605117.5821360557 5.020112603618566 0.18793776415435762
0.33372105851453054 13.975981677166523 497689.3942979197 5.299983834273073 0.1908014017868853
0.3484019524995081 13.842019618791236 411001.93443633197 5.592017080468684 0.1936892320148422
0.3634653148550146 13.72400280234919 340647.3131433171 5.896378563387923 0.1965962982656293
0.37891843140497367 13.620009703940896 283305.03305876313 6.213932814104021 0.1995302907164004
0.3947507981750022 13.528436451270476 236400.9115961563 6.544937614374649 0.2024873941939893
0.41097556268084134 13.44786425629834 197855.9255292225 6.89009465865463 0.20547130794697938
0.42758455162377157 13.377043639196607 166074.7618885898 7.250109386974904 0.20848511163092998
0.4445792209660398 13.31491956885118 139791.3214903772 7.625241385969889 0.21152436167368655
0.4619611674799965 13.260565303522036 117980.43107413095 8.016438447400594 0.21459520117939082
0.4797257172274649 13.213147854761397 99805.49214192752 8.424406165318295 0.2176992866982388
0.49788320915500034 13.171979449287297 84641.08707361933 8.849586342363867 0.22083409961778275
0.5164222308760253 13.136396209623772 71938.92632958235 9.292850422623344 0.22400302142902223
0.5353407065275531 13.105843642182796 61276.174850143274 9.7550841382735 0.227208984490113
0.5546471465658647 13.079823220109715 52297.94260978348 10.237097104682713 0.23045333978096505
0.5743294647660352 13.057840221755496 44728.41667132731 10.739361539806081 0.2337327971969086
0.5943874402713719 13.039521016762327 38327.494684567195 11.263120083437325 0.23705351888063772
0.6148237074736458 13.024504009086082 32900.8487249788 11.809311365176953 0.24041713286505248
0.635629224399624 13.012429782542387 28291.369820256936 12.378914430242087 0.2438252721722412
0.6567992805477747 13.003025942603424 24370.001702984886 12.972619861634689 0.2472759050970501
0.6783312439068316 12.995980963616276 21027.489073219047 13.591751334904513 0.2507737821828763
0.7002196656819072 12.991050713646912 18171.858512777282 14.237508078648847 0.25432155765675213
0.7224495611295241 12.988032277210001 15728.477641692583 14.911079832859146 0.2579212162389869
0.745041382573381 12.986643668711658 13633.617241823966 15.613497285457193 0.2615726645871215
0.7679621862160352 12.986754438914499 11836.05461752633 16.34602465019952 0.26527777804900066
0.7912064558153286 12.988148094733058 10288.679644344109 17.110278978282476 0.2690412571415624
0.8147829172507037 12.990666556261706 8955.913368942645 17.90771538362502 0.27286553457760776
0.8386648862056731 12.994135583652355 7807.179886563322 18.739697619065648 0.2767516773156688
0.862846008233921 12.998404573200755 6814.463561962762 19.607573330748135 0.28070019467766744
0.8873249419358846 13.0033612050694 5955.110773574915 20.513426886252102 0.28471743328608434
0.9120823028047407 13.008843516542806 5211.096899487839 21.459052496561732 0.28880640665407536
0.9371031365798889 13.014738948949386 4565.1171454913065 22.44593216504789 0.29296701920450113
0.9623866106376615 13.020951891519362 4004.3327890850483 23.476095614963263 0.29720310503570135
0.9879075550825168 13.027333614860806 3516.4281804566203 24.551963203972004 0.3015207476249999
1.013649051052211 13.033791756015884 3091.7493599866357 25.675474448786428 0.3059215576780143
1.0396136219546943 13.040246984446295 2721.2790374632964 26.84859625054116 0.31040683687939946
1.0657654412964248 13.046569434205164 2398.1596858993544 28.074422785079605 0.31498530005182984
1.0920968339145412 13.052704043916766 2115.702077281365 29.355004770219416 0.31965736317154886
1.1185952013901101 13.058539311060095 1868.5445915390198 30.693106555534133 0.3244277702162612
1.1452260891487487 13.063993579140442 1652.0547710767594 32.092119517050236 0.3293045214283539
1.1719899678379357 13.069004097691836 1461.9782135481203 33.55399247313307 0.33428536458460223
1.1988450900278063 13.073466688605441 1295.3867994455713 35.083264216828496 0.3393838421448338
1.225791918790606 13.077328767786309 1149.015134628184 36.6819533378751 0.3445966869499276
1.2527869293605876 13.080498851053493 1020.1315688449969 38.35511731038935 0.34993836801937483
1.2798299751601419 13.082936943892308 906.7013777882262 40.104999749766286 0.3554054874000974
1.3068742400286926 13.084519400809837 806.7054599845036 41.937065427426695 0.36101256672901605
1.33391088768493 13.085233209434838 718.5339937887295 43.85480175055071 0.366761556519289
1.3609185192113047 13.085036161294742 640.5965932070694 45.862896695939064 0.3726602079512813
1.3878496606757194 13.083772745811428 571.7824455353575 47.96668373329018 0.3787184798487322
1.4147067349139062 13.081486585412422 510.7932454694833 50.170918756904435 0.38494201980145565
1.4414298016953317 13.078030511975758 456.86453124807423 52.48082302400178 0.391337806782222
1.468024504733883 13.073431780865999 408.9999705633804 54.902811803253286 0.3979175276357551
1.4944335904637907 13.067567696740245 366.5117532697282 57.44307469099337 0.4046902429299076
1.5206458172948427 13.0604223991522 328.8277081063504 60.10823936834692 0.4116657232825258
1.5466292261054138 13.051935170882995 295.2788521946152 62.90541103803073 0.4188545078244983
1.5723469549073699 13.04205280846115 265.4545801374492 65.84221563694645 0.4262679674358356
1.5977695108452292 13.030727376726075 238.91154903512418 68.92684720786814 0.4339183733134554
1.622856342861663 13.017904594192103 215.22859311011374 72.16811986117997 0.44181897149777016
1.6476092312935682 13.00356684482915 194.09009141346306 75.57552481164647 0.4499840640609663
1.6719573300574455 12.987630937473549 175.2224573923805 79.15898899041254 0.4584278280674736
1.6958945772952387 12.970083199809812 158.355154559182 82.92872464970768 0.4671636219152922
1.7193747199019693 12.950872031057143 143.27107248412173 86.89745878445763 0.4762129520576969
1.7423567328984675 12.929929255198426 129.77103710929362 91.07676454276 0.4855901424917288
1.7648404458886988 12.907286028211933 117.67383772264576 95.48073990441353 0.4953171479930058
1.7867665962051604 12.882850316981193 106.81555769095927 100.12304525387131 0.5054114605717098
1.8081047523264278 12.856593968987871 97.08354209179912 105.02020975312013 0.5158987964197892
1.8288154834280181 12.82846021481779 88.32463666456349 110.18877427066953 0.5268016926095398
1.8488954927736054 12.79849457184835 80.46217505581137 115.6463801521988 0.5381435611934164
1.8682722349166263 12.766555306730485 73.38157752140127 121.41321707350698 0.5499536641154863
1.8869510715395805 12.732737626476554 67.00592376137857 127.5107168956012 0.5622618342161668
1.9048752779317366 12.696921793140133 61.25419301150645 133.96130661880812 0.5750973213537954
1.9220163311569576 12.6591056933698 56.07146725079419 140.79068667713895 0.5884964846418825
1.9383297617306292 12.61921937349167 51.389841002788984 148.02653168987132 0.6024975802437328
1.9538270135343627 12.577376422770465 47.16028834625198 155.69734314362464 0.6171363822900647
1.9684430498751202 12.533448359892018 43.337473133993626 163.83676312785104 0.6324604752741667
1.9821587990736715 12.48745032951392 39.87767743173587 172.47857030499387 0.6485114395490683
1.9949501984633289 12.439375220260969 36.744268524087396 181.66204540799077 0.6653424135642648
2.006784982918161 12.389216621408421 33.901545601260814 191.4291954653686 0.6830078305476193
2.0176333287211268 12.336944094855136 31.32711163437472 201.82605375711222 0.7015669227981924
2.0274701782527953 12.282559934059824 28.991131616807607 212.9025598660186 0.7210823354502923
2.0362804307841196 12.226096359387805 26.86782745053757 224.71421508873914 0.7416244488919316
2.0440261585700386 12.167503404842257 24.941762030759303 237.32216474085072 0.7632703381226181
2.050686180496862 12.106798565639762 23.186895548332433 250.79328197391484 0.7861026238742844
2.0562591847779585 12.044055221876038 21.592528419365276 265.20069850110673 0.8102095713128253
2.0607066498552804 11.979207197562097 20.141677899047263 280.6260739642987 0.8356906108133093
2.064013928954125 11.91231114651415 18.820919669225933 297.1592089995955 0.8626529428573628
2.0661742637137235 11.843414269802038 17.617933684896975 314.9004729823316 0.8912170278656623
2.0671681492780016 11.772525466561953 16.522821294919993 333.95924323743617 0.9215086313556384
