M[M_sun], R[km], Lambda[1], P_c[MeV/fm^3], rho_c[fm^-3]
0.24162668629717493 15.618656898711224 2160425.4255784233 3.5677272577965504 0.1711233750220791
0.2536373148366704 15.277469744435415 1723331.8027084565 3.7847104037688992 0.17388681189995778
0.26602661245590337 14.98158724053931 1383247.5843675835 4.011171925839877 0.17666388704140096
0.27879597011050206 14.723863793640042 1116822.3068866443 4.2473713104030955 0.17945337466761838
0.29194354817396145 14.498812462408937 906324.899824986 4.493932088328915 0.18226181094531493
0.305471632393825 14.301652857347754 739068.3475857126 4.75100190405669 0.1850847462757491
0.3193787355891192 14.128636791308162 605397.1830695379 5.0192759715508295 0.18792908377374454
0.3336682034561153 13.976464694010188 498027.42171664146 5.298960574042202 0.1907910992542562
0.3483412875810109 13.842522495563038 411292.4860086217 5.590804642367223 0.19367750134268033
0.36339454463491966 13.724489226560566 340931.41980098997 5.894949716069656 0.19658287822923978
0.37883935393228174 13.620504982776543 283558.0867584368 6.212270274018629 0.19951513035265023
0.39465993352514583 13.528951728733595 236643.09955711215 6.543043112758278 0.20247078197416005
0.4108762127748349 13.448334222388219 198076.34334214797 6.887931632586808 0.20545288670930714
0.42747288638967323 13.377476511654345 166274.82812725287 7.24765754801837 0.20846482819559506
0.44445595301922425 13.315345019185173 139974.83350771587 7.622507515441115 0.21150259830640453
0.4618263416377639 13.260979651760518 118131.22580115938 8.013374873783377 0.21457150196066876
0.4795794861487633 13.213534424695546 98872.6312141972 8.420989010350985 0.21767359446997964
0.4977231349308215 13.172318619651625 84758.48451528908 8.845828209471511 0.22080688912991545
0.516249477913222 13.136700179018154 72047.11639642989 9.288690511637101 0.22397373539633889
0.5351536221057854 13.106120117060012 61371.73245929266 9.750494257192633 0.22717755973466777
0.5544480195019029 13.080072906283544 52386.39065863951 10.232047349032415 0.23041971037825015
0.574114697315492 13.058044783020021 44803.23880037549 10.733873852677949 0.23369756454567325
0.5941625963786655 13.039736231254714 38394.82939133915 11.257111964141593 0.23701598004255325
0.6145823813035827 13.024655257040116 32959.07324384371 11.802747337738586 0.24037721262638925
0.635369086166732 13.012552472316326 28345.001808914498 12.371756806159102 0.2437828913489289
0.656521779656469 13.003108573472492 24417.206166867327 12.964901508717265 0.24723179015683366
0.6780436509138474 12.996057906283994 21069.73982058337 13.583362688147883 0.2507270764451883
0.6999158446046433 12.991119654085933 18208.911883897246 14.22840418168739 0.2542721685714204
0.7221328304230974 12.988025045954277 15760.676506242733 14.901212841721227 0.25786904573745023
0.7447043150817106 12.986662377292424 13662.217645049523 15.602912523910089 0.2615185623072425
0.7676088513670332 12.986740717165286 11860.788365235963 16.33457883112397 0.26522072351161957
0.7908375556715751 12.988112480328022 10311.26583550095 17.097914686493233 0.26898113377749183
0.8143956069352876 12.990618147307847 8976.913852417545 17.894371398587886 0.2728022183227472
0.8382605505855516 12.994073051348293 7824.8728064827 18.72543311521206 0.2766861393011141
0.8624233760600944 12.998319881021708 6830.252132287287 19.592202908512604 0.28063123728671463
0.8868834278864142 13.00324765493767 5969.871318507758 20.496876606591314 0.28464490739444936
0.9116237882698769 13.008741615156064 5223.702664373205 21.44124335888036 0.2887301530838183
0.9366272624433457 13.014629152615464 4576.7427886213945 22.426938336785256 0.29288812965534405
0.9618888100806772 13.020816051066133 4014.90053031192 23.455678839347115 0.29712018644350907
0.9873968608049796 13.0272050076655 3525.535787641662 24.530027432787595 0.30143360721948376
1.0131227802746754 13.033664557397175 3099.878670487695 25.652104567167594 0.3058313688040621
1.0390676238357226 13.040112668193913 2728.6194787961927 26.82350668684908 0.31031205302563714
1.0652034590375945 13.046451686342984 2404.3425168001645 28.047496160881565 0.31488568676032774
1.0915165903173545 13.052572597718642 2121.4348478490897 29.326336485955412 0.31955417495061467
1.1179976917918584 13.058410582463216 1873.6915541447083 30.662354505819927 0.3243192903682112
1.1446122058040211 13.063870565979883 1656.7102409642027 32.059249844803546 0.3291911773970367
1.1713596038496383 13.0689006770349 1466.1981113272009 33.51888976479297 0.33416706483825537
1.1982038780012951 13.073372985292565 1299.1238965457546 35.045628703415886 0.33925939170498903
1.2251302814046587 13.077248623193263 1152.3785921600352 36.64189419068826 0.3444674623421256
1.2521116216736339 13.080429599377512 1023.1775438426153 38.31218744122157 0.3498024122198199
1.2791402349239336 13.082885457550212 909.4865148896857 40.05928391692812 0.35526405788596915
1.3061687170716638 13.084492658118807 809.1523360180857 41.888388330586274 0.36086540849071963
1.3331917471129455 13.085224583230985 720.7498974980233 43.802617944314996 0.3666064392596792
1.3601875211862344 13.085049249422383 642.6053290424703 45.807315471461585 0.3724985853006394
1.3871085877834628 13.083822909016147 573.5167210235672 47.90746781925821 0.3785499322420842
1.413944197457322 13.081546702477215 512.4483842431074 50.10741921558636 0.3847640870888883
1.4406742217752337 13.078161901829043 458.3086692969866 52.4131406079284 0.3911519762260944
1.4672486694235913 13.07357320942659 410.33707734141205 54.83064699710881 0.39772327295617155
1.4936535257584258 13.067758300452901 367.69817516902026 57.36610372692863 0.4044869971775042
1.5198583326266115 13.060660336692404 329.89394589282864 60.026112055440834 0.41145287550016935
1.5458370981896317 13.052217077362425 296.25342065659896 62.81774837525913 0.41863139937825383
1.5715481806270917 13.042385456911127 266.33397828002563 65.74860718555843 0.4260338879797339
1.5969641533147685 13.031101414764345 239.7009797664003 68.82684819613698 0.43367255634841484
1.6220570237876888 13.018334024475076 215.95253856937066 72.06124799117813 0.44156058948031535
1.646805644689813 13.004058644457865 194.74581624364066 75.46125673393085 0.4497122230120418
1.6711602096168685 12.988190695511395 175.81996999797806 79.03706045425398 0.45814283130229455
1.6950914240092916 12.970701331499203 158.89810706726675 82.79853407125336 0.4668644443451807
1.718579745711542 12.951559330318027 143.76225422651126 86.75804425994089 0.4758972467529176
1.7415789619454938 12.930711996339404 130.22565811761024 90.9280680244707 0.485259347471756
1.7640612871214105 12.908125585186385 118.07784852579837 95.3213299783525 0.494967367020721
1.7859935509499263 12.883757271687445 107.19157658957444 99.95278314907887 0.50504404233618
1.8073291053977445 12.857551947857646 97.4136842653133 104.8382131666667 0.5155123262869756
1.828075325212779 12.829551348411828 88.63641676048769 109.9934233505265 0.5263921925667364
1.8481585882192582 12.799645896510329 80.73861166403375 115.43714465570932 0.5377113528592882
1.8675611908349221 12.767830176541286 73.63716644986637 121.18905900197213 0.5494973604266103
1.886249214032004 12.73407241327236 67.23603185663785 127.2703786554649 0.5617794772859057
1.9041808743454853 12.698314371313897 61.468890704184325 133.70422415402848 0.5745896508177403
1.9213450394074407 12.660599425645481 56.265097360912954 140.51464390963662 0.5879586483570288
1.937695124271668 12.620842633210792 51.567173341799496 147.72980618660034 0.6019268139751768
1.9532120023594643 12.579084181322862 47.3226259382575 155.37909712472938 0.6165332742273827
1.9678689295555618 12.535302290046605 43.48749913002605 163.49424214500505 0.6318193873685377
1.9816131444797547 12.489402970771405 40.013996042165985 172.11028559668424 0.6478314421025916
1.9944461148045523 12.441471124490379 36.867875396601335 181.26583545274391 0.6646207116370206
2.0062993940109766 12.39137291569172 34.019090804456454 191.00248940995579 0.6822407359542342
2.0171838396605453 12.339221622109696 31.434940902748156 201.3660157830269 0.7007504007731952
2.027059656936112 12.284957483886732 29.08711568390996 212.40681628840838 0.7202144489646105
2.035915996227246 12.228621153512869 26.958952793346235 224.1789872094468 0.740699294760606
2.043704191278228 12.170152409490331 25.02215358558528 236.7442504759528 0.7622846372953915
2.0504097341884457 12.109577391900745 23.263405867698342 250.1677475285598 0.7850482685433591
2.0560242066229937 12.046930643351319 21.661596987833153 264.5237474179121 0.8090830853803604
2.060521178346598 11.982215449776177 20.20650788576394 279.8929965624792 0.8344865937624478
2.0638847902472 11.915467236288482 18.878973450511896 296.36497020171606 0.8613661336922048
2.066099221025751 11.846695666695274 17.672016715793408 314.0377175045866 0.8898359260367349
2.0671476598988745 11.775935788660567 16.57285794003021 333.0222856628997 0.920028781710301
