M[M_sun], R[km], Lambda[1], P_c[MeV/fm^3], rho_c[fm^-3]
0.24162668629717493 15.618656898711224 2160425.4255784233 3.5677272577965504 0.1711233750220791
0.2536446469062337 15.277279102468507 1723310.0225976605 3.7848314309210473 0.17388832044502386
0.2660405310441758 14.981262869780801 1382988.7917984047 4.011426344706328 0.17666696154325426
0.2788165860074594 14.723493148890553 1116499.0569280582 4.24776772388025 0.179457972466571
0.2919720531485979 14.498390127447236 905888.110464323 4.494480893963219 0.18226792202342404
0.3055080313364711 14.301204659338218 738629.3068785862 4.751721730947942 0.1850925217799849
0.3194255205301606 14.1280962513886 605067.7544830731 5.020172117223029 0.18793838163097407
0.33372396238909147 13.975940611903203 497662.4143028034 5.3000566251598995 0.19080213467033372
0.34840627318841 13.841983161381659 410979.22723079263 5.592103330455709 0.1936900665071932
0.36346950256664046 13.723950189094095 340641.2298693519 5.896480210312835 0.19659725295505884
0.37892457286406805 13.619964462554933 279369.93701929855 6.2140510881455775 0.19953136923324818
0.39475757000099315 13.52841690654519 236379.01962139306 6.545072392810785 0.20248857601879747
0.4109832122965775 13.447853083591193 197849.89470021715 6.890248543517823 0.2054726184950496
0.42759203010482816 13.37702267278849 166065.31143689188 7.250283822426921 0.20848655469072055
0.4445883979735124 13.314911069101466 139787.45084879544 7.625435889959978 0.21152591005051333
0.46197062975783487 13.260531953294153 117969.08428817484 8.016656412728016 0.21459688731741583
0.4797363060395773 13.213129353652718 99808.3756958224 8.424649291791592 0.2177011146694334
0.4978946831741208 13.171954331960244 84629.54930873266 8.849853733596392 0.2208360356445537
0.5164340893571907 13.136374922924652 71930.06104851438 9.293146406079742 0.2240051051710077
0.5353539622683016 13.10582466081984 61269.190393489516 9.755410720974767 0.22721122044815617
0.5546609186952112 13.079810095924865 52297.90236421909 10.237456415612732 0.23045573265159133
0.5743456188362946 13.057820410374061 44321.59066254804 10.73975201778892 0.23373530418651334
0.5944030726558034 13.039509974110057 38321.84291929173 11.263547601040534 0.23705619001835904
0.6148413679798664 13.024507305218872 32897.123940061494 11.809778448195651 0.24041997350911698
0.6356498756289684 13.01240962417643 28287.3803235721 12.37942376205888 0.24382828796372236
0.6568188515255715 13.003005899905613 24366.10317060447 12.973169103302382 0.2472790443371955
0.6783520030742607 12.995981789524143 21024.854797314954 13.592348286261918 0.2507771058481015
0.7002410339743993 12.991062748391958 18169.591452273216 14.238155940743422 0.2543250723402341
0.7224761242595531 12.987995813832084 15726.040647096079 14.9117820124238 0.2579249289270338
0.745065943144943 12.986639235314374 13631.68708228259 15.614250556583022 0.26157651480945227
0.7679880869608755 12.986749876280866 11834.101227159666 16.34683921442167 0.2652818384473483
0.7912350506929663 12.988136294253131 10287.081083322135 17.111158924111056 0.26904553602015213
0.814808633387493 12.990669876206278 8954.356237939493 17.908665070649278 0.27287004077463195
0.8386925281806649 12.994143630173433 7805.978821978412 18.74071283490436 0.2767563417071609
0.8628772993635531 12.998406418744272 6812.8853782896695 19.608667276587926 0.280705102522735
0.8873586112134606 13.003356052431318 5954.180647573701 20.514604827725652 0.28472259520826415
0.9121163560992088 13.008852013093616 5210.0956541219675 21.460320059900763 0.28881183399322324
0.9371365782716439 13.01475560826741 4564.2584864054925 22.447284069817904 0.29297263424725795
0.9624216204221706 13.020959578570709 4003.7395815915843 23.47754882784115 0.2972090069649901
0.9879421546943528 13.027346425924403 3515.713027832299 24.55352456574672 0.3015269501741176
1.013686796013699 13.033797516785866 3091.4286340529284 25.677137915336896 0.3059279773157981
1.0396525467478697 13.04025336391218 2720.82311424092 26.85038215961588 0.31041358372229594
1.0658054076004415 13.046585204431135 2397.648427180727 28.076339497253997 0.31499239080361324
1.0921382388435716 13.052711269580895 2115.1319609032134 29.357045491949865 0.3196647085167689
1.1186373837549561 13.058551369865507 1867.9807363386847 30.69529565286281 0.3244354923989381
1.1452713676643766 13.063997738501648 1651.768403760398 32.09444984479761 0.32931252820496587
1.1720342717702457 13.069014563195614 1461.7001129273087 33.55649136792999 0.33429378611771465
1.1988922275220046 13.073473507856434 1295.1014022143906 35.085943474025925 0.33939270172203745
1.2258384603781252 13.077337576816253 1148.7611525740244 36.68480518197976 0.3446058865575533
1.252835933410328 13.080497902667284 1019.9394237937483 38.35815331583841 0.34994792810948255
1.2798787907033535 13.082938269883465 906.4911277135557 40.108254426813886 0.35541555628356536
1.3069235311634881 13.08452518630812 806.582711670241 41.940530990463465 0.3610230436511067
1.333961545611971 13.085240113373542 718.4210891903748 43.85851705758673 0.36677260033321535
1.3609713568524955 13.085028680120129 640.452386970551 45.86685396160904 0.37267171514229563
1.3879027995878115 13.083770406696136 571.6639527366764 47.97089986165426 0.37873048031105216
1.4147529197523088 13.081461878337814 510.7051554602 50.17543998325757 0.3849546887759466
1.4414833939120433 13.078026347498152 456.7464914966098 52.48564217046968 0.39135103835284474
1.468079241821631 13.073425776926515 408.9031252312912 54.907950210341795 0.39793135930351503
1.4944896751912926 13.067555428480066 366.4406260997058 57.44855542790917 0.4047047150949858
1.5207015745469148 13.0604056428113 328.74084213882963 60.11408738778152 0.41168087948237925
1.5466855391824774 13.05191492340348 295.207167201627 62.91165334639088 0.4188703949955604
1.5724017863908668 13.04203240636387 265.39572276098795 65.84888148175001 0.42628463620134704
1.5978161509537192 13.030692792336614 238.84928937499586 68.93396828423482 0.43393587830025454
1.6229129045837678 13.017871991738506 215.1707440835136 72.17573053958343 0.44183737168521003
1.6476659581117223 13.003529826801344 194.03935563070294 75.58366238936514 0.4500034231655122
1.6720140437966982 12.987596933700194 175.18379429041488 79.16765147336109 0.4584480375410873
1.695952069660794 12.970037279449908 158.3249072586242 82.93799656220511 0.46718492874320716
1.7194317685432228 12.950822900522832 143.2392499976082 86.90738786047955 0.4762354365296882
1.742410148547744 12.929868964189865 129.7474789487556 91.08735491503639 0.4856137021718679
1.76489554217024 12.907225267149544 117.64550899593287 95.49209360417454 0.4953420605454394
1.7868219374634216 12.882786125647906 106.79577695791782 100.13517216742738 0.5054376299250526
1.8081600867961745 12.856524037755992 97.05842737705271 105.03317277056716 0.5159263234145095
1.8288687708314697 12.828383297466486 88.3038890760153 110.20264199022746 0.5268306863222144
1.8489476741375177 12.798410779423895 80.43999844551382 115.6612841249422 0.5381743476581387
1.8683232523349682 12.766468220385615 73.3662214880124 121.42918441822403 0.5499861677779512
1.8870008437343837 12.732642812340078 66.99027023807169 127.52778229082979 0.5622959982641149
1.9049229576005124 12.696821058126847 61.24039015048258 133.9796151843297 0.5751334681468941
1.9220629326672065 12.658998756714293 56.05940038854042 140.81035151719794 0.5885347992284782
1.9383755655878776 12.619104842894167 51.37677140455769 148.0476705793393 0.6025382419493498
1.9538696150103598 12.577256016127684 47.151462443002686 155.72001580438018 0.6171793492517619
1.9684849847973203 12.533317642429072 43.32758272418874 163.86110696937328 0.6325059497724417
1.982198021142289 12.487311154376915 39.86856377198869 172.5048094998243 0.6485598873533885
1.9949843826558042 12.439226296550961 36.73385941044516 181.69027508386154 0.6653938343102901
2.00681980736907 12.38906209676806 33.8939128993327 191.4595989616802 0.6830624872775737
2.017665940205824 12.336780137667585 31.319197453407547 201.85883331985923 0.7016251032886311
2.0274983468766017 12.282390933493586 28.98328093990844 212.937856165738 0.7211440842149408
2.0363068251706253 12.225915756582038 26.862034052104566 224.75235486325676 0.7416903744001645
2.044048495894288 12.167315794837297 24.935618688874786 237.36333381599061 0.7633405351775874
2.0507053163240654 12.106601670724224 23.181475316685063 250.8377778195215 0.7861774934343961
2.0562763002437054 12.043847746080228 21.588424477168964 265.2489427509656 0.8102898525475223
2.0607196410155026 11.97899198925561 20.136713489950413 280.6782500100118 0.8357761916721471
2.0640221771428844 11.912089832244773 18.81639732524748 297.2158164283955 0.8627446570350011
2.06618018862863 11.843180596361483 17.614303139428422 314.9619664096876 0.8913154667480329
2.067170030910853 11.772279881797234 16.52003400150301 334.0260282900052 0.9216141130114188
