M[M_sun], R[km], Lambda[1], P_c[MeV/fm^3], rho_c[fm^-3]
0.24162668629717493 15.618656898711224 2160425.4255784233 3.5677272577965504 0.1711233750220791
0.25362318428886965 15.277836802330821 1723749.479278746 3.7844502525308417 0.17388356924027648
0.2659977448577371 14.982204578069469 1384002.265187843 4.010625084465489 0.17665727878611517
0.2787502845199269 14.724721654752951 1117596.0609411781 4.2465193282598275 0.17944349295866618
0.2918795225928018 14.499776757641103 907135.4246788385 4.492752660327596 0.1822486777407893
0.3053894032552563 14.302781811231485 739901.3648555394 4.749455042938674 0.1850680372234457
0.3192790581041711 14.129767593663006 606263.5460720881 5.017350337019475 0.18790910457225507
0.33355081038665 13.97761160396553 498798.50728178653 5.296605539985428 0.19076738796901263
0.3482011551664618 13.84367672880083 412052.43895999156 5.588014384624965 0.19365050483145052
0.3632334223336484 13.725694206806264 341631.03078359895 5.891661631678598 0.19655199584480615
0.3786531825801091 13.62166522896416 284185.5091833731 6.208444653855885 0.19948024530311254
0.3944562139028086 13.530063066095515 237170.759937614 6.53868398427009 0.20243255830621276
0.4106442044668864 13.449387820988134 198570.1050846165 6.882954954217334 0.20541050322793067
0.427215029038529 13.378530283300368 166713.76223872948 7.242016717459457 0.2084181630500022
0.4441729457004057 13.316327199517596 140362.64373758476 7.616218174408916 0.21145253110775522
0.46151620634182 13.261861599999692 118472.98490857257 8.006327468371845 0.21451698458222798
0.4792410125384953 13.21434162637771 100263.11653706864 8.413128704165116 0.21761449595596843
0.49735695569133637 13.173081474256463 85039.21135855987 8.837184026545957 0.22074430155215924
0.5158506530156987 13.137392842658 72290.5164644851 9.27912275640934 0.22390637780305542
0.5347277735850143 13.106738178282649 61586.52044765053 9.739938199947291 0.22710528737911945
0.553989398630974 13.080638739971066 52580.73905043058 10.220434333113252 0.23034237222248072
0.57362485327411 13.058537561843883 44976.04272188443 10.721254357437065 0.23361654347719638
0.5936391922975829 13.040153408538659 38543.32655921198 11.243296490592893 0.23692966071381202
0.6140253220650705 13.025033987185836 33096.320619115926 11.787654453744802 0.24028542270978612
0.6347766953676686 13.01285670352205 28465.61429523575 12.35530000701952 0.24368544942008005
0.6558942888096139 13.003349746317447 24525.256788016646 12.94715635445565 0.24713036613181724
0.677378653987923 12.996243555883492 21163.430972193764 13.564077592079625 0.2506197021970667
0.6992152578449986 12.991245636117567 18292.7125205885 14.207475977412992 0.2541586320418304
0.7213952777621786 12.9881036312523 15835.217382601782 14.87853174407665 0.25774912222449897
0.7439287770242559 12.986679154883145 13729.324668519936 15.57848586779419 0.2613932444818152
0.7667939746770892 12.986719664867364 11919.651519650279 16.30827130755993 0.2650895871048076
0.7899883387850224 12.988042480882672 10364.22507765501 17.06949776969755 0.2688429519338898
0.8134960442799901 12.990498719573601 9023.142019439056 17.863704646309685 0.272656706775965
0.8373269414633959 12.993907480941118 7866.063923611114 18.69241174193443 0.27653339442040303
0.8614550523830387 12.99814706206225 6867.5057046342845 19.55688283330833 0.2804727783844788
0.8858680540144822 13.003040818727374 6002.6607862627125 20.45884756138472 0.2844782582218574
0.9105712825303316 13.008492744714104 5252.874000690349 21.40032416313328 0.288554948937296
0.9355371445830791 13.014372758815714 4602.733393932398 22.383189776724937 0.29270600610394915
0.9607532229491229 13.020532223607473 4037.8521335820633 23.408773292271803 0.29692968907984024
0.9862200567828195 13.026909204389971 3546.4891322273666 24.479635199574346 0.30123342279924387
1.0119078437900575 13.03336048582346 3118.567254800787 25.59809678920299 0.30562181102754893
1.037807506557766 13.039794840811815 2745.6999126148107 26.765875740676158 0.31009433368857414
1.0639093494003433 13.046141954257724 2419.5448296832074 27.98564931269012 0.3146568883757968
1.0901846451862958 13.052271557628945 2134.8521821730005 29.260363781638645 0.31931629995058
1.1166229459381158 13.058125471951177 1885.6123588860285 30.59172918881258 0.32407015498606134
1.1432004794188648 13.063595358102464 1667.446186368767 31.983512616225095 0.32892924859810524
1.1699077860153437 13.068635995511391 1475.8314942609081 33.438282047745226 0.3338954085208011
1.1967105524126793 13.073131825868458 1307.8237260476835 34.9592104552235 0.33897362998625685
1.2236027214785388 13.0770305748193 1160.115376642795 36.549915727714485 0.34417075405853226
1.2505522288373534 13.080253425555016 1030.2246530098244 38.213593054783615 0.34949008681762295
1.2775478939038207 13.082762940953915 915.7798309669428 39.95433011945452 0.35493936589938413
1.3045513395075041 13.084443665587468 814.8521610138414 41.776137977756264 0.36052475687902863
1.331546011682475 13.085235136950965 725.8565954036568 43.6828300909902 0.3662503678098821
1.3584994414209073 13.085071917088321 647.2118344518067 45.679736214426676 0.37212760215151397
1.3853982188827463 13.083921301617734 577.6774023559975 47.770937574083284 0.378159852664972
1.4122177726796448 13.081746310405022 516.1663368671282 49.96168371089137 0.3843557201443484
1.4389174910910691 13.07842288820544 461.6787022990883 52.257814622825556 0.3907255092666195
1.4654696446656248 13.073916443320774 413.3472356531579 54.66504458669436 0.3972775010502799
1.4918582501416358 13.06820500312167 370.47866304567333 57.18948347328662 0.40402062239868575
1.518050724992529 13.06119788280693 332.3836347719553 59.83748049031985 0.41096359844990066
1.544005144059928 13.052861518954236 298.5252480194714 62.616296322316394 0.418118018831196
1.5697071878115356 13.043138614696694 268.36938220594436 65.53360542123588 0.42549575146482776
1.5951190862239004 13.031974501951492 241.5271816824501 68.59744864896172 0.433108647770799
1.6202143014580577 13.019346888467428 217.59779532485294 71.81609941222592 0.4409678985841539
1.6449563156743523 13.00518860654688 196.25723146528847 75.19916140435149 0.44908870443419024
1.669301578501142 12.989462725849139 177.19127306015173 78.75671793422194 0.45748627431652056
1.693244203441103 12.972105567828342 160.14927775521247 82.4996468243742 0.4661770373232227
1.7167397040732797 12.953123807840667 144.8965366847057 86.43834016173443 0.47517327426788897
1.7397480787957644 12.932431217487593 131.2526761846162 90.58619259144575 0.4844972148705179
1.7622554976179934 12.910023515358466 119.00967819721679 94.95582763031402 0.49416537325641613
1.7842031848367663 12.885824415113865 108.04058607413019 99.56220128636971 0.5042008037575141
1.8055812406761214 12.859838975047072 98.19388367288965 104.41948132668632 0.5146206540457547
1.8263428284101504 12.832000553735488 89.33850709592309 109.54536328277185 0.5254525396178034
1.8464491799833986 12.802264110199836 81.38898222220926 114.95755176030778 0.5367206794321736
1.8658995289660194 12.770677129886082 74.22706993225135 120.67530415067607 0.5484515438195208
1.884618992260071 12.737097742325826 67.7725651918229 126.71958689444635 0.5606740426163861
1.9026184948070992 12.701621647246514 61.96028940434482 133.11324874244804 0.5734197349295587
1.9198341536921657 12.66413186453222 56.7150014760292 139.88121317104182 0.586723063210867
1.9362456923955378 12.624635218415012 51.98022467392137 147.0499678275154 0.6006191110674094
1.9518151725779787 12.583083319760812 47.697929008775844 154.64855653543066 0.6151466009568415
1.9665286517003762 12.539514453713 43.831697469410415 162.70923269536385 0.6303495089613521
1.9803536375307258 12.49390490849566 40.32945825237754 171.26673175294712 0.6462739121624003
1.993238347979252 12.446157126572345 37.15869820636728 180.35784143990168 0.6629659320684728
2.0051942976805917 12.3963904647312 34.28425788062819 190.0247265816594 0.680482108383577
2.01615595074164 12.344483547460381 31.676112857002277 200.31258932575832 0.6988806258740922
2.0261176703960486 12.290474832046026 29.313249131442294 211.27004881617273 0.7182216892989634
2.035061487648074 12.2344045672176 27.16373314220584 222.95240169385127 0.7385771414315694
2.042949624110448 12.176220567304584 25.211499580251278 235.41901901406808 0.7600206402986569
2.04977258002633 12.115966298854657 23.43682102602199 248.73580476509136 0.7826343367189206
2.0554955179040344 12.053611237751726 21.82322428643054 262.9741788368916 0.8065039546012718
2.0601025679785883 11.989184416967081 20.351585663805228 278.2147362439594 0.8317288962052848
2.0635845024893555 11.922727091435537 19.0145806457383 294.5448368041562 0.8584123114464834
2.0659159812940047 11.854237697219101 17.79767668826526 312.06283452819474 0.8866725211706302
2.0670777865020504 11.783837077413724 16.690484261618842 330.88617044360285 0.9373704444063525
