M[M_sun], R[km], Lambda[1], P_c[MeV/fm^3], rho_c[fm^-3]
0.24162668629717493 15.618656898711224 2160425.4255784233 3.5677272577965504 0.1711233750220791
0.25364463247244723 15.27728878381293 1723114.7895483212 3.7848316105547264 0.173888322684071
0.26604043872093625 14.981275506758664 1382991.6169622566 4.011426722334293 0.17666696610666535
0.2788173147678015 14.72345361083866 1116332.045555402 4.2477683122803995 0.17945797929112606
0.2919720712034397 14.498369015033123 905829.092662246 4.494481708577863 0.18226793109434716
0.30550808395652024 14.301203425481633 738594.534367043 4.7517227994395945 0.18509253332173398
0.3194249950730072 14.12811576877553 605070.6643516545 5.0201734474648125 0.18793839543274599
0.3337239712742162 13.975913954458736 497662.9148362465 5.30005825217642 0.19080215105169035
0.3484063697698278 13.841982346324132 410978.7200321605 5.592105258311617 0.19369008515972946
0.3634699196773472 13.72392890509374 340654.0747552246 5.896482482323596 0.1965972742942647
0.3789246648595929 13.619948855706706 279367.7166309078 6.214053731809115 0.19953139334027648
0.39475792964444273 13.528433101591405 236387.63384294606 6.545075405384684 0.20248860243500078
0.4109833880671337 13.44784958513643 197845.62679757166 6.890251983164172 0.2054726477885213
0.4275921356310143 13.377027774197849 166072.38896619037 7.2502877214269015 0.20848658694614816
0.4445886069875196 13.31489530232356 139785.71044842293 7.6254402375393395 0.21152594466004052
0.4619710233390484 13.260533361643443 117970.43834312807 8.016661284724835 0.21459692500625005
0.47973519321715086 13.21314529240103 99805.54710972715 8.42465472620169 0.21770115552860017
0.4978947112248324 13.171959182645152 84632.29162415897 8.849859710384056 0.22083607891905008
0.5164340521024549 13.136375093848256 71928.35740062589 9.293153021975773 0.2240051517473282
0.5353542388354472 13.105825403683932 61267.736855569834 9.75541802084227 0.22721127042691314
0.5546614260889173 13.079806700171778 52294.46359648719 10.237464447041132 0.2304557861377714
0.5743459722078931 13.057819967091204 44322.06979081994 10.739760745882611 0.23373536022357846
0.5944042473052863 13.03950581688323 38322.661262633555 11.263557157068474 0.23705624972459455
0.6148419364649669 13.02448680431844 32896.55462699264 11.809788888617483 0.24042003700430117
0.6356476496988017 13.012438994518229 28287.895225006843 12.379435146856997 0.24382835537395678
0.6568193858308571 13.003005104805965 24366.58294730544 12.973181380195502 0.2472791145068822
0.6783524795441154 12.995969390903845 21024.63735625764 13.592361629600266 0.25077718014023453
0.7002415295533143 12.991060933495229 18169.03174974854 14.23817042208111 0.2543251509021978
0.7224767131387029 12.988009165433308 15726.107874763089 14.911797707912916 0.2579250119150012
0.7450664765746549 12.986639228315072 13631.64393166891 15.614267394115613 0.26157660087175005
0.7679875974709407 12.986764052976353 11834.066566737927 16.346857422034823 0.26528192920773325
0.7912352174105679 12.988138993771647 10286.863018818634 17.11117859319725 0.26904563166425777
0.8148092026662521 12.99067674386007 8954.268182942003 17.908686298660673 0.27287014150002814
0.8386946312387527 12.994133920364597 7806.239656729882 18.740735527681625 0.2767564459687309
0.8628763937419656 12.998415059675562 6812.8582029082145 19.608691729222187 0.2807052122262835
0.8873596186077447 13.003357764267303 5954.388155256542 20.514631157922803 0.28472271059127063
0.9121167430852433 13.00884775256897 5210.181656327734 21.460348393427683 0.2888119553091805
0.9371378096917029 13.014742385325812 4564.234939472235 22.447314288639998 0.2929727597590409
0.9624224021147052 13.020959341220943 4003.708751264269 23.477581311223666 0.2972091388896583
0.9879444140598633 13.027339954874767 3515.7122098047794 24.553559466606966 0.3015270888186672
1.0136879124945446 13.033800049708237 3091.4100625690958 25.677175098568465 0.3059281208130498
1.039652764769967 13.040254263781886 2720.7879198178753 26.85042207984199 0.3104137345337218
1.065806618400765 13.046578406553953 2397.66174063805 28.076382341365917 0.3149925493026133
1.092139541745071 13.05271398605931 2115.2117104710887 29.357091108087875 0.31966487270685734
1.118638420842336 13.058547639492875 1867.958660629552 30.695344585700553 0.324435665012694
1.1452715215919362 13.064004926881177 1651.710578594194 32.09450193461433 0.3293127071804455
1.1720349596126607 13.069012320549941 1461.670455466355 33.55654722580548 0.33429397436451425
1.1988922899172847 13.073473064466814 1295.0776267782521 35.08600336363429 0.33939289976073617
1.2258401040129359 13.077338658216922 1148.7792711813856 36.68486892950927 0.3446060921972156
1.252836000224095 13.08050441651021 1019.8996482150708 38.35822118002406 0.3499481418072973
1.2798795187508085 13.08294005821289 906.489209899554 40.108327179100186 0.3554157813548342
1.3069246918271864 13.084521091601363 806.5904507544883 41.94060845681136 0.3610232778436125
1.3339620189114372 13.085238475599592 718.4126447058851 43.85860010663437 0.36677284719793474
1.3609722943198177 13.085033682867836 640.4477148506008 45.86694241932209 0.37267197236530913
1.387903323559566 13.083769093872812 571.6477700981691 47.97099410590958 0.37873074856062555
1.4147551615785132 13.08146083708392 510.6721024227237 50.17554104761302 0.3849549719694081
1.4414851202071146 13.078023458961841 456.7617144348047 52.48574989446977 0.39135133412258827
1.4680802755754816 13.073423408549576 408.9053431557834 54.90806507103956 0.39793166848785616
1.4944905817567846 13.067555601533172 366.42843463030925 57.44867794100297 0.4047050385970522
1.52070290459574 13.060405276974224 328.742479184585 60.11421811107499 0.4116812182754328
1.5466868014664412 13.051915402425237 295.2035321451354 62.911792883598736 0.4188707501288481
1.572402959798421 13.042030070535555 265.3922352546534 65.84903048668716 0.4262850088065352
1.597817346070513 13.030691917817975 238.8511808727553 68.93412746543304 0.433936269598512
1.6229154568012412 13.017870885439363 215.173323494537 72.17590066538258 0.44183778299500753
1.6476671978388713 13.003530464229375 194.04048933210439 75.58384429353488 0.4500038559112211
1.6720163079121135 12.9875942678697 175.1826776567803 79.1678451113186 0.45844848929622684
1.6959531026343801 12.970036002082068 158.32107748879955 82.93820382347594 0.46718540502900385
1.7194330306754444 12.950821814355614 143.23847868388435 86.90760981215048 0.4762359391410206
1.7424113598387196 12.929867259523402 129.74221912542643 91.087591649487 0.48561422881888167
1.7648967588947548 12.907225464895983 117.64473004309987 95.49234740231219 0.4953426174352238
1.786823264151647 12.882784638658924 106.79736590887694 100.13544325025228 0.5054382149100282
1.8081612661575106 12.856522519652446 97.05693000880636 105.03346254398645 0.5159269387489728
1.8288700254372778 12.82838211891061 88.30382401341063 110.20295198775685 0.5268313344445865
1.8489496047768967 12.79840730927556 80.44148366319261 115.66161728743727 0.538175035856888
1.8683238645971885 12.766466353437501 73.36423091064874 121.42954135192079 0.5499868943641562
1.8870032406532238 12.73263996890489 66.99157633275395 127.52816364274699 0.5622967615097841
1.904924046068033 12.696818762953853 61.2400740231589 133.9800244550943 0.5751342761744609
1.9220639174127916 12.658996222845857 56.057624530698774 140.81079110708694 0.5885356557167495
1.9383769502282726 12.619105064711633 51.378105072680675 148.04814312126197 0.6025391509072485
1.95387200785563 12.577252266455254 47.1516003852275 155.72052263342624 0.6171803097435384
1.9684856333061411 12.53331508353731 43.32676184178791 163.86165115739988 0.6325069663201979
1.9821991057039954 12.487307678956656 39.8677820154211 172.5053960583693 0.6485609703696089
1.9949851895180142 12.43922536212195 36.73540227778052 181.69090613954683 0.6653949837869709
2.006821241491774 12.389058346931652 33.89356172549218 191.46027861319138 0.6830637090952466
2.0176654540303236 12.336777309392408 31.31853765509314 201.8595660885697 0.7016264038808105
2.027499560604586 12.282386811570975 28.983964763287155 212.93864519642185 0.7211454645769161
2.0363074007407778 12.225911884475515 26.86232360686878 224.75320746048146 0.7416918481347649
2.0440486726556917 12.167311602933747 24.934668604282567 237.36425413404365 0.7633421044044096
2.050706304165921 12.106597147867706 23.181451346101248 250.83877250866175 0.7861791671173516
2.0562766227644866 12.043842996266436 21.588778272980736 265.25002123736556 0.8102916472115506
2.060720223920942 11.978986645587254 20.136095631059796 280.67941639352506 0.8357781048125822
2.0640228601189885 11.912084831082833 18.816420673348368 297.21708187801204 0.8627467072901246
2.066180889676774 11.843175055885995 17.614004445251037 314.963341088996 0.891317667339227
2.0671703854380707 11.772274685874136 16.519686681047794 334.02752126734913 0.9216164710498754
