M[M_sun], R[km], Lambda[1], P_c[MeV/fm^3], rho_c[fm^-3]
0.24162668629717493 15.618656898711224 2160425.4255784233 3.5677272577965504 0.1711233750220791
0.2536452512192496 15.277282805198814 1723151.5319977363 3.784856104127843 0.17388862798464383
0.2660434303457478 14.981177916868402 1382950.5692104918 4.01147821323855 0.17666758834385546
0.27882140450146425 14.72338418090139 1116416.1323810345 4.247848543073821 0.17945890984742452
0.2919782612306459 14.498263952734161 905749.8302600634 4.494592785136495 0.18226916795760706
0.3055156714130285 14.301081783083868 738539.2901633141 4.751868493972947 0.18509410710075638
0.31943471280491753 14.127996053552046 604988.8095272989 5.020354833780394 0.18794027738577884
0.3337357821457225 13.975775134389126 497575.60146021395 5.300280106433666 0.19080438475593806
0.3484195444306741 13.841871106727481 410909.69710944535 5.592368135026008 0.1936926285642561
0.3634851683239585 13.723832118993093 340562.37879319326 5.896792288276731 0.1966001840573385
0.3789408815126939 13.61985858548713 279304.92461782746 6.2144142169501615 0.19953468053071047
0.3947786177291516 13.528260878572588 236343.67062686957 6.545486196035183 0.20249220451405467
0.41100533418904445 13.44772225123973 195314.94643850895 6.890721010775133 0.20547664222447606
0.4276165938740398 13.376941417608995 166023.24367320008 7.2508193883191066 0.20849098529009283
0.44461489996218145 13.314801059838302 139746.84877191525 7.626033074791228 0.21153066402575865
0.4619986590704741 13.260436259417213 117929.48350633764 8.017325634360047 0.21460206428778203
0.47976888003933893 13.21306717280807 99769.75501546869 8.425395769941487 0.2177067271415633
0.4979290767762196 13.171887770139948 84603.24824126925 8.850674716338082 0.22084197991038249
0.5164721465528181 13.136307617858344 71908.86867285319 9.294055181484465 0.22401150300651249
0.5353932824044526 13.10577696275084 61246.433747506424 9.756413452247486 0.2272180856772258
0.5547065528165397 13.079741187772969 52279.64883909174 10.238551259130606 0.23046297193234405
0.5743917237146595 13.057776678532296 44709.27693279742 10.740950943060756 0.2337430016581391
0.5944523445044476 13.039466988211597 38305.61031645779 11.264860259659542 0.2370643915331649
0.6148941046919605 13.024459695840221 32884.2877794603 11.811212596612327 0.24042869552431417
0.6357031333943536 13.012404367182999 28275.651596467946 12.380987640709552 0.24383754780525743
0.6568772805698141 13.002989165152965 24356.264318062396 12.974855530484254 0.24728868326341505
0.6784144280203691 12.995959608589324 21015.56798767768 13.594181213712595 0.2507873110970762
0.700308567518448 12.991047874842137 18161.50296664044 14.240145198769646 0.2543358641621121
0.7225475926326457 12.98800017283338 15719.091263235727 14.913938063050358 0.25793632877942585
0.7451395406505676 12.986637962156351 13625.396008394786 15.616563494232489 0.26158833701248413
0.7680645394001046 12.986754472694425 11828.205217955983 16.349340366828866 0.2652943060647875
0.7913156126699437 12.988140585509887 10282.910660426185 17.11386084724262 0.269058674557393
0.8148934397563325 12.990688289013876 8950.237324357693 17.911581153050207 0.2728838773771145
0.8387822636062251 12.99415485058663 7802.318691422755 18.74383014136131 0.27677066411739293
0.8629679478264384 12.998428167685326 6809.320505844611 19.612026347576645 0.28072017255580617
0.8874536623929224 13.00338062379394 5951.122319994468 20.51822183458672 0.28473844549315513
0.9122154056060406 13.008873128931777 5207.504708627093 21.46421228152728 0.2888284993590913
0.9372406101707478 13.01477608750863 4535.892939455389 22.451435290627344 0.29298987605515364
0.9625283936167374 13.020987502982152 4001.456912482482 23.48201115355833 0.2972271297956137
0.9880548940992087 13.027365205495512 3513.9597058569407 24.55831900571658 0.30154599620809036
1.0138028411656552 13.033828247881905 3089.7426060087646 25.682245908264804 0.3059476900442508
1.039771061106711 13.040285385152195 2719.277493335077 26.855866165408266 0.31043430130867716
1.0659278651213953 13.04661628302191 2396.4460298462277 28.082225193301156 0.31501416455258846
1.0922647380933181 13.052740352085415 2113.9208518885443 29.363312014927452 0.3196872641518235
1.1187678271177914 13.05857615085923 1866.8079613170528 30.70201783583598 0.32445920533496253
1.145404201324194 13.064034916147762 1650.6076433529497 32.101605744149666 0.3293371151703118
1.1721726246790325 13.069032999355446 1460.9015448715154 33.564164941321806 0.3343196468512236
1.1990330924053365 13.073495963451924 1294.39281313391 35.094170949117874 0.33941990775169295
1.225983214449415 13.077360859195547 1148.0371054263492 36.693562678737784 0.3446341368864633
1.2529826426357875 13.08051141415012 1019.2439942035116 38.367476383027096 0.3499772855542895
1.2800300027110127 13.082951371845098 905.886067336178 40.11824905752945 0.35544647633200893
1.3070840777085122 13.084552461049741 806.0574690007467 41.9511732729389 0.36105521688332864
1.334117684277255 13.08524258599136 717.8666840754923 43.86992634040771 0.36680651462220587
1.3611296829669093 13.085027259842816 640.0186997071252 45.87900633331423 0.37270705258843945
1.3880709025462512 13.083775664715564 571.2239197657018 47.983847241950485 0.37876733273488056
1.4149178039521257 13.081444134294296 510.341867641409 50.1893243829953 0.3849935943941042
1.4416512686083705 13.07799860626112 456.4415897038896 52.50044154336745 0.3913916718859761
1.4682476812925958 13.073388399287388 408.61105778114245 54.92373010398525 0.39797383593925123
1.4946598429926448 13.067510420977447 366.17905923920415 57.46538670019077 0.4047491589270249
1.5208729140603425 13.060355407510777 328.52643078295887 60.13204668243428 0.4117274242420245
1.5468588272472565 13.051854993486158 295.01831114392826 62.930823615979236 0.4189191848557668
1.5725764556039135 13.041959615625482 265.19803848293316 65.86935256340503 0.4263358266610605
1.597990518061303 13.030609187489437 238.66265245011277 68.95583753406288 0.4339896371577411
1.623099310702005 13.017790162804795 215.0058717615062 72.19910353240618 0.44189388011010605
1.6478412425104496 13.003421983032007 193.88972319960686 75.60865369127457 0.4500628768805029
1.6721891646448563 12.987472501190545 175.05951251966127 79.19425495604898 0.45851010316183455
1.6961264805741003 12.969906484327364 158.19806004124916 82.96647186439225 0.4672503649046996
1.7196055793186815 12.950672615379014 143.1308779316424 86.9378816108824 0.47630448987114005
1.7425897585935695 12.929724117807291 129.6463766657981 91.11987980475038 0.48568605807949994
1.7650661584783616 12.907044412979001 117.55244927272282 95.52696305873725 0.49541857191472083
1.7869765332332272 12.882554217386721 106.71398803315903 100.17241655181326 0.5055180016907554
1.8083259956278168 12.856307969523407 96.98411553655635 105.07298527388421 0.5160108653487535
1.8290381994640825 12.828161983136976 88.23885316317521 110.24523333841508 0.5269197335016454
1.8491079974074682 12.79816076488857 80.38506089876519 115.7070584418542 0.5382689016013765
1.868354958608461 12.766358656726307 73.35174584937079 121.19958726460051 0.8835009300059036
