M[M_sun], R[km], Lambda[1], P_c[MeV/fm^3], rho_c[fm^-3]
0.24162668629717493 15.618656898711224 2160425.4255784233 3.5677272577965504 0.1711233750220791
0.25363927529365093 15.277428567064762 1723313.7480038377 3.784752733208345 0.17388733951600005
0.26603194813504805 14.981440675157126 1383202.2203424787 4.011260907931496 0.17666496233746454
0.2788026180495293 14.72374830589774 1116597.684469658 4.247509952628177 0.17945498270849997
0.29195337303050406 14.49866994587708 906070.894464451 4.494124025742997 0.1822639482129671
0.3054845684242526 14.301477712260004 738851.657720951 4.751253650318081 0.18508746561583708
0.3193949986588549 14.12843778839947 605260.2042146845 5.019589377901394 0.18793233548559538
0.3336888190579338 13.976241999485111 497888.02001328964 5.299343887465586 0.19079495858439768
0.3483643845536819 13.842280862486849 411181.9931101443 5.59125881662757 0.19368189560358823
0.3634197671291921 13.724326954101342 340824.40587680705 5.895484949874575 0.19658790525840314
0.37886795059376926 13.620317146011685 283464.61817879026 6.212893039661088 0.1995208092254508
0.3946950640512435 13.528748847419218 236548.56237434153 6.543752760390337 0.2024770046252062
0.41091352516690044 13.448147790409076 198002.27996716846 6.888741855351583 0.20545978690636876
0.42751459128473707 13.377327219229416 166216.28838900692 7.2485759431433605 0.2084724258430996
0.4445031482364755 13.315170381985869 139907.2417437703 7.623531541578921 0.2115107502129081
0.4618771292250869 13.26081091201343 118069.34299965185 8.014522383689522 0.21458037887751472
0.4796344477046809 13.213392914290766 99894.22869068655 8.422268945140388 0.21768321779027994
0.4977834850798654 13.172190419532669 84717.73321035162 8.847235847366107 0.22081708102970973
0.5163141068566094 13.13658663902797 72008.83890314856 9.29024862110537 0.22398470458413228
0.5352240439429533 13.106008379219627 61332.576942327505 9.75221339420357 0.2271893298566369
0.5545231982074191 13.079973395021995 52356.408342862866 10.23393871060587 0.23043230610850682
0.5741943895082475 13.057967383064607 44773.814918906 10.735929219626502 0.23371076063815596
0.5942463403073643 13.03965609583753 38366.95836980023 11.259362229619883 0.23703003974198308
0.6146730969474515 13.024597863880311 32938.32825276517 11.805205784389376 0.24039216408385372
0.6354656979671446 13.012504462480774 28325.78704261345 12.374437544833606 0.2437987642015394
0.6566284404658398 13.003102599935724 24400.63522576263 12.967792229757206 0.24724831233290204
0.6781506469468701 12.996032217078655 21052.72037790247 13.586504416803075 0.250744568748621
0.7000294438146135 12.991097076727234 18194.612150728415 14.231813749334801 0.25429066564231156
0.722252475899802 12.988018515242567 15748.423237000758 14.9049081605993 0.2578885842813196
0.7448312618496858 12.986650117968951 13651.652339379447 15.60687662109884 0.26153882414258184
0.7677415064985732 12.986747472728068 11851.23132785684 16.33886535547855 0.2652420907604297
0.7909763242424886 12.988117380958823 10302.590738245239 17.102545132812057 0.2690036500699396
0.8145386835723673 12.99064391711176 8910.611685235615 17.899368685983404 0.27282593009411577
0.8384117277769353 12.99410834180619 7818.0808374374965 18.730775085955386 0.27671068289266976
0.8625823179971339 12.998354212475153 6824.3000336800005 19.5979589747085 0.28065706112557465
0.8870464177038498 13.003296892965313 5964.142902687942 20.50307444772338 0.28467206729528055
0.911796456438555 13.008780545739738 5218.84791897764 21.447912548833624 0.28875870862388753
0.9368052220924498 13.014666867325788 4572.267192738861 22.434051106079718 0.2929176720495965
0.9620731049535521 13.020869121773853 4010.750000959094 23.463324383726775 0.29715123727094744
0.9875871468234877 13.027260367656885 3522.0814171106335 24.53824170648241 0.30146623862937444
1.0133233935722221 13.033717354551792 3097.074122206781 25.66085578975137 0.30586514145740323
1.039270723850573 13.040170577064435 2725.868806215413 26.83290176202834 0.3103475459278975
1.0654154687488633 13.046503967138758 2402.154912629344 28.05757902570691 0.3149229876616823
1.0917359381441623 13.052622009128312 2119.2818984419364 29.33707142527791 0.3195928141408893
1.118221756832073 13.05846236072233 1871.7923559762621 30.673869580321828 0.3243599105396749
1.144842781452688 13.063924146155967 1654.8851625818136 32.071599028713486 0.329233885678948
1.1715954408673936 13.068938968070976 1464.6224125557624 33.532033650168565 0.33421136108716243
1.1984469375194073 13.073414107620131 1297.7111851467375 35.05972079965283 0.3393059904468687
1.2253786309212633 13.07728124678854 1151.1205542930322 36.6568936312708 0.3445158482155814
1.25236377994599 13.080454267191483 1022.0022496670608 38.328266649647965 0.34985334762720177
1.2793972547817267 13.082899015850362 908.389139248702 40.07640100799866 0.35531701244729075
1.3064322574449232 13.084508529206255 808.2708429931582 41.90661399616467 0.36092050743893933
1.3334611746272127 13.08523223305601 719.866872064625 43.82215633294469 0.3666645174551971
1.3604613097119191 13.085044196038641 641.9047943813575 45.8281256758653 0.37255909854819286
1.3873855858288466 13.083803792320433 572.8902116887967 47.92963864304281 0.3786130375634728
1.4142348230833552 13.08153307307265 511.8090288420944 50.13119352875585 0.3848307053343727
1.4409596813208685 13.0781185479127 457.7463326463188 52.43848070151244 0.3912215506289636
1.4675400444202524 13.07353025943343 409.8100660465751 54.85766496478041 0.397796000466068
1.493948121392956 13.067682839374255 367.2611354961157 57.39492073671461 0.4045630899601156
1.5201535687278986 13.06057002943063 329.4894382322138 60.05685916163661 0.41153256218582934
1.5461335304551336 13.052110313590665 295.895315879488 62.85056741130375 0.4187149264342165
1.5718471400751421 13.042261108669386 266.00260010772746 65.78365174687914 0.42612152121937885
1.5972627974071276 13.030957605391336 239.40104268427865 68.86428472307088 0.43376458259220707
1.6223549004330948 13.01818213221248 215.6734580662153 72.10125696331632 0.44165731838509803
1.6471057259642996 13.003876625175437 194.49680864940552 75.50403398863784 0.44981398908724085
1.671459974796388 12.987982235317897 175.6033344401408 79.08281864371362 0.4582499961338823
1.6953956716951089 12.970474433250123 158.70228214688123 82.84727077232611 0.4669764411423016
1.7188590682342857 12.951266592463325 143.5940023571657 86.81023315961598 0.4760154289332545
1.741875427400234 12.930428019953649 130.05612438429372 90.98373085689758 0.4853831767851537
1.7643552338712585 12.907817851681173 117.92919117357286 95.38100231915465 0.4950983014606272
1.7862834137743875 12.883417743451133 107.05164314249339 100.01651693684633 0.5051815770851702
1.8076264488625462 12.857204285871427 97.28865889114851 104.90633852398477 0.5156569906260369
1.8283566517028411 12.829153716853877 88.51897822594785 110.06658818525253 0.5265456308167751
1.848435007690642 12.799213258478312 80.63301678829491 115.51546363096688 0.5378731328363697
1.8678325544640075 12.767364211622825 73.53724230302892 121.27296233538254 0.5496681568662924
1.8865127409010123 12.733575767363835 67.14808866024616 127.3603368413325 0.5619600226471531
1.9044484642973734 12.697813458874128 61.38642500605868 133.80049246558187 0.5747798242829754
1.9215864908669626 12.660001976573486 56.19479062815806 140.61796294220395 0.5881599531227124
1.9379398480778904 12.620264819549286 51.50081223138901 147.84086450477065 0.6021404401756733
1.9534436393365864 12.57845137495279 47.26307596472213 155.4982081759318 0.6167590015925956
1.9680817166721687 12.534596207595122 43.43470588542821 163.62250060493108 0.6320595428735069
1.9818189524226673 12.488668841968584 39.96366932051183 172.24811973867455 0.6480859377753034
1.9946242119873783 12.44065998141464 36.82119795498751 181.41411815890297 0.6648908106423455
2.006479379475686 12.390559789105767 33.975426210233394 191.16218231398628 0.6825278178030382
2.017361751629879 12.338393310503234 31.395644039154465 201.5381795967 0.7010559745599051
2.0272160301716604 12.284064950277115 29.051480976777253 212.5925899261224 0.7205400615853563
2.0360402116391616 12.227639630424967 26.923994884577652 224.37928189815952 0.7410455088983863
2.043825092153287 12.169162575507107 24.99111471604167 236.96063731510264 0.7626539006512426
2.0505135264902403 12.108538787492117 23.23464669847783 250.40186362019972 0.7854429353545198
2.0561108126005294 12.045844237266607 21.636292521813825 264.7770615545209 0.8095046148209186
2.0605945888669113 11.981098044321929 20.182036935254683 280.1674322189679 0.8349375344354029
2.0639397021701775 11.914299530538962 18.857665695873887 296.662159611541 0.861847633786851
2.066127840789175 11.845466420498642 17.65198000078096 314.360536483491 0.8903526957283543
2.0671553100323763 11.774662244853369 16.554264265702958 333.37286032299716 0.9205824863822187
