M[M_sun], R[km], Lambda[1], P_c[MeV/fm^3], rho_c[fm^-3]
0.24162668629717493 15.618656898711224 2160425.4255784233 3.5677272577965504 0.1711233750220791
0.2536313702451052 15.277593869347474 1723494.4437740871 3.78459312945162 0.17388535013216788
0.26601451212243704 14.981800440619839 1383673.8325077572 4.010925407057787 0.17666090800740483
0.27877602249195027 14.72422993627214 1094664.706357695 4.246987222725977 0.17944891982937158
0.2919159068446649 14.499250865209396 906686.4998893017 4.493400369226202 0.18225589012970064
0.3054352236358285 14.302158847429475 739476.7560157499 4.750304518012195 0.18507721317548728
0.3193341013916596 14.129144615295564 605785.7438771833 5.018407798522008 0.1879200761434865
0.3336158624140909 13.976986722079735 498380.01106285554 5.297898779627388 0.19078040874633456
0.34827777471599936 13.843031773724839 411632.2222765897 5.589546593084156 0.19366532936978922
0.363321664441333 13.725015327884153 341249.27947456454 5.89346717456667 0.19656895388570453
0.3787559905515613 13.62100609259271 283852.939183362 6.210545325074287 0.19949940089525156
0.39456741627618624 13.52943715862096 236888.45990327568 6.541077564774186 0.2024535467736648
0.4107707841456368 13.448837368456614 198304.95995964174 6.88568757581278 0.20543377538013766
0.42735750919126536 13.377955510128398 166466.17512175228 7.24511395546976 0.20844378570630734
0.4443292592558827 13.315758878768445 140150.01651699358 7.6196714334158635 0.21148002126988877
0.4616865096384746 13.26136191374945 118279.80810640016 8.010196880662722 0.21454691761458342
0.47942609786132007 13.21390657806195 100090.8667259579 8.417444361907236 0.2176469436690103
0.49755876055098214 13.172663583057712 84887.25053966102 8.841929988557991 0.2207786643449199
0.5160692324773266 13.137005796156282 72161.85297515581 9.28437569416675 0.22394335881235009
0.5349615583968543 13.106402526122512 61466.64265313888 9.745733632428427 0.2271449659775865
0.5542415744970486 13.080324534080336 52473.57191361536 10.226809933262174 0.23038483123234285
0.5738931090548831 13.058282549193942 44881.24342778142 10.728182409025694 0.23366102371443717
0.593926348614475 13.039914998282912 38459.99769469717 11.250880989869211 0.23697704880254183
0.6143304737687886 13.024821632148893 33021.30733925287 11.795940081002017 0.24033581314777383
0.6351015605904868 13.012694680397717 28398.89063673404 12.364334224717451 0.2437389416934353
0.6562382433061972 13.003225499659582 24465.676805681345 12.956897684402584 0.2471860435791736
0.6777431471217944 12.996143714345608 21112.481804329153 13.574664090636297 0.2506786449847376
0.6995999692608192 12.99116450039618 18246.342353621683 14.21896424536495 0.2542209564561549
0.7218010106983392 12.988067652261861 15795.970714745632 14.890982012163503 0.2578149514850382
0.7443549314110024 12.986662947152723 13692.215321859394 15.591937783243589 0.26146246671278855
0.7672411111392232 12.986725714234696 11888.038788892314 16.32271173547842 0.2651615690161969
0.790453958744703 12.988070758826112 10334.66321260087 17.085095775200692 0.26891879975272376
0.8139867317753249 12.990556420250801 8998.056603617337 17.88053727287813 0.2727365763854418
0.8378395897025018 12.994002141474263 7844.378116064987 18.71056117102269 0.27661745186071557
0.8619887864999425 12.998245794623763 6846.942506540395 19.576268963564242 0.28055975172474457
0.8864224229159381 13.003159564482587 5984.346369559877 20.47972017505607 0.28456972525131513
0.9111493794057418 13.008635099650869 5237.12477859984 21.42278264320936 0.2886511096452981
0.9361373673902788 13.01452253734708 4588.428157566626 22.407250174269215 0.29280635623699225
0.961376209208659 13.020687881599663 4025.0557613194933 23.43451649933386 0.2970342398927714
0.9868669032408659 13.027075682601911 3535.054857963897 24.50729147946299 0.30134328807018895
1.012574170816113 13.033525237051196 3108.381445319249 25.627795468380487 0.30573724977672845
1.0384966578614592 13.039965928219711 2736.3813111878876 26.797503672346075 0.3102138183191958
1.0646212878312225 13.04631124073161 2411.4980351980917 28.019590273262033 0.31478245074761313
1.0909139964099177 13.052431434461491 2127.487679423918 29.29662652102304 0.3194472373188696
1.1173780517374112 13.05828559242049 1879.006545484505 30.630486304961217 0.3242068732246742
1.1439772047463592 13.063758237291335 1661.5005312466915 32.025074164475335 0.32907298459979484
1.1707053093861282 13.068784004258115 1470.5314933886984 33.48251560124189 0.33404448015675503
1.1975282551140787 13.073255821215797 1303.0162541475672 35.00663156781153 0.3391304387496928
1.2244434289877228 13.07715954075507 1155.8579871685658 36.60038710338062 0.3443335669036302
1.251407999792313 13.080351425966391 1026.3702540383551 38.26769364919035 0.34966146564067396
1.2784214357721955 13.082824753213181 912.1985263166907 40.01191924740803 0.3551175274219877
1.305438226986892 13.084466593288775 811.755256491763 41.83786668054115 0.3607124400856785
1.3324549677483315 13.085245173107994 723.0686737226576 43.74855620951786 0.36644573982519174
1.3594305133335682 13.085072294925101 644.7166501726975 45.74973610892026 0.37233115233593445
1.3863377559893475 13.083875978035278 575.4280115633475 47.845984021454214 0.37837459248274136
1.413163927640612 13.081625616374504 514.1134336557839 50.04164222195233 0.3845797727039512
1.439882355615853 13.078283795806433 459.81291847955777 52.34303336174901 0.390959487995001
1.4664463848007645 13.073729512362084 411.67886825254044 54.755899648355125 0.3975220665363442
1.4928433245245898 13.067957733572548 368.9379424426454 57.28638135566577 0.40427648619420575
1.519042373357474 13.060913143564198 331.0281995633879 59.941052430080035 0.4112324280998408
1.5450130390087042 13.052504234944738 297.2623760516536 62.72695948740814 0.41840033444063646
1.5707197690783061 13.042723522650414 267.23950879903185 65.65166453662255 0.4257914709522168
1.5961373966824224 13.031500837177523 240.51246598162447 68.72329180780359 0.43341799466175424
1.6212305913824945 13.018801113160999 216.67982209889763 71.95057910849532 0.44129302750000604
1.6459710312484612 13.004568680741288 195.42517103386902 75.34293418581574 0.44943073647412096
1.6703196288647597 12.988750847617704 176.42771085795763 78.91049663187002 0.45784642117612834
1.6942588937343008 12.971344099850437 159.46518795970007 82.6637355939897 0.46655467783702564
1.7177540384473555 12.95226774531392 144.27992747009924 86.6137023516713 0.475570383348257
1.7407575624990914 12.931495520400526 130.6847230658633 90.77405408915789 0.48491660389241836
1.7632384189123007 12.90895892521532 118.50417970301123 95.15630130744847 0.49460525726764604
1.7851885024306422 12.884692116425537 107.56613628433111 99.77652769413616 0.5046636907110401
1.806539465949911 12.858576175848846 97.7609338341924 104.64924998683038 0.515110119697907
1.8272940911974453 12.83065654597508 88.947963748777 109.79110058578027 0.525967889674754
1.847383296992393 12.800812337862661 81.02858714735252 115.22057654431313 0.5372639978730536
1.8668128228437142 12.769114135753945 73.89547658634568 120.95705717896395 0.5490250897341489
1.8855096749370337 12.7354214596463 67.47806779420496 127.02164357637176 0.5612802679668578
1.903476900763659 12.699801687601077 61.69328700648836 133.43733334609968 0.5740613043070615
1.9206639299192734 12.662188557955973 56.469514671612046 140.22898653259747 0.5874020791565462
1.9370522106988948 12.62258919198384 51.7542713424149 147.42276350346884 0.6013362020978473
1.9525963598930574 12.580931447065304 47.4954754173102 155.04956479409606 0.6159084141281106
1.9672723204652953 12.537226363170783 43.64084509726128 163.13967460883848 0.6311554830479739
1.9810428329606602 12.491425217194783 40.1585547034968 171.72926154085766 0.6471279228438163
1.993906959674038 12.443604240434608 36.9972638328772 180.85594476145792 0.6638740900593869
2.0057983930945427 12.39362694232304 34.13978610740741 190.56107709632744 0.68144720374408
2.0167182924821696 12.341581351572923 31.543643611764693 200.8901535184393 0.6999057921934939
2.0266413004172747 12.287460938598723 29.189387816286164 211.89327023443988 0.719314199891871
2.0355274919038613 12.231219981353831 27.05026117125249 223.62542120678495 0.7397424427464676
2.043368503704704 12.172899947233002 25.10745507866966 236.14551353705897 0.7612617679548449
2.05012808505841 12.112468277311947 23.341609661029743 249.52077082502942 0.7839576120631102
2.0557835638826143 12.049933842398863 21.73364246844488 263.8237522906005 0.8079182528196543
2.06033041520593 11.985356879390153 20.271360140329037 279.13467492492356 0.8332405527999471
2.063754997489743 11.918749196614476 18.941116683384234 295.54257217354484 0.8600316371010829
2.0660176768496634 11.85009943340848 17.728235729939872 313.1457988993592 0.8884081397766538
2.0671323820999206 11.779492658327515 16.62432269859183 332.0529678725568 0.9184964888429402
