M[M_sun], R[km], Lambda[1], P_c[MeV/fm^3], rho_c[fm^-3]
0.24162668629717493 15.618656898711224 2160425.4255784233 3.5677272577965504 0.1711233750220791
0.2536447440896355 15.27726897935716 1723118.4872419273 3.784842360630708 0.1738884566785821
0.26604232695002106 14.981215368248218 1353368.6342196614 4.011449321311764 0.17666723920197108
0.2788184811815009 14.723446502656435 1116337.9076931104 4.247803524895293 0.17945838770439454
0.2919743993251327 14.49833948581035 905776.8584594487 4.494530459019314 0.1822684739418271
0.3055116384522349 14.301148861856772 738585.0408446878 4.751786743222509 0.185093224036628
0.31942938567798673 14.128052071624875 605036.9048994355 5.020253055806665 0.1879392214000187
0.3337286492360724 13.975927562942823 497619.54581685364 5.300155621193254 0.19080313139612545
0.3484121627589447 13.841933164077588 410943.70370943326 5.59222063130617 0.19369120142518978
0.3634772538370048 13.723919625116306 340643.07896528824 5.89661845160067 0.19659855134648918
0.37893115941197586 13.619919531980626 283262.40142174147 6.214211943068647 0.19953283603646466
0.394766048207854 13.528373037352829 236367.39396603697 6.545255694558362 0.2024901833274952
0.41099298249745214 13.447783688142161 197830.20149152193 6.890457831100449 0.2054744008759274
0.42760461738400424 13.376949156421546 166052.5270118538 7.250521060108884 0.20848851729726461
0.4446008419395928 13.314845905775881 139776.6344151825 7.625700422223318 0.21152801589742318
0.46198161079659095 13.260492052501476 117951.46541628569 8.016952854146469 0.21459918053145016
0.4797504927454879 13.213122165954573 99795.18344454022 8.424979954370452 0.2177036007897686
0.4979105286852098 13.171950122438085 84622.7732008221 8.850217398281506 0.2208386687322559
0.5164506253654509 13.136342949276553 71918.93240926081 9.293548958753718 0.2240079391669287
0.5353720342811185 13.105793107337194 61259.06424961392 9.755854891527957 0.22721426147487647
0.554680750262392 13.07975935403026 52289.268368528115 10.237942695251135 0.23045895617961903
0.5743655958097227 13.05782631308806 44715.9143427124 10.74028309242644 0.23373871385019257
0.5944251152856885 13.03949193621078 38316.710551253695 11.264129053624082 0.2370598229446232
0.6148648095587886 13.024484760949557 32890.21353380723 11.810413714283523 0.2404238369868493
0.6356721245564362 13.01240776943792 28282.915118781602 12.380116491571437 0.24383238966656878
0.656845052804505 13.003009155527232 24362.467723028025 12.973916115075575 0.24728331395016448
0.6783803483342882 12.995970719840274 21020.52252298996 13.593160189358326 0.25078162630702044
0.700270874799369 12.991057054275656 18166.127794992273 14.239037089250603 0.25432985261389
0.7225075920171922 12.9879906371143 15723.079046196228 14.912737040220833 0.2579299785189971
0.7450983927826137 12.98665230721028 13628.929446272054 15.615275076042483 0.2615817514733384
0.7680217830820658 12.986763702080877 11831.869290923914 16.347947101531382 0.2652873609867225
0.791270434725503 12.988136349410011 10286.064763535413 17.11235574016673 0.26905135573135497
0.8148466849409963 12.990674102074276 8952.677506457374 17.90995674569698 0.2728761696803741
0.8387328261568114 12.994145610325049 7754.597904766508 18.742093639455256 0.2767626857896248
0.862915199461054 12.998416217318326 6811.290270169395 19.61015516701197 0.2807117777487043
0.8874008652660532 13.00336625043246 5952.761623743013 20.516206966569978 0.2847296160290956
0.9121596827191497 13.008867011283865 5178.117267815314 21.46204410024428 0.28881921583471454
0.9371824172939189 13.01475802191829 4563.125080454455 22.449122829291728 0.29298027140728133
0.9624701971504488 13.020969237121554 4002.589951206887 23.479525385061997 0.2972170343511563
0.9879923782396517 13.027351984301438 3514.8660951334177 24.555648225994027 0.30153538646813133
1.013737295038939 13.033817447394357 3090.7491204990547 25.679400457352365 0.3059367089011768
1.0397049201502255 13.04027584413095 2720.104390598357 26.852811247817794 0.31042276038011796
1.0658594804144093 13.046594916695753 2397.0305248985755 28.07894650436023 0.31500203525651277
1.0921950721421048 13.052733887681303 2114.6177714358905 29.359821177183573 0.31967469927933084
1.1186962982488446 13.058559571059627 1867.4787083187189 30.698273160574324 0.3244459957503281
1.145329224145859 13.064010748469713 1651.254709535117 32.09761945580194 0.3293234186761826
1.17209591524132 13.069023794474056 1461.3369252153223 33.559890267711715 0.3343052407604203
1.1989540213453587 13.07348691690906 1294.712883647098 35.08958770787218 0.33940475221541294
1.225902255601452 13.077351568961818 1148.4553924965676 36.688684173156815 0.34461839958263557
1.252900472369674 13.0805054989537 1019.6173565578077 38.362282809022126 0.34996093148763785
1.2799461974341808 13.082947295630868 906.2072423545111 40.112681366511055 0.3554292517560434
1.3069987371124714 13.084549951799362 806.3534685353146 41.945244786009155 0.3610372941691782
1.3340306718123416 13.085241029226061 718.1230691895083 43.86357056828145 0.3667876219804833
1.3610414991814122 13.085032357237923 640.2535958724146 45.87223659700573 0.3726873671148535
1.3879808025558034 13.083782692456424 571.4394308338566 47.97663461680942 0.378746803275443
1.4148258543793226 13.081455284723528 510.5698202095865 50.18158975387302 0.3849719211109298
1.4415584837598905 13.078010280679715 456.6068182526065 52.49219719230818 0.3913690359868588
1.4681542332213369 13.073408851500206 408.7823093774803 54.914939513896826 0.39795017325168636
1.4945647623356983 13.067534414808 366.3084221444719 57.45601039545696 0.4047244003166379
1.5207774284542592 13.060381400331202 328.66348651000794 60.12204196397049 0.4117014952049872
1.546761663614583 13.051887983489527 295.1141348833729 62.920144269846425 0.4188920050708131
1.572478897174022 13.041999554804129 265.2985250883225 65.85794854003544 0.42630730949676454
1.5978925469536858 13.03065764138673 238.76814785012078 68.94365459479388 0.43395968913021027
1.6230022179939159 13.017843551237052 215.09633534879055 72.18608285961403 0.4418624002856715
1.64774383840873 13.003482577027567 193.96873968448477 75.59473145793505 0.45002975621732166
1.672092527668672 12.987539025511182 175.13182666181046 79.17943457693474 0.45847552738691716
1.6960286785999399 12.969977450694508 158.26298794150594 82.95060868868158 0.4672139113731176
1.7195084317822007 12.950756557755739 143.19177692702115 86.92089394804854 0.47626602117291045
1.7424895352162495 12.929808921309567 129.69703429895398 91.10176058496965 0.4856457494849329
1.7649716157552466 12.907145957912922 117.60087111128662 95.50753766348079 0.4953759482600482
1.7868825470522385 12.882669701417655 106.75857533430322 100.15166806467987 0.5054732273556692
1.8082332870994733 12.856428092428628 97.02594273919274 105.05080606364699 0.5159637677493254
1.8289378172069055 12.82827418763997 88.27261669417574 110.22150600314103 0.5268701259552427
1.8418220405951065 12.800778427934915 82.61761015765144 116.59605070675156 1.379087968077861
