M[M_sun], R[km], Lambda[1], P_c[MeV/fm^3], rho_c[fm^-3]
0.24162668629717493 15.618656898711224 2160425.4255784233 3.5677272577965504 0.1711233750220791
0.2536450297656818 15.277268608873767 1723269.9355952663 3.784839208448245 0.1738884173881484
0.2660418426665465 14.981240720757567 1382934.2729176898 4.011442694735176 0.17666715912370376
0.27881790602766626 14.723468353443169 1116502.1551734798 4.2477931996754466 0.17945826794740408
0.29197373461877946 14.4983470092016 905859.1162377903 4.494516164150803 0.18226831476514857
0.3055108289627574 14.301136335152897 738566.6531102513 4.7517679932546155 0.18509302150118992
0.3194282747404638 14.128073179998648 605022.9390380192 5.02022971255571 0.1879389792047804
0.3337262362978067 13.975960289113623 497674.0522364749 5.300127070009354 0.19080284393307856
0.34841047500405753 13.841947523329198 410957.4278975014 5.5921868008356475 0.19369087410608102
0.36347414837024433 13.723914693250611 340612.20737156266 5.896578581693553 0.19659817687988415
0.37892847986480277 13.619954340366414 283258.9301306936 6.214165551144908 0.19953241299797966
0.39476398170256966 13.528365462198398 236374.32337406784 6.54520282871657 0.20248971976548094
0.41099015997380284 13.447796617540995 197834.75582249204 6.890397470636641 0.2054738868208883
0.4276012186105541 13.376972109599219 166049.96854153686 7.250452638491608 0.20848795126275985
0.4445967830769767 13.314864416412226 139778.88478497698 7.625624128500035 0.21152740855032914
0.4619801545345197 13.260533166701814 117960.02545908834 8.01686735739917 0.21459851914498865
0.4797463473398846 13.213102734668746 99791.96076502881 8.424884587769565 0.21770288376625002
0.4979060666007375 13.171927364103507 84623.91572017166 8.850112513406838 0.22083790932094946
0.5164458957305545 13.136360503178096 71924.64666885746 9.293432858013716 0.22400712181048107
0.5353667934398607 13.10579905991507 61262.83906425095 9.755726787563129 0.2272133844073239
0.5546747745167004 13.079791994463239 52293.04049933312 10.237803123558237 0.23045803518278535
0.5743601390177113 13.057806205592588 44718.54164571331 10.740129923960128 0.23373773046119317
0.5944189273234252 13.039521852617014 38318.320685771345 11.263961355332976 0.23705877516266566
0.6148594599722677 13.024468529384142 32892.36379400824 11.810230495272704 0.24042272270956935
0.6356646865969271 13.01241242461938 28283.59668059431 12.379916699117388 0.24383120668062316
0.6568376042142029 13.003018563823517 24364.00640582208 12.97370066667097 0.24728208253543252
0.678371096845796 12.995972174803814 21021.17856419291 13.59292602512528 0.2507803225433072
0.7002621327237604 12.991056288413784 18166.680677408825 14.238782953362076 0.25432847391429164
0.7224974043564057 12.98800132791221 15723.824228513833 14.912461596148951 0.2579285221423597
0.7450891852156061 12.986642408769905 13629.85652439273 15.614979589255308 0.2615802411408865
0.768012332383764 12.986761842964947 11832.748078372806 16.34762756987434 0.2652857682015535
0.7912582915875516 12.988153457720546 10286.44173311953 17.1120105596151 0.26904967723522033
0.8148371249389263 12.990675736985677 8953.318217488446 17.909584205865997 0.272874402005514
0.8387216899990145 12.994145482054684 7805.048789119647 18.74169539284559 0.2767608560525117
0.8629049112680149 12.998417473940322 6811.697505306656 19.609726034557838 0.2807098525020223
0.887389185390627 13.003375130431968 5953.200885220141 20.51574488239147 0.28472759110457807
0.9121467982106496 13.008857455370027 5209.2199694107385 21.46154685697505 0.28881708678303086
0.9371687860988817 13.014762625105757 4563.461239329636 22.448592498491763 0.2929780687150628
0.9624545920091782 13.020968823573455 4002.9721593306094 23.478955310234866 0.2972147191078976
0.9879784206634412 13.027349258703909 3515.1939030993994 24.555035723219646 0.30153295328537744
1.0137229452943426 13.033805147165028 3090.5134408783 25.678747897846293 0.305934190548367
1.0396896147569343 13.040267656770215 2720.353972174244 26.852110652371568 0.31042011365667804
1.0658445819778353 13.046596047834512 2397.2505445955258 28.078194592727964 0.3149992536084288
1.0921782365986774 13.052723954522206 2114.7383035049284 29.359020614652746 0.3196718177457678
1.1186790162890825 13.058560791956857 1867.6130082375284 30.697414387314936 0.32444296637200853
1.145312026013195 13.06401243385498 1651.3083545455306 32.0967052750991 0.3293202776413308
1.172077968301719 13.069025901455804 1461.3744283292108 33.5589099541106 0.33430193700251
1.198935329562679 13.073477702520385 1294.8440120220334 35.08853663337517 0.3394012765969983
1.2258841236022098 13.077348567780241 1148.5277716673768 36.687565388410235 0.34461479055622724
1.2528817915739345 13.080501860084343 1019.6831651753562 38.361091772746725 0.34995718102858714
1.2799263952391897 13.082943914002712 906.3102054578486 40.11140453834085 0.35542530167624553
1.3069712671203595 13.084523204293069 806.4194189724817 41.943885220628594 0.3610331839970595
1.3340109986653235 13.085239486083752 718.2527751736941 43.86211301923929 0.3667832893909412
1.3610209046042547 13.08502880846505 640.3169029863117 45.87068411893721 0.37268285271951845
1.3879528869216509 13.083767539913804 571.5191717433862 47.97498057712826 0.3787420953445748
1.4148044215187694 13.081461502817511 510.56967930459206 50.17981601117138 0.3849669508884093
1.4415363002492485 13.078015957914424 456.65663446781434 52.49030656293434 0.3913638450269558
1.4681327342807426 13.073414077524427 408.8229180399091 54.9129236243818 0.3979447468396617
1.4945434411675294 13.067540143355831 366.35041068193806 57.453860193972886 0.40471872260006314
1.520755527168058 13.060388438075554 328.69107681635944 60.11974765958534 0.41169554910029743
1.5467396475048758 13.051897233144947 295.1403272916549 62.9176952657168 0.41888577216059875
1.5724567867439043 13.042008951282057 265.33314957651623 65.85533335986202 0.4263007699168065
1.5978708382172864 13.03066783406515 238.79262703932483 68.9408608017818 0.43395282144514724
1.6229688732004113 13.01784481126131 215.1304704512231 72.18309696708795 0.44185518135205704
1.6477213696473902 13.003495434114795 193.98773777533168 75.59153883065366 0.4500221610326791
1.672069552019612 12.98755527287632 175.14173953952024 79.17603599768722 0.458467598540415
1.6960062514224106 12.969994319648581 158.28236409712798 82.94697099005128 0.4672055519522599
1.7194851692810766 12.950777428232112 143.20105574956966 86.91699839905402 0.47625719967108443
1.7424660650860158 12.929822078507916 129.7055702918351 91.09760556430732 0.48563650609336734
1.7649493188008396 12.907167064521905 117.61041854007091 95.50308313299186 0.49536617402550714
1.7868758214753817 12.882726574958278 106.7663971426335 100.14691014532619 0.5054629599721204
1.8082123163010757 12.856455510388281 97.03519784609162 105.04572007671511 0.5159529676454149
1.8289250373961103 12.828321380264136 88.28624268669563 110.21606502974946 0.5268587503272222
1.8489983305121287 12.798329167103137 80.42220509888888 115.67571024532394 0.5382041470447759
1.8683711958428604 12.766382741645014 73.34789203591349 121.4446398708167 0.5500176294156383
1.8870473416088198 12.732552998207234 66.97042421080285 127.54429509265873 0.5623290473295951
1.9049687727096043 12.69672365107634 61.223459706244725 133.9973369234284 0.5751684563624262
1.9221074604820485 12.658893784502043 56.04404812579173 140.8293861330642 0.5885718858986841
1.9384188159179578 12.618991836197216 51.36486495964712 148.06813208550102 0.6025776006744753
1.9539118529491653 12.577132672869487 47.140696433606145 155.74196201377546 0.6172209395154125
1.9685249688757211 12.533193425888047 43.31822338659074 163.88467090366834 0.6325499673975348
1.982235804550427 12.487178925592621 39.85881075136155 172.53020817737564 0.6486067832344532
1.99502012682207 12.439086822088171 36.72716218479769 181.71760059425597 0.6654436081063632
2.006852524926632 12.388912406812853 33.88491433464603 191.48902879342734 0.6831153936390633
2.0176953315130284 12.336623658635597 31.311988842534294 201.89056326605444 0.7016814208132265
2.0275267719236396 12.282228811973164 28.97633764400295 212.97202240623034 0.721203856008581
2.036331415122044 12.225742285905337 26.856025978217733 224.7892737174814 0.7417541895186051
2.044070291053623 12.167134829290967 24.929990619386167 237.40318518084743 0.7634084854154769
2.05072429932197 12.1064103517169 23.176433006566498 250.88084968038066 0.78624996697056
2.05629131468815 12.043647168877381 21.582967027716204 265.2955971237929 0.8103674145108553
2.0607317999865455 11.978782793109541 20.132683216908372 280.7287567988147 0.835859034561136
2.0640300980997566 11.911871766893663 18.811591384909452 297.2706131240929 0.862833437500564
2.0661856315902463 11.842953631627248 17.610225520378453 315.02149314707526 0.8914107573465824
2.0671713256104107 11.77204826973048 16.516000004850472 334.09067777299225 0.9217162217056326
