M[M_sun], R[km], Lambda[1], P_c[MeV/fm^3], rho_c[fm^-3]
0.24162668629717493 15.618656898711224 2160425.4255784233 3.5677272577965504 0.1711233750220791
0.2536444425235449 15.277266929517715 1723265.8777899193 3.784827237893169 0.17388826818095415
0.26604077314679025 14.981232556914893 1383044.0094991028 4.011417530082965 0.17666685502373297
0.27881711114222846 14.723448530939667 1116436.4094373274 4.247753989405855 0.17945781316736545
0.291971365800827 14.4983650502085 905858.7538091632 4.494461879190134 0.18226771028951264
0.3055083852765434 14.301136540193118 738627.3646257031 4.751696790185208 0.18509225237214721
0.3194245357969351 14.12810054640022 605098.3887848707 5.0201410667043485 0.18793805946985834
0.33372422115185707 13.975851540958601 497649.1137701167 5.300018647350835 0.190801752296813
0.3484040188600618 13.842002184311767 410991.07187162654 5.592058330487591 0.1936896311201226
0.36346685083125146 13.723967566287465 340632.7564403779 5.896427177129466 0.1965967548561776
0.37892156277218253 13.62000436346479 283289.09921849373 6.213989379903858 0.19953080652838528
0.3947525637733243 13.528449698773375 236395.30415649572 6.545002073532398 0.20248795941372272
0.4109794432867239 13.44786963714793 197857.74448570353 6.890168255604248 0.2054719347294861
0.42758800932750396 13.377057992857521 166073.1911424599 7.250192812388115 0.2084858017879934
0.44458384408983687 13.314907467969173 139797.66282697496 7.625334409294635 0.21152510219916534
0.4619656511208625 13.260553614888922 117974.49086222825 8.016542691255122 0.21459600758988312
0.4797312776707111 13.213139925789278 99804.69763925011 8.42452244263573 0.2177001609411132
0.4978889013954955 13.171966287149443 84638.30134668932 8.849714224434068 0.2208350255386108
0.5164280795891538 13.136391335156377 71933.74903091048 9.292991979066757 0.2240040179952089
0.5353467558623278 13.105831651763966 61270.29021270652 9.7552403289453 0.22721005385412868
0.5546544378198005 13.07981127250625 52300.58453731388 10.23726894776584 0.23045448418886247
0.574337394822258 13.057843379079507 44726.62102643399 10.739548288653957 0.2337339961823595
0.5943948874914732 13.039513547901304 37988.99330230668 11.263324546610187 0.2370547963702418
0.6148324568379904 13.024511190118961 32898.75537289487 11.809534750629433 0.24041849142131397
0.6356382325318958 13.012444790632275 28289.38354142511 12.379158021293541 0.24382671449293203
0.6568088142119537 13.003023531506058 24368.686077692157 12.9728825396709 0.2472774064569889
0.6783412763065378 12.99597257439905 21025.887715062163 13.592036830191896 0.2507753717441477
0.7002303785052084 12.991063002321985 18171.054431017194 14.237817922075056 0.2543232385724612
0.7224641191980322 12.987999542346609 15727.860330901343 14.911415653678706 0.25792299185024853
0.7450528434980879 12.986643895514455 13632.627883404806 15.61385754087107 0.26157450597383036
0.7679750643188358 12.986760406326415 11753.843447802677 16.346414219066048 0.26527971995209304
0.7912208951715747 12.988137074276533 10287.952247866426 17.110699815908752 0.26904330353243144
0.8147958041351193 12.990671027581174 8955.472931906836 17.908169574958595 0.2728676896830093
0.8386787822888626 12.994132329401864 7806.499209696561 18.740183149535433 0.27675390807695727
0.862858755158539 12.998412426502144 6813.29001471994 19.60809651376504 0.28070254186991
0.8873415098860149 13.00335993485262 5954.701124851199 20.51399024006785 0.28471990198985436
0.9120969566202954 13.008860171712875 5210.5127679184 21.45965871187966 0.28880900229251466
0.9371185919666716 13.014739405461523 4564.691777312963 22.446578716513265 0.29296970461119776
0.9624034247508791 13.020950334683375 4004.0631085675436 23.476790616785852 0.29720592764460807
0.9879249088235924 13.027341455825228 3516.1354388359496 24.552709927700448 0.3015237140038866
1.013667224295413 13.03379239193187 3091.6676117779693 25.676270003845072 0.30592462787820085
1.0396322620047462 13.040254151274514 2721.1184638130835 26.849450363306136 0.3104100635636259
1.0657841656026188 13.046583401892338 2397.907563764885 28.075339453914527 0.31498869120844836
1.0921158954156944 13.052710949260216 2104.940687193633 29.35598074615193 0.31966087608565363
1.1186144073406374 13.058550697585245 1868.345587244577 30.694153491407135 0.32443146335039297
1.145247004261672 13.06399849174902 1651.9042010699013 32.093233995731545 0.32930835066733116
1.1720107524348078 13.06901237798342 1461.8945310491363 33.555187568096926 0.33428939217784986
1.1988683038173282 13.073466911977244 1295.21944982215 35.08454556906178 0.33938807922929387
1.2258137149314297 13.077334289801167 1148.9088227189227 36.68331722881562 0.344601086650976
1.252810175215517 13.08049364504872 1020.0330135638113 38.356569275382384 0.349942940117943
1.2798541292765426 13.082939679922038 906.5790954552339 40.10655629293215 0.35541030282464514
1.30689691512904 13.084523194714164 803.2555071860422 41.93872282537854 0.36101757729411915
1.333935522638763 13.085238811710937 718.4930168293591 43.85657858663148 0.366766838195033
1.3609437594897114 13.085033729821797 640.5323749639842 45.86478924688755 0.37266571123235587
1.3878756666852505 13.083775510708524 571.713493182316 47.96870008324466 0.37872421903159453
1.414732819203669 13.081478169285875 510.75391843179614 50.17308101722658 0.38494807869316433
1.4414562021492638 13.078026924460694 456.81023136798785 52.48312776196858 0.3913441347291681
1.468050572233988 13.07342680077119 408.9488779313126 54.905269224640705 0.39792414257217246
1.4944601307632182 13.067561018552887 366.4676561182101 57.44569582829119 0.4046971641764935
1.5206726590725275 13.060413471969248 328.79082132777586 60.11103615477915 0.4116729716603037
1.5466561586306298 13.051925422223608 295.2408276779118 62.90839638896351 0.41886210577996813
1.5723720790653575 13.042042867112825 265.42139837873816 65.84540353950408 0.4262759391786188
1.5977974675037645 13.03071343820043 238.88930629416558 68.93025281968109 0.43392674496778955
1.622883458658391 13.017890431875824 215.1940436708072 72.1717596192999 0.44182777126936634
1.6476354814915142 13.003550755997807 194.0667843755593 75.57941655279427 0.4499933224209292
1.6719849438774663 12.987616052177888 175.19539960725228 79.16313176101575 0.45843749310389453
1.6959219526287794 12.970063368625306 158.3423384071355 82.93315887182425 0.46717381174480155
1.719400932126084 12.950849589294274 143.25283242878663 86.90220728587835 0.4762237050771077
1.7423842017673523 12.929906705828872 129.75804435824423 91.08182929995334 0.4856014097122139
1.764866596907435 12.907262715890534 117.66339981590004 95.48616971157209 0.4953290622023287
1.7867930293988366 12.88282141072624 106.80567229383335 100.12884483899282 0.5054239758247941
1.8081315747684577 12.85655997755073 97.06923916823112 105.02640919201872 0.5159119609412849
1.8288409242576253 12.828422959956058 88.31774877273322 110.19540636889779 0.5268155585627454
1.848920389042212 12.798454884447317 80.44864351584307 115.65350782081622 0.5381582844972107
1.8682960421146748 12.76651470425318 73.3731697972843 121.42085328152115 0.5499692086366451
1.8869748382664455 12.732690837705224 66.99711928073567 127.51888121979995 0.5622781834751799
1.9048973447363629 12.696874258022717 61.24793569738518 133.97006247406728 0.5751146081307459
1.922038250840223 12.6590548501816 56.06578270839041 140.80009114504298 0.588514808121698
1.9383521666755696 12.619164754616447 51.38408207760035 148.03664109308286 0.6025170261837844
1.953847379000685 12.577318872621754 47.15641400356306 155.7081860427373 0.6171569306692728
1.9684633485542604 12.533387182880166 43.33117640050078 163.8484052351723 0.6324822228273954
1.9821774052215266 12.48738254618409 39.87306950671969 172.4911188243338 0.6485346090180029
1.9949667766927335 12.43930582868282 36.7397144040208 181.6755458316375 0.6653670047731314
2.0068023991563284 12.389142719347094 33.89901793997548 191.4437354698841 0.6830339692881179
2.0176482045631223 12.33686572699427 31.32270928546347 201.84173006039185 0.701594746690174
2.0274835000131155 12.282479882293165 28.987063156066114 212.9194397397162 0.7211118657794355
2.0362925379411423 12.226011380587337 26.865639138716976 224.73245478425974 0.7416559766398645
2.044036738163216 12.167413684316687 24.938581170128778 237.34185312364139 0.7633039086238819
2.0506950653145117 12.106704292868306 23.184005159046386 250.8145612988623 0.7861384288730786
2.056267427972921 12.04395601132229 21.590611793371465 265.2237703992619 0.8102479642918046
2.0607133206562795 11.979103756057016 20.139053441075422 280.6510261371789 0.8357315381844003
2.064017329751319 11.912207046936333 18.818906968517705 297.1862803559389 0.862696803305315
2.0661783774906186 11.84330195024282 17.616552831773514 314.929880924741 0.8912641041973625
2.067169300756154 11.772406200878363 16.521891188884343 333.9911817417998 0.9215590756720511
