M[M_sun], R[km], Lambda[1], P_c[MeV/fm^3], rho_c[fm^-3]
0.24162668629717493 15.618656898711224 2160425.4255784233 3.5677272577965504 0.1711233750220791
0.2536420362269192 15.277348654276581 1723149.2669327443 3.784802848323428 0.17388796417673325
0.26603788119368377 14.981276906474456 1383035.0988123885 4.011366258370618 0.17666623543534773
0.27881124621763814 14.72362468303763 1116484.9424246734 4.24767410098089 0.17945688658202513
0.29196488551595257 14.498512383669837 905990.3327113172 4.494351277752572 0.18226647871683613
0.3054998911058644 14.301270828432934 738693.665995215 4.751551720344367 0.18509068534099618
0.3194147132124799 14.128198833644111 605167.3868762825 5.019960459877261 0.1879361856043195
0.3337110532906496 13.976060349256475 497738.14755097835 5.299797748709261 0.19079952821402948
0.3483909676853723 13.842063538965856 411040.06007242796 5.591796588542288 0.19368709869479908
0.36345197403106977 13.724070427477619 340695.25102305703 5.896118711556379 0.19659385768223692
0.37890369999047335 13.620084967146417 283344.1485583196 6.213630457906459 0.1995275335919392
0.39473513092574425 13.528528469660763 236449.71583848147 6.544593067803371 0.20248437298601882
0.41095742545129627 13.44795235292921 197895.59550052992 6.889701270423072 0.20546795768772047
0.4275646469605854 13.377124759715835 166112.76620009396 7.249663465724332 0.20848142263870384
0.444557505233959 13.314985758546147 139830.56948197368 7.624744164243705 0.2115204034690336
0.4619369673405439 13.26063231159746 118002.9198203757 8.015881252692164 0.21459089082784855
0.47969972667231475 13.213215135819063 99835.89679634775 8.423784652892227 0.21769461379365318
0.4978541944647837 13.172046422834768 84664.89001738161 8.848902803884247 0.22082915050713678
0.5163898938043092 13.136460425785064 71956.37887387333 9.292093796615411 0.22399769473475625
0.5353069750031643 13.105893289053801 61291.70668399284 9.75424929484273 0.22720326871007757
0.554611442179595 13.079844870639533 52313.103984552006 10.23617860223074 0.2304472229129439
0.574291652163747 13.057875348481407 44743.14221487487 10.738363369249127 0.2337263886327384
0.5943454181606559 13.039556292487777 38337.406319964975 11.262027234188475 0.23704669073875437
0.6147801204376071 13.024528484127483 32910.65700070517 11.808117381500898 0.2404098714521843
0.6355796311138994 13.01245466909165 28303.05340553999 12.377612453659223 0.24381756307228353
0.6567496809245537 13.003035794283113 24378.43938444347 12.971215871007955 0.24726788046236114
0.6782794470228715 12.995985547359542 21034.486109558427 13.590225393911764 0.25076528615225274
0.7001647425071521 12.991072932471258 18042.600446792603 14.23585200582775 0.254312573380873
0.7223949010780402 12.988013742640078 15735.237989393192 14.909284921088805 0.25791172586385996
0.7449813638222645 12.98665433595246 13639.402967326616 15.611571780527079 0.26156282268315667
0.7678983888636184 12.986746934332349 11758.283800896754 16.343942477704548 0.2652673989413401
0.7911408761098118 12.988128938761442 10292.846693183748 17.108029688733126 0.26903031960815726
0.814712090423685 12.99065801012689 8959.480373046812 17.90528783476451 0.27285401603184267
0.8385913727347357 12.994127488252634 7810.208673608795 18.7371025778233 0.2767397544438706
0.8627687330693361 12.998386105601071 6817.139726923271 19.604777056663103 0.28068764955936565
0.8872421698276967 13.00334059611397 5958.0016771139 20.51041592160477 0.2847042387721423
0.9119993091780417 13.008825768006487 5213.2149638666515 21.455812462108586 0.28879253376481884
0.937015818561638 13.014719132102426 4567.117100263906 22.44247655722234 0.29295266657691854
0.9622921695796005 13.020914428653334 4006.6741511639552 23.47238107033204 0.29718801916625526
0.9878142508819192 13.027309313539599 3518.144490611146 24.547972239468567 0.30150489341762754
1.0135529259721632 13.03377465632645 3093.5433700966596 25.671222512396277 0.305905148636608
1.0395128581315138 13.040223086498527 2722.679578523347 26.844031364071668 0.31038959156031476
1.065662882620135 13.046550056592148 2399.3961299205534 28.069523581691666 0.31496717576816097
1.0919907776435926 13.052674037296189 2116.8378246078605 29.34978861290504 0.319638588207954
1.1184867643737335 13.058516599243253 1869.448299837797 30.687511172053703 0.3244080321384622
1.145114495743635 13.063970277720577 1652.8523016017518 32.08616316881788 0.32928405600250427
1.171874581475371 13.06898646968064 1462.836603279131 33.547605296939516 0.3342638391422845
1.1987276277271404 13.07344967529698 1296.0667327194026 35.07641606858754 0.33936119717513813
1.225671119291243 13.077313567753475 1149.5905270386259 36.6746640894589 0.34457317296288836
1.2526648464975054 13.080482656204579 1020.7049081011526 38.34731666978824 0.3499136939148265
1.2797037299028076 13.082923624611286 907.1873834402712 40.09668094731305 0.3553797518044395
1.3067452973073463 13.084515703087574 807.1935832743907 41.928207648161 0.36098578832034817
1.333780311717414 13.08522863867241 718.9108780157907 43.84530569077256 0.36673332931862784
1.360785540177887 13.085038653040879 640.9622795586523 45.8527822519447 0.372630796522089
1.387715261934342 13.083783080619497 572.1179970300798 47.95590770624915 0.3786878077971962
1.414568925650661 13.081498176993904 511.08962828683735 50.15936299273203 0.384909639276773
1.4412913189604306 13.078051139736482 457.10202330897226 52.4685058660315 0.3913039884812759
1.4678844485996199 13.073460040256217 409.23543883358195 54.88967871636818 0.3978821757277946
1.4942920708149563 13.067599273348591 366.725634721755 57.42906672285195 0.4046532541763024
1.520502458353027 13.060466372990794 329.0136915368925 60.09329275391546 0.4116269864284525
1.5464846749636212 13.051986480798913 295.4490673632872 62.88945676465792 0.41881390293034354
1.572200192925417 13.04211583802691 265.61626991018477 65.82517896558483 0.4262253651418442
1.597623067002815 13.030798961778778 239.05286020715798 68.90864714551589 0.43387363403040125
1.6227043450780843 13.017958538113803 215.35614194633905 72.14866857900572 0.44177194451555135
1.6474623873880971 13.003657750357933 194.20884651459056 75.55472700258085 0.4499345865660722
1.6718108155003437 12.987734081613086 175.32955614485246 79.13684974777604 0.45837617746769205
1.6957493684605285 12.970196727085213 158.4559289377007 82.9050279893204 0.4671091670587381
1.7192144506442413 12.950962096669976 143.3654209127502 86.87208273304148 0.4761554877864942
1.7422176306157744 12.930074536428156 129.8591335463521 91.0496985373171 0.48552993059225685
1.7647001709312455 12.907434034029535 117.74724121063315 95.45172323258663 0.4952534789359096
1.786626015683055 12.883014725692313 106.8808846382 100.09205265076687 0.5053445798787866
1.8079669531671902 12.85677301715863 97.14175913993024 104.98708052034937 0.5158284464245589
1.8286793176676026 12.828654528414992 88.37940835501615 110.1533048722707 0.5267274894481114
1.848761625700522 12.798702687598821 80.51095323976097 115.60829096624076 0.5380648820787948
1.8681505535492033 12.766812266534211 73.42458459560017 121.37241055018997 0.5498705969879354
1.8868241790929354 12.732980467151828 67.04782498410964 127.4669639529847 0.5621740224094464
1.9047501711799875 12.69718130332143 61.292581169760176 133.91451739918682 0.5750049449063392
1.9218967630990196 12.659386510225456 56.106322296769015 140.74043172442188 0.588398568882997
1.938215242612421 12.619515100715887 51.4229313321206 147.9725100843437 0.602393666997758
1.953716543333665 12.577698024891554 47.193340006135685 155.6394022856633 0.6170265785642663
1.9683370993138944 12.533784985127701 43.36299148005298 163.7745418219134 0.6323442300221096
1.982061921661547 12.487809489316811 39.900674614733596 172.41151602829802 0.6483876311587125
1.9948556787669207 12.439750139333636 36.76679574432777 181.58990499340786 0.6652110087988186
2.0066930891759154 12.38959726407022 33.92604114470214 191.35150049390953 0.6828681573656162
2.017554168122182 12.337359829696611 31.346337594094372 201.7422875112599 0.7014182459746633
2.027395734791924 12.28299790949007 29.008091754746356 212.8123629355806 0.720924541316802
2.0362149610411766 12.226554549779324 26.885148893182304 224.61675272383937 0.7414559828739524
2.0439672580106123 12.167984672482747 24.95604670790718 237.21696217612728 0.7630909580856925
2.0506359216553385 12.107304100471307 23.20035550984313 250.67944913500298 0.7859108817873532
2.056211783803018 12.044560321339505 21.604999002683652 265.0774184433368 0.8100044261342757
2.0606755337609814 11.97975642864964 20.15267151042742 280.4927480340592 0.8354719252563781
2.0639965194578607 11.91289918164966 18.831834068527936 297.01456092767086 0.8624185870626422
2.066161126149294 11.844010483888729 17.627587969334225 314.74334138964326 0.8909654910911738
2.0671658804287967 11.773145629406221 16.531752826637227 333.78859188179763 0.9212391011709414
