M[M_sun], R[km], Lambda[1], P_c[MeV/fm^3], rho_c[fm^-3]
0.24162668629717493 15.618656898711224 2160425.4255784233 3.5677272577965504 0.1711233750220791
0.25364507917595847 15.277277788201156 1723225.8595265604 3.784843379816548 0.17388846938224195
0.26604222078519985 14.981228197315682 1382989.7729053344 4.01145146386487 0.17666726509346092
0.2788191605941334 14.723449897450328 1116455.6298062415 4.24780686332324 0.17945842642512783
0.29197466315716736 14.49835069117104 905829.0700069097 4.494535080947429 0.18226852540806937
0.305511488884388 14.301148207829561 738555.6373360457 4.751792805612529 0.18509328952201046
0.31942967824908497 14.12805732017715 605030.9175269996 5.020260603339153 0.18793929970858136
0.33372992197450135 13.97583629170351 497625.92645309365 5.300164852604293 0.19080322434111693
0.3484127058700318 13.841926267238533 410942.8734557399 5.592231569668397 0.19369130725685335
0.36347795864009624 13.723871715647558 340624.39583202574 5.896631342695273 0.19659867242237772
0.37893230518629084 13.619909557573498 279331.1709253086 6.214226942930513 0.19953297281714386
0.3947661359347847 13.528361503042381 236351.11190429117 6.545272787637737 0.2024903332107097
0.41099382314355265 13.44778023230381 197823.06540594713 6.890477347424753 0.20547456708513487
0.4276038881323963 13.376972631095834 166040.62696614082 7.250543182857897 0.20848870031309763
0.4446019197941077 13.314832889264052 139768.328721972 7.6257250902741145 0.21152821227096905
0.46198274372001513 13.260492542711598 117943.59203557708 8.016980497829865 0.21459939437769018
0.47975198121708323 13.213097553170494 99792.1221337045 8.425010789296701 0.21770383262530757
0.49791197264757625 13.171914742921377 84620.60200453966 8.850251310775608 0.2208389142732029
0.516452886661995 13.13633528902299 71920.48422593562 9.293586497705716 0.22400820344349107
0.5353731345847135 13.105802741583705 61257.288060346946 9.755896311520397 0.2272145450580696
0.5546826894542569 13.0797556917099 52287.39756668558 10.237987823142218 0.23045925396668415
0.5743676523032972 13.05781505375545 44716.3561732507 10.740332616611845 0.23373903181080352
0.5944277739220954 13.039487445361033 38315.22100420558 11.26418327579451 0.23706016172572525
0.6148679412341532 13.024484918490788 32890.79846369137 11.810472954833134 0.2404241972682316
0.6356747679518556 13.012404907151314 28282.217679481702 12.380181090886019 0.2438327721639039
0.6568475186035692 13.002994782600924 24362.19686180016 12.973985776499894 0.24728371210629987
0.6783821347788244 12.995962363276172 21019.797611979586 13.593235902263405 0.25078204785619124
0.7002733674833963 12.991054925197904 18165.28213717401 14.239119259694327 0.25433029839255755
0.7225112574659952 12.98799922214464 15724.008945817752 14.912826100355115 0.2579304494134986
0.745101442502464 12.986644712003569 13628.564513218866 15.61537061669781 0.2615822398137938
0.7680250248962723 12.986761085093745 11831.382579271103 16.348050416756113 0.26528787598720543
0.7912730958893914 12.988143453479369 10285.740690080735 17.112467348606202 0.26905189844540234
0.814849690877926 12.990677317961532 8952.278845312021 17.910077200387352 0.27287674122926703
0.8387366550321276 12.994142796721457 7804.227369779176 18.742222406083055 0.27676327740565393
0.8629187086701113 12.998419847981127 6810.86824770966 19.610293920171777 0.28071240024662536
0.8874053689651435 13.003368402076923 5952.7867868747035 20.5163563742453 0.2847302707566949
0.9121636171212817 13.00886229330774 5208.6960421103095 21.462204876167704 0.28881990423066
0.937187245230368 13.014763511655078 4563.050609508623 22.44929430364945 0.2929809836141406
0.9624738933952183 13.020970975232242 4002.617792277479 23.47970971016762 0.2972177829501786
0.9879977755661541 13.027351028111278 3514.864668577358 24.555846269671548 0.3015361732016464
1.0137434844179056 13.033807774175653 3090.650435525413 25.67961145289534 0.3059375231736126
1.03971010224243 13.04027117679347 2720.068411161935 26.853037775233393 0.3104236161599034
1.0658638807140297 13.046596368233201 2396.928208112661 28.079189624292205 0.3150029346628578
1.092200372281266 13.052732718975154 2114.7065557732067 29.36008002783752 0.3196756309827499
1.1187002444919105 13.058561659456222 1867.3962147605373 30.698550833046685 0.3244469752579671
1.1453341165238577 13.064013748880356 1651.0099081391247 32.09791504367568 0.32932443428700253
1.172100612147009 13.069029402047098 1461.2286535297467 33.560207238986195 0.33430630898629643
1.198958938066246 13.07348361861933 1294.6926050447476 35.08992755898331 0.3394058760109036
1.22590846919568 13.077351829772667 1148.406109634096 36.68904591770241 0.3446195665145428
1.252906900693852 13.080505269947384 1019.5968658318873 38.36266791539632 0.3499621441506914
1.2799514267626177 13.082944266050806 906.1828992350306 40.11309421291244 0.35543052896488625
1.307004515050594 13.084549483689456 806.3395443726249 41.94568438472621 0.3610386231426988
1.3340380240153356 13.085239048421649 718.1540767404333 43.864041849176026 0.36678902287103055
1.3610472853112416 13.085030550319814 640.2554645520985 45.87273857238005 0.3726888267910538
1.387988139953805 13.083784981568071 571.4275244902753 47.977169431278995 0.37874832553006527
1.4148335467234991 13.081456094608441 510.55659657420404 50.182163273388156 0.3849735281758144
1.44156540660258 13.07801072265821 456.60206943446127 52.49280850621669 0.391370714425812
1.4681612112492772 13.073407979283807 408.77210404309875 54.91559132972881 0.3979519278226795
1.494572070390869 13.067533914651172 366.3108373924266 57.45670564009079 0.40472623614551734
1.5207845231687724 13.06037930263279 328.6510805661039 60.12278380327482 0.4117034178156901
1.546768897623006 13.051887111277807 295.1037888076949 62.92093613028265 0.418894020418579
1.572486282866492 13.04199517280533 265.29825310472893 65.8587941324389 0.4263094240046637
1.5979004803776264 13.030652303971209 238.7643365163238 68.94455794057889 0.4339619097293483
1.6230084000577534 13.017841060143978 215.087774633015 72.18704831967642 0.4418647344594694
1.6477511230480102 13.003478610435378 193.96376363806758 75.59576376456388 0.45003221205032773
1.6720992509877879 12.987535182127331 175.12814306317205 79.18053347699994 0.4584780911081971
1.6960360409360165 12.969972058249152 158.2597070267962 82.95178490685757 0.4672166143190603
1.7195156236212574 12.950750255167002 143.1873469598226 86.92215354099997 0.47626887353121394
1.7424978286870265 12.929801553866932 129.69657036377134 91.1031040769248 0.4856487382600115
1.7649785170941157 12.907137335842407 117.59812013947507 95.50897800081832 0.4953791086817784
1.7868898110816391 12.882661255164482 106.75425578652131 100.15320650166782 0.505476547235946
1.8082411103685962 12.856419829682308 97.02225868321905 105.05245058016978 0.5159672598836086
1.8289447909786376 12.828265120582765 88.27391947646566 110.22326530345593 0.5268738041842137
1.8490251228859937 12.798288150330315 80.41591790340648 115.68344860590703 0.5382201318274377
1.8683969850162505 12.76633756826241 73.33457173609058 121.45293040067713 0.5500345058962939
1.8870728775790861 12.732503618204744 66.96124055080121 127.55315282113364 0.5623467753718381
1.904993475800232 12.696670615020642 61.21485543922142 134.00684317189516 0.5751872246485634
1.9221328284939827 12.658835680733254 56.03791345727347 140.83959666123474 0.588591779890428
1.9384419870264042 12.618930477978177 51.3572869635347 148.0791080577151 0.6025987135031178
1.9539344489399892 12.577069499270067 47.13173273942399 155.75373444403152 0.6172432494491846
1.9685463327101649 12.533126450838708 43.313366206687924 163.89731115375938 0.6325735794897526
1.982256273053583 12.487107148193743 39.854746772697844 172.54383267228076 0.6486319393746239
1.9950390178376638 12.439007386639778 36.721972915714325 181.73225873684203 0.6654703081163303
2.006871969603285 12.388830967206 33.88272851045157 191.50481580195114 0.6831437741336233
2.0177133222371335 12.336538010103897 31.309582496713443 201.90758417928538 0.7017116312552368
2.027542325061194 12.282140887092073 28.973324357965765 212.99035028073618 0.7212359195285071
2.0363450576332043 12.225649777972773 26.853208278396952 224.80907825447426 0.7417884221322764
2.0440822481649277 12.167037076916683 24.92699445242282 237.42456289116026 0.7634449363753503
2.0507341328199704 12.106308610024001 23.174206847163266 250.90395506464705 0.7862888445316594
2.056300100019583 12.043540621182528 21.580108884559717 265.32060158414555 0.8104089475179078
2.0607398850383607 11.978673173739478 20.13125856300903 280.75585076976887 0.8359034749795673
2.0640355218307698 11.911753298469483 18.810050773947047 297.30000850199286 0.8628810632798585
2.066185061204085 11.842827999624518 17.609177066501253 315.0534260646215 0.8914618756668523
2.067172157214183 11.771922503802697 16.513695494248797 334.12535891516205 0.9217709977993798
