M[M_sun], R[km], Lambda[1], P_c[MeV/fm^3], rho_c[fm^-3]
0.24162668629717493 15.618656898711224 2160425.4255784233 3.5677272577965504 0.1711233750220791
0.2536411983631187 15.277349772333965 1723166.1773835253 3.7847860953866537 0.17388775535945825
0.26603632378755354 14.981309046550725 1383036.3363546596 4.011331040646786 0.1766658098499393
0.2788085920315828 14.72365611580658 1116539.8620924924 4.247619227301022 0.17945625013003152
0.2919617415326668 14.498512832507798 906008.633679039 4.494275308501425 0.18226563278159308
0.30549416986213906 14.301379456353693 738744.4518194483 4.7514520763769 0.18508960899597415
0.319408061881741 14.12827923804996 605244.4565665366 5.019836407521245 0.18793489851324602
0.33370291743610847 13.976181432856396 497822.8763706955 5.2996460224388615 0.19079800058224597
0.3483820218569532 13.842135231881567 411088.6164897269 5.591616809874761 0.19368535928673533
0.3634433438523399 13.724110871175991 340737.056570877 5.895906842034377 0.1965918677588499
0.37889294390010164 13.620135847591484 283385.41547276615 6.213383934114625 0.19952528559179164
0.3947210828308175 13.52860946507124 236487.8929411552 6.544312146034968 0.20248190968161664
0.4109428342787865 13.4480372026183 197935.04407548322 6.8893805281975995 0.2054652261123341
0.4275471058780212 13.377202336958725 166146.5581006309 7.249299893854776 0.20847841490180247
0.4445398245962103 13.315043541763984 139858.41760864572 7.624338767916338 0.21151717625359878
0.4619166128371382 13.260708770317134 118030.12173508454 8.015426961758326 0.21458737652019685
0.47967852394198857 13.213259268440433 99852.63331486708 8.423277925609352 0.2176908039128777
0.4978302273046857 13.172096506138228 84678.90581443174 8.848345508889558 0.2208251154532614
0.5163647121831529 13.136504999766677 71971.68524194811 9.291476916374096 0.2239933518593994
0.5352793995971923 13.105931889958208 61307.02957098213 9.75356864765113 0.22719860863911634
0.5545817753267505 13.079903215943348 52329.026504912064 10.235429752327596 0.23044223586471624
0.5742593283924896 13.057909551786928 44753.50294091234 10.73754957051246 0.2337211637927657
0.5943120616109943 13.039610054908463 38349.05519967659 11.261136250050704 0.23704112385373807
0.6147443707941853 13.02456106509269 32920.08230310978 11.807143949622196 0.24040395136222656
0.6355417585436023 13.012469285645798 28310.92201479345 12.376550983445508 0.24381127802838387
0.6567080552957939 13.003068603869943 24385.73719696585 12.970071236821283 0.24726133820272947
0.6782358489247837 12.996008976427408 21041.05540421768 13.588981344245571 0.2507583596170122
0.7001190853613876 12.991068382854495 18183.464981436184 14.234501871805707 0.2543052488379101
0.7223476717035402 12.988015378570365 15738.700751381919 14.907821605409982 0.257903988762265
0.7449312372127147 12.986642226840768 13546.683294883633 15.610002005336032 0.26155479903365303
0.7678457453958805 12.986749091937869 11843.413236713568 16.34224498858218 0.26525893738381007
0.791083705092154 12.988127067221676 10295.865513200279 17.10619596831433 0.2690214028467105
0.8146528570598974 12.99066086516919 8962.602724178078 17.903308801075795 0.27284462565849743
0.8385298216620077 12.994110453583925 7812.405656423098 18.73498700787635 0.27673003449458966
0.8627060622292888 12.998387669650517 6819.683829379767 19.602497447988064 0.2806774223929147
0.8871773655944593 13.003320179928112 5960.213448308176 20.50796130513133 0.2846934822621614
0.9119313938452769 13.008820107625635 5215.185111951964 21.45317111774142 0.2887812242931376
0.936945553480507 13.014705993506118 4568.782108810051 22.43965948652662 0.29294096606904535
0.9622186191164906 13.02091204028306 4007.797863085358 23.46935292816238 0.2971757209811555
0.9877383105783806 13.027296491850942 3519.466924217877 24.544718776195328 0.3014919689525345
1.0134757425792187 13.033754196232449 3094.5350399707913 25.66775631998113 0.305891771932527
1.0394331573678461 13.040208174303098 2723.775757538802 26.840310076646936 0.3103755332065147
1.0655816933836024 13.046536914593625 2400.2284419628854 28.065529784529502 0.314952400975822
1.0919047460680331 13.052658088722096 2117.529337912677 29.345536458480407 0.3196232830628614
1.1183972371639423 13.05850028279777 1870.2248278489765 30.682949905472743 0.3243919419750351
1.1450233378494008 13.063960821262945 1653.412301890044 32.08130767454443 0.32926737300242764
1.171781092910685 13.068970100063225 1463.4180178095605 33.54239863408877 0.3342462921516481
1.1986318324975114 13.073437256612129 1296.6209608354504 35.07083366961423 0.3393427376951252
1.2255736085951199 13.077303687462443 1150.0554913326039 36.66872215096728 0.3445540051891067
1.2525635032921743 13.080472099070892 1021.1307882523091 38.34094684381223 0.3498935157025392
1.2796012094861478 13.08291527084604 907.5904286813945 40.08989983536308 0.3553587733094894
1.306640145354141 13.084517472931909 807.4694604898244 41.92098722699826 0.36096395989328417
1.3336738343738284 13.085233571007244 719.2855896697483 43.83756502905506 0.366710320068828
1.3606767275872071 13.085041990533659 641.1939736598614 45.844537565326284 0.3726068220933587
1.3876049541871311 13.083789621675551 572.360878492872 47.9471237886065 0.37866280593207485
1.4144569314051854 13.081512757563104 511.33479482553815 50.14994355270815 0.38488324496778237
1.4411857973105402 13.078089051719651 457.324009290831 52.45846585311517 0.39127642236747545
1.467769364591352 13.073482672859445 409.4205232527215 54.87897368686398 0.39785335971362684
1.4941762196069297 13.067628666893606 366.9015954820497 57.41764863367514 0.4046231041300616
1.5203861858838694 13.060498231542004 329.17376695902186 60.081109640389386 0.41159541168669533
1.5463669401907956 13.052027868845908 295.59354473750494 62.87645238616736 0.4187808057531911
1.572082282586004 13.042161889533071 265.74578269464155 65.81129241550765 0.42619064011391145
1.5975040043172202 13.030855107073402 239.17076657877465 68.89381242141607 0.4338371674014586
1.6225916063256787 13.018053106140009 215.4663505699634 72.13281410858364 0.44173361347434037
1.6473441241218987 13.003729929836899 194.31017245976173 75.53777512031095 0.4498942584398832
1.671692798448995 12.987819583970634 175.4224646808806 79.11880460181241 0.4583340783486088
1.6956313283510966 12.97029093967828 158.5308653131332 82.88571357870309 0.46706478259939227
1.719095173233475 12.95106705694906 143.45052365177145 86.8513996652608 0.47610865081423387
1.7421000567299714 12.93018653567375 129.92404421452326 91.0276382019628 0.4854808544662111
1.7645858505416305 12.907568830017235 117.80216662172322 95.4280731881625 0.49520158545764476
1.7865115726852645 12.883149518785544 106.9332537713862 100.06679230678024 0.5052900691523523
1.8078529445447489 12.856918967338792 97.18880471380852 104.96007893139195 0.5157711084938102
1.8285784249568597 12.828834705085981 88.43012970598988 110.12430500719994 0.5266666721365645
1.848653287007715 12.798873526011704 80.5554207140118 115.57724735121974 0.5380007566824893
1.8680435404529325 12.766996869213903 73.46135395012361 121.33915251376355 0.5498028958134819
1.8867198034459602 12.733180405683022 67.07939493716897 127.43130483711936 0.5621024548484337
1.9046493177958341 12.697392618916723 61.32340147277105 133.87638397959074 0.5749296576957349
1.9217990974093941 12.659611892632945 56.1364183468056 140.69947409035737 0.5883187678364383
1.9381270557117218 12.619785029430222 51.449196859849536 147.92848305380258 0.6023089788140308
1.9536214960350462 12.577940083674436 47.21814403400761 155.59218151598535 0.616937090478861
1.9682530990512617 12.534056077920345 43.38632479864691 163.72369290407894 0.6322490187779802
1.9819807212211435 12.48809810626381 39.92143849838159 172.35686904394737 0.6482867314770866
1.9947784658210344 12.440054391129726 36.78410313418706 181.5311135489959 0.6651039193676327
2.006621708266923 12.389919210358572 33.94221336991046 191.28818295527668 0.6827543306670363
2.0174868075610877 12.337699448350032 31.360780122048535 201.67402290094262 0.7012970830250987
2.027337071670787 12.283357355493562 29.02234663603371 212.73885842441643 0.7207959495721554
2.0361608645494695 12.226929744768645 26.898321368238676 224.537328261993 0.7413186958008228
2.04391934874834 12.168380614172552 24.967593761859142 237.13123096551286 0.7629447784961917
2.0505949502595806 12.10771476844645 23.2118414621381 250.58660601356718 0.7857543692707697
2.0561780274682273 12.04498967228883 21.61455200845317 264.9769579999977 0.8098372541199307
2.060647875795744 11.980206105140539 20.16178052271727 280.3840015472142 0.835293391687592
2.0639767754541136 11.913367308674143 18.84011889688594 296.896690623276 0.8622276160493899
2.0661500739198626 11.844497029854276 17.635839309993877 314.61530025373725 0.8907605224163415
2.067163097211227 11.773653311467704 16.539842462202973 333.6495357699957 0.9210194731500742
