M[M_sun], R[km], Lambda[1], P_c[MeV/fm^3], rho_c[fm^-3]
0.24162668629717493 15.618656898711224 2160425.4255784233 3.5677272577965504 0.1711233750220791
0.2536448127519554 15.27727076192401 1723197.6182336165 3.7848350865054674 0.17388836601012014
0.26604096692426726 14.98124742313439 1382976.6671047427 4.01143402952221 0.17666705440971894
0.2788167713909707 14.723530110286204 1116363.1068509254 4.247779697966139 0.17945811134792275
0.2919727532211543 14.498356578295791 905820.6374717052 4.494497471579144 0.18226810661902482
0.305509245997333 14.301162498795142 738572.5450083069 4.751743475039444 0.18509275665767233
0.3194277567361149 14.128061289379128 605054.4546947674 5.020199188015668 0.18793866250089605
0.33372708432365095 13.975854029264164 497649.23670558224 5.300089735421651 0.1908024680357297
0.3484082436896856 13.841966486048307 410968.8420752511 5.592142562909143 0.19369044609197267
0.36347243894367715 13.723917877941433 340647.1504470975 5.896526446449588 0.19659768721463985
0.37892668198626744 13.619941156411114 283268.4404526871 6.214104887565292 0.19953185981917726
0.394760359065146 13.528394958255165 236382.30068387667 6.545133699710067 0.20248911359748262
0.4109864710799411 13.447813534831282 197836.75524864663 6.890318541526251 0.2054732146274629
0.4275956265147831 13.377007250663532 166060.23253333228 7.2503631684881436 0.2084872111003504
0.44459151850556444 13.31488077792592 139780.6364596034 7.625524364819671 0.21152661436728562
0.46197515868164035 13.260520573921058 117963.91728382543 8.016755559734248 0.21459765429966596
0.4797414996179494 13.213130095604855 99795.61553194423 8.424759884186034 0.2177019461696343
0.4978995252224459 13.171979637108043 84630.10977232373 8.84997536364884 0.22083691629810195
0.5164396995113761 13.13636528234934 71927.38971926499 9.293281042320547 0.22400605301853657
0.5353597034118681 13.10581095762689 61263.38477681976 9.755559276402057 0.22721223753724637
0.5546676263212982 13.079798753797965 52295.229081128055 10.237619858707973 0.23045682111884627
0.5743524383611791 13.05781350880599 44721.16689181696 10.73992963841289 0.23373644456593923
0.5944109160074321 13.039521562268549 38321.9136759793 11.263742070603751 0.2370574050677092
0.6148498160576009 13.024479083092837 32894.804480762 11.80999091569736 0.24042126566602157
0.6356558859996988 13.012427083634519 28285.737889680116 12.379655448188522 0.24382965979448776
0.656827646419961 13.003003566170683 24365.07105452137 12.973418944109692 0.24728047232479802
0.6783607713373523 12.995979764821966 21023.18501224829 13.592619829900537 0.25077861773033044
0.7002516087016929 12.991043369410532 18168.232995512182 14.238450643400947 0.2543266711165341
0.7224877077144108 12.987995506163708 15725.302665791767 14.912101423859669 0.2579266177756983
0.7450767729449606 12.986639009149416 13630.586126887714 15.614593209356931 0.2615782662231419
0.7679990242574977 12.986764944129012 11833.442035877804 16.347209749267275 0.2652836854706203
0.7912463460665626 12.988145404449872 10286.232037302345 17.111559200946846 0.26904748243085946
0.8148231991572559 12.99067336637254 8953.913058822014 17.909097072715756 0.2728720905935478
0.8387069751641132 12.994136322441703 7805.694566462974 18.741174645994082 0.2767584634901707
0.86288925795243 12.998415937024026 6812.200339782479 19.60916490205363 0.2807073350543637
0.8873714407941719 13.003375596139309 5953.744446442509 20.51514066299527 0.2847249433214982
0.9121249484559495 13.008872385303352 5209.3869856957435 21.46089666445082 0.28881430284692944
0.9371522662941713 13.014745231651666 4563.7963109891725 22.447899041551437 0.29297518848972726
0.9624376373037496 13.02096606027365 4003.390507903858 23.4782098851514 0.2972116917151463
0.9879597366865771 13.02734594631065 3515.426809709085 24.55423482065534 0.30152977167969575
1.013703979768253 13.033801021871964 3090.937492335906 25.67789461831409 0.30593089757831987
1.0396703401736964 13.040260083281169 2720.581544938611 26.85119456268013 0.31041665283478365
1.0658230349548277 13.046584855742696 2397.467464655171 28.077211403836852 0.3149956163651973
1.0921553107455328 13.052723653684525 2114.9581975001565 29.357973811571146 0.3196680498974144
1.1186569487283047 13.058552884260568 1867.851101090758 30.696291470178558 0.3244390052090467
1.1452896853365757 13.064006255745134 1651.5651299026154 32.0955099093423 0.32931617048232925
1.172055252958482 13.06901478872955 1461.571998735433 33.55762811581601 0.33429761707529415
1.1989128652245702 13.073473929092252 1294.9928059314648 35.08716227131367 0.3393967319542513
1.2258597738715784 13.077341475816146 1148.666236241101 36.6861024914285 0.3446100714770157
1.252857863992824 13.080501501858002 1019.8847145665421 38.359534402987386 0.3499522770205146
1.2799012044338245 13.08294095717166 906.4066664460065 40.10973499141697 0.3554201366558226
1.306946901680342 13.084525159302741 806.5368732975746 41.94210749064256 0.3610278096499868
1.3339845524326017 13.08523704822692 718.3328778713521 43.86020717112713 0.36677762422471977
1.360993736155077 13.085031685593421 640.3446658988881 45.868654146720196 0.37267694983606225
1.3879273320392842 13.08377146448047 571.5889433955446 47.97281780857671 0.3787359394071202
1.414777791958851 13.08145958011647 510.63800264962344 50.17749672613907 0.3849604519961583
1.4415082194863453 13.078020889545643 456.6781594690634 52.48783444385197 0.39135705751417865
1.4681045191973308 13.07341726919204 408.8702122554153 54.910287722843925 0.3979376514667783
1.494515330363474 13.067547608834907 366.3971300160113 57.451048674633725 0.4047112986399968
1.5207268671164402 13.060396742297359 328.72433351721037 60.11674772073794 0.41168777421629993
1.5467112780693124 13.051906233606852 295.1831690183318 62.91449305194666 0.41887762227196645
1.5724275190502104 13.042019948325791 265.3626848020868 65.85191386589139 0.4262922190511857
1.5978414236401823 13.030682253776138 238.8241102333711 68.93720776651718 0.43394384157598265
1.6229390842902556 13.017859282941451 215.15696748296483 72.17919275675507 0.4418457422195486
1.6476913431481308 13.003514511340489 194.02600950597852 75.58736430977271 0.4500122299464325
1.6720401624240673 12.987577206358267 175.16178020021337 79.1715921896351 0.4584572311870699
1.6959768925970775 12.97001796513379 158.30292651662083 82.94221452885054 0.46719462161827363
1.7194574639100075 12.95080075683382 143.22361961918716 86.9119047942274 0.4762456651622534
1.7424336506763343 12.929824591496159 129.73591518742248 91.09217269588538 0.4856244199608955
1.764921556611983 12.907198471339104 117.63513462048667 95.49725865194829 0.49535339381355414
1.7868474851164025 12.882758937321933 106.78320852469376 100.14068897974013 0.5054495349666834
1.8081847456851332 12.856491989084098 97.04779402633187 105.0390699596884 0.5159388461079695
1.828897645878246 12.82835953206742 88.29927839068932 110.20895076549786 0.5268438762931216
1.8489719356762033 12.798371668767018 80.43276818279767 115.66806433737234 0.5381883532373479
1.8683466393286243 12.766426904668744 73.35808877796747 121.43644840558143 0.5500009545942565
1.8870215270533683 12.73260094211179 66.97965634410859 127.53554322079927 0.562311531150987
1.904944061510182 12.696775458471606 61.23299349003182 133.98794430032714 0.5751499124080407
1.9220838121298278 12.658949318801408 56.05097624172845 140.81929766875314 0.5885522297337572
1.9383954667709589 12.619051645009305 51.371053086641325 148.05728735049456 0.6025567402871311
1.9538900847112464 12.577199069517228 47.14550013596253 155.7303303662407 0.6171988963789897
1.9685036017858732 12.533256065364846 43.32377584522579 163.87218183934692 0.632526637721591
1.9822157058590932 12.487249166345132 39.86269025755923 172.51674667149956 0.6485819280357036
1.9950014368199827 12.439159836125466 36.730565730155384 181.70311783748343 0.6654172275640872
2.0068351235300024 12.388992269719656 33.890023715886606 191.47343071270762 0.6830873527822826
2.017678709579366 12.336706712496749 31.315845737007553 201.87374608631353 0.7016515719780644
2.027512069561338 12.282314324444846 28.979916395688754 212.9539139491536 0.7211721763463198
2.0363180733563278 12.225834660644596 26.85950223125701 224.76970632531578 0.7417203668154132
2.044058767220973 12.167231039232428 24.93263636489992 237.38206350387813 0.7633724710159739
2.0507144717745507 12.106511957539768 23.17903021392218 250.85802107858393 0.7862115551289335
2.056283606485814 12.043753452491815 21.58631690532293 265.2708914224622 0.8103263764120836
2.0607253695103718 11.978893725364326 20.13498754116103 280.7019875331758 0.8358151267349961
2.064026791167439 11.911987732788546 18.81459361724875 297.2415701148234 0.8627863826215886
2.0661831198299603 11.843073571596786 17.61254663973341 314.9899431091062 0.8913602519412087
2.067170409461911 11.772174059850379 16.517834491292888 334.0564125613985 0.9216621025410061
