M[M_sun], R[km], Lambda[1], P_c[MeV/fm^3], rho_c[fm^-3]
0.24162668629717493 15.618656898711224 2160425.4255784233 3.5677272577965504 0.1711233750220791
0.2536441760755178 15.277292992547535 1723116.3635137938 3.7848221186645423 0.17388820437223892
0.2660397984488462 14.981278439389122 1382905.4009961302 4.0114067684103265 0.17666672497527022
0.2788154910313206 14.723480666424985 1116382.5886724438 4.247737221171729 0.17945761868111876
0.291970145927655 14.498396163240486 905896.2194546383 4.494438664348859 0.18226745178686718
0.3055052388220819 14.301233659296063 738692.2267720959 4.751666340445892 0.18509192345684838
0.3194216320762237 14.128142023876123 605103.3844193489 5.0201031577309845 0.18793766614962817
0.33371983493823165 13.975942130061169 489697.89718342107 5.299972281058917 0.19080128546518899
0.348401266768694 13.84202540407505 411005.5402203717 5.592003391075605 0.19368909956619834
0.3634642734379515 13.723984781061612 340635.6207080407 5.896362430255053 0.19659614673983125
0.3789172560378795 13.620000434843401 283302.28722758364 6.213914041988454 0.19953011953730954
0.39475045904159956 13.528443817743108 236413.033369751 6.544916222759858 0.20248720661842626
0.4109749706168368 13.447864983368774 197869.07353955327 6.8900702345647975 0.2054710999411812
0.4275824122841357 13.377086101496449 166081.18647379964 7.2500817012069705 0.20848488259366713
0.4445780209240241 13.314932911274486 139802.20113102745 7.6252105150381695 0.2115241159212201
0.461959693521154 13.260570119396892 117983.44227262241 8.016403852827112 0.21459493356239642
0.47972384656123634 13.213157613668528 99806.76873311937 8.424367577327686 0.21769899657049444
0.49788200926093396 13.171976910634719 84643.21701682296 8.849543903230838 0.22083379234032677
0.5164197767910653 13.136401994805722 71937.96063694969 9.292803445530891 0.2240026907073627
0.5353380874357555 13.105842890994545 61274.081550035604 9.755032304690445 0.2272086296099663
0.5546441894335841 13.079830193250599 52298.6916326655 10.237040076722 0.2304529599969934
0.5743271805759594 13.05787079289911 44728.57475571408 10.739299565251407 0.23373239930107026
0.5943852909066923 13.039538293626894 38328.33368682909 11.263052230253468 0.2370530949327171
0.614821124940073 13.02452959909404 32901.6218449654 11.809237232501607 0.24041668201469873
0.635625611832898 13.01246092968675 28292.202375374665 12.37883359220338 0.24382479352421557
0.6567954764438888 13.003031623040759 24370.98584839263 12.972532689454866 0.24727540685661686
0.6783293555949178 12.995975210509304 21028.03298193375 13.591656590680664 0.2507732546724214
0.7002164214860322 12.991062780752788 18171.799690274245 14.23740525435445 0.25432099982993667
0.7224498005534505 12.988000964129897 15729.865035570594 14.910968387825024 0.25792062698708196
0.7450383471024964 12.986653050494171 13634.077366657673 15.613377731671479 0.2615720535074721
0.7679590997575043 12.986756858953676 11836.220898043659 16.345895368601724 0.2652771336126606
0.7912038216179524 12.988136516594206 10288.888173334075 17.110139320004386 0.26904057803064835
0.8147814629473301 12.990655258503878 8956.319359990805 17.907564656778113 0.27286481938949664
0.8386602130730841 12.994127934563242 7807.424420483632 18.739536492194222 0.2767509370210639
0.8628418429992557 12.998400122704929 6814.551198529155 19.607399708741465 0.28069941574522117
0.8873211632614679 13.003358384493719 5955.322534946745 20.513239933432125 0.2847166140298397
0.9120773032785785 13.008856593008295 5211.202124618583 21.458851320023584 0.2888055452743971
0.9370979933300738 13.014733674217839 4565.172675027676 22.445717602836602 0.29296612803522865
0.9623810119998601 13.020947385318715 4004.5662183090944 23.47586497438378 0.2972021683357781
0.987901176004893 13.027333248589644 3516.5578861888457 24.551715399370238 0.30151976321495544
1.013643436283082 13.033787235819938 3091.8390607496394 25.675210439402534 0.3059205388149565
1.0396077349545108 13.040241313576576 2721.44199802379 26.84831280869539 0.31040576608714543
1.0657583716330141 13.046573373242136 2398.348032115175 28.074118583930208 0.3149841746795014
1.092090104988182 13.052700600334587 2115.7300610228804 29.354680887936166 0.3196561973941939
1.1185877291216713 13.058539760014353 1868.5746199966852 30.692759125156915 0.3244265446330926
1.1452186871892829 13.06399186844782 1652.0918218444629 32.09174967254931 0.32930325067907695
1.1719818994659634 13.069009031341313 1462.0447951552565 33.553595876127005 0.3342840280118009
1.198839067616379 13.07346119908244 1295.504305177826 35.082838995387036 0.33938243605280466
1.2257840098751127 13.07732820960174 1149.049997262821 36.681500725992464 0.3445952268940571
1.2527800452488076 13.08049070530518 1020.1433674247081 38.3546354711887 0.3499368507539243
1.2798220108387852 13.082933497268908 902.8276857266864 40.10448320644729 0.35540388938763445
1.3068664435496824 13.084520604318874 806.739597586553 41.936515415579194 0.3610109039598746
1.3339040513190548 13.085235840738505 718.5961711364222 43.85421210341197 0.3667598037830496
1.360909996175804 13.08503566673199 640.6208796960525 45.862268649053654 0.3726583816762522
1.3878414248251716 13.083773216568305 571.800682084459 47.96601460399313 0.37871657529075314
1.414698418819437 13.081483994574384 510.82557100075104 50.170201207712346 0.38494000914954385
1.4414219038563507 13.078031255824916 456.8826901800784 52.4800581940406 0.3913357068457056
1.4680162268033148 13.073436133525492 409.0004368181585 54.90199630582042 0.3979153324633299
1.4944248553946526 13.067571071375575 366.52602934080556 57.44220486505319 0.40468794611019354
1.5206370371783913 13.06042396560973 328.84368409015616 60.107311253967985 0.41166331790628324
1.5466198844824737 13.051937647695983 295.28532021016196 62.90442034937261 0.4188519864431001
1.5723361346927558 13.042059055281511 265.45800242531357 65.84115773252242 0.426265322015593
1.5977605230617653 13.03073154394087 238.91806092425733 68.92571705777797 0.433915595185348
1.6228472265784173 13.017911615324948 215.23791374342818 72.16691201096847 0.44181605130207763
1.6475984544109499 13.003573836079651 194.09105035814284 75.57423334240316 0.4499809916862421
1.6719478891402653 12.987637087638499 175.2292126435877 79.15761421854437 0.45842462074043355
1.6958851702448237 12.970091235607567 158.36080868356694 82.92725316166207 0.46716024044004906
1.7193658550339788 12.95088100715805 143.27974702829542 86.89588300512834 0.47620938369281424
1.7423486835096902 12.929942616908003 129.7817349440384 91.07508381625121 0.4855864034938999
1.7648313054489053 12.907295299956218 117.67803935874356 95.4789380390631 0.49531319429808995
1.786758039343372 12.88285751592961 106.82037849678979 100.12112068072432 0.5054073074263539
1.8080968503359742 12.856605600661798 97.08172238836102 105.01815249194082 0.5158944278213627
1.8288069917695595 12.828472086596381 88.32943589016685 110.186573435415 0.5267970912484619
1.8488875645454923 12.79850757834768 80.46646927082409 115.64401486686594 0.538138675330116
1.8682641293035729 12.766569608772084 73.38645491569835 121.41068303449661 0.5499485057406829
1.8869433584788837 12.732751898879009 67.00802992611179 127.50799987530223 0.5622563811781063
1.9048658690471505 12.696939133658 61.255242821920014 133.95840103671233 0.5750915848325631
1.92200894027337 12.659123203412829 56.075077601131326 140.78756586043167 0.5884904041041501
1.9383227099260198 12.619237987471145 51.391228573840465 148.02317694890897 0.602491127232583
1.9538192928490008 12.577396776884047 47.16171684423362 155.69374500101245 0.6171295634496355
1.968436608214833 12.533469293965195 43.33772100689406 163.8328997781956 0.6324532585049036
1.982153092858897 12.487472094960555 39.87935729501148 172.4744061749493 0.6485037509382376
1.9949437973098751 12.43939824602492 36.745435120122174 181.65756540177102 0.6653342531708167
2.0067805198941913 12.389241292967197 33.902292308932864 191.4243704893452 0.682999156630355
2.0176278879497875 12.336969745689577 31.327403178196313 201.82085171755213 0.7015576896911122
2.0274653328004835 12.282587410315472 28.991857743251803 212.8969584401554 0.7210725360908673
2.036276313626436 12.226125317381403 26.869282407970985 224.7081624282866 0.7416139867242459
2.044022400886015 12.167533270363267 24.94267327260833 237.3156313577438 0.763259198104254
2.050682809827929 12.106830253262316 23.18654329828914 250.78622066431177 0.7860907423798081
2.0562569879485815 12.044087922278987 21.59364525100562 265.1930423590432 0.8101968310476191
2.060704621498637 11.979241948899695 20.14228528519889 280.61779388786846 0.8356770295607928
2.0640123733559075 11.912348152513854 18.821294153250705 297.1502257135059 0.8626383883242625
2.0661753872518336 11.843451110187765 17.619062499090195 314.8907143475431 0.8912014062107415
2.0671684373892916 11.772564089113162 16.523162168204294 333.9486448882845 0.9214918921097435
