M[M_sun], R[km], Lambda[1], P_c[MeV/fm^3], rho_c[fm^-3]
0.24162668629717493 15.618656898711224 2160425.4255784233 3.5677272577965504 0.1711233750220791
0.2536446852957225 15.277257015682155 1723206.5699848027 3.784834248468355 0.17388835556439183
0.2660407941186778 14.98125304129299 1382994.6524090804 4.011432267789035 0.1766670331202132
0.27881652968726517 14.723492862471195 1116360.6006495778 4.24777695292249 0.17945807950955311
0.29197253745783197 14.498359234515092 905859.058605232 4.494493671180325 0.18226806430070197
0.30550891453610274 14.301190966603597 738651.6407193033 4.751738490229699 0.18509270281221343
0.3194269529137947 14.128070277459265 605043.8849225775 5.020192982062407 0.1879385981117357
0.3337267998545507 13.97586265161236 497646.65071802214 5.300082144922166 0.19080239161199478
0.34840778810162065 13.841970376258708 410971.2717422953 5.592133568898273 0.19369035907244334
0.3634718753664203 13.723920710369326 340632.63893421815 5.896515846844407 0.19659758766090488
0.3789261952651766 13.619950607706405 283280.5192238557 6.214092554076406 0.19953174735260912
0.3947596955833569 13.528402372517961 236377.92947215974 6.545119645129289 0.202488990357796
0.41098575491194916 13.447815647199278 197838.31554465162 6.890302494504874 0.20547307796429498
0.42759431852016855 13.377039937354075 166064.24832601388 7.250344978420154 0.20848706061857963
0.44459078921175044 13.314884704777555 139778.674756369 7.625504081968085 0.21152645290274516
0.461974123201334 13.260522946993724 117967.65604950271 8.0167328302839 0.21459747846899152
0.47973985004632436 13.213123910999967 98722.35470832465 8.424734530869008 0.21770175554813354
0.49789824543826405 13.171954759672744 84628.76661329907 8.8499474799365 0.2208367144081108
0.516438840901678 13.136362429214284 71926.96945113776 9.293250176923255 0.2240058357242154
0.5353585343825797 13.105812384958464 61264.71570764491 9.755525220011993 0.22721200436917288
0.5546657460634273 13.079805416032002 52294.52566445864 10.237582389297476 0.23045657158718924
0.5743509147912401 13.057816738216099 44721.97448874969 10.739888918781292 0.233736183133291
0.5944053381690056 13.03953677031622 38320.02151429944 11.263697488323297 0.23705712651681415
0.6148480570676994 13.024478917399188 32894.64970416095 11.809942207355682 0.2404209694380361
0.6356534775088634 13.012419647449542 28286.111849022243 12.37960233393785 0.2438293453010683
0.656825779918026 13.003014791646105 24366.002516990542 12.973361667861807 0.24728014495725234
0.6783588747214291 12.995974457781386 21023.699114092502 13.592557578230132 0.25077827112970785
0.7002486852676688 12.991058514885147 18168.07036447879 14.238383082470921 0.25432630459519145
0.722484364897175 12.988004103762485 15725.469905214146 14.912028198380964 0.2579262306049898
0.7450742995886708 12.986639162257731 13630.887490554596 15.614514655743234 0.2615778647091754
0.7679960888054249 12.986753682849212 11833.189544818011 16.347124803613386 0.26528326203784075
0.7912430781614758 12.988143926584316 10286.007942458298 17.111467436857808 0.2690470362131684
0.8148186397747406 12.99067680091587 8953.863142226804 17.908998035524142 0.27287162066915505
0.8387028146180958 12.994137978593288 7805.631324109354 18.74106877499603 0.27675797706771377
0.8628850436903817 12.998422804002063 6812.336478089471 19.60905082049659 0.28070682324236473
0.8873696145897378 13.003358869815285 5953.784256187059 20.515017821715045 0.28472440501196145
0.9121272719076974 13.008851940844082 5209.857906545531 21.460764476674026 0.28881373685714906
0.9371491137924298 13.01475069551935 4564.11807022255 22.44775805796756 0.2929746029241837
0.962434061855754 13.020971696385542 4003.419816275518 23.47805833628163 0.2972110762301566
0.9879568854782637 13.027342100994169 3515.551452724497 24.55407199305119 0.3015291248429223
1.013700911553312 13.033803376995882 3091.151122344269 25.6777211423168 0.30593022810103676
1.0396655230524248 13.040262691637194 2720.656994502633 26.851008317215825 0.3104159492329566
1.0658190112273758 13.046590029156018 2397.522933492353 28.077011516946012 0.31499487689667055
1.0921530710513276 13.052716916908276 2115.0316175789567 29.35776099176101 0.3196672838767699
1.1186537693114371 13.058548130422833 1867.8680202141716 30.696063176228296 0.3244381998873441
1.145286098235327 13.064001817194908 1651.6115996298001 32.095266886437834 0.3293153354795663
1.1720505863692054 13.069016864253431 1461.6256288798722 33.55736751290349 0.3342967388166097
1.1989075111382204 13.073475026656148 1294.98234704646 35.086882858188076 0.33939580801079405
1.225855360905007 13.077337732274644 1148.6957384998848 36.68580507902217 0.3446091120706314
1.2528526851617492 13.080501792488066 1019.8060156431499 38.35921778414147 0.34995128001812204
1.2798961092100367 13.082944462978347 906.4045918944469 40.109395566858204 0.3554190865896322
1.306940624897391 13.084520188866957 806.5104608017941 41.94174607236848 0.36102671702778966
1.3339793500675101 13.08523814449945 718.3651397103162 43.859819706381685 0.3667764724791143
1.360987864912023 13.085031469346402 640.3485882505237 45.86824144748203 0.3726757497627386
1.3879210898723913 13.083771543936217 571.6065806135082 47.97237811180291 0.3787346878881648
1.4147720338851573 13.081462171689525 510.6550783962818 50.17702520959322 0.3849591307548346
1.4415033403453164 13.078020804364485 456.73399649818174 52.48733185616384 0.3913556775966904
1.4680987808996295 13.073418388340079 408.87596117053 54.90975183823766 0.397936208961795
1.4945087588540824 13.067548487305702 366.4046934028395 57.45047708702473 0.404709789333792
1.5207210586817896 13.06039890855659 328.73439723263135 60.11613782758687 0.4116861935679128
1.5467053957590646 13.051907953937285 295.18651592391876 62.913842036503 0.4188759653859043
1.572421625237194 13.042022463972051 265.3684269626933 65.85121867764667 0.4262904806474006
1.5978353927285676 13.03068512900075 238.82596010781512 68.93646509966479 0.4339420159568237
1.6229331317852111 13.017861326043572 215.16136464192505 72.17839902643398 0.4418438232333675
1.6476858266316883 13.003517410808195 194.02623725604596 75.58651562583803 0.45001021094746424
1.6720338707842937 12.987581262308465 175.1648551159483 79.17068876011834 0.45845512349634315
1.6959716382109304 12.970022037245306 158.3059341975911 82.94124753769808 0.46719239947542157
1.7194515738532592 12.950805838141912 143.22718783871315 86.91086926267238 0.4762433201927725
1.7424281473000718 12.929828311594546 129.7375521632426 91.09106819293169 0.48562196284837644
1.764915091930075 12.907204966334566 117.636495420802 95.49607453538971 0.49535079559742423
1.786841977440828 12.882764760674263 106.78566233835431 100.13942421846698 0.5054468056667261
1.8081792952406208 12.856498332180273 97.04978559220704 105.03771799405476 0.5159359752061126
1.8288922049741267 12.828368427945195 88.30162125144739 110.20750444044668 0.5268408524121733
1.8489658299083491 12.798381643170433 80.43289789261497 115.66650993141376 0.5381851423710218
1.868341317387558 12.766436647906485 73.35734360689227 121.43478309016591 0.5499975646223404
1.8870155037817677 12.732612116163947 66.97984221948508 127.53376397712297 0.5623079701356383
1.904939806954033 12.69678485537191 61.23318581674974 133.98603479503458 0.575146142451697
1.9220789739638666 12.65895970659823 56.052503749179195 140.81724670253897 0.5885482336716289
1.938391105403017 12.619063665089964 51.372402086463566 148.0550826385995 0.6025524994141097
1.9538854217165993 12.577212229600017 47.1473762596151 155.72796567940696 0.6171944150607314
1.9684987012127706 12.533272425564247 43.324087576583885 163.86964284472734 0.632521894858541
1.982211257745813 12.487264576385755 39.86413272662813 172.51400998578947 0.6485768750447629
1.9949970351746096 12.439175655619401 36.73086243977381 181.70017353818957 0.6654118644820984
2.006831736833801 12.38900757159336 33.89107465799325 191.47025967579106 0.6830816521711869
2.0176755897898113 12.336723596678098 31.316177786441184 201.87032721546421 0.7016455038195507
2.02750948115715 12.282331655047345 28.98058711447287 212.95023257124606 0.7211657359959204
2.0363151406803692 12.225855804226143 26.859868430406518 224.76572835762894 0.7417134908035645
2.044056486594974 12.167249826946042 24.93343237537661 237.37776956288604 0.7633651494521343
2.0507126701094434 12.106532452137955 23.17946463403708 250.85338013450377 0.7862037461877379
2.0562820273898454 12.043774480486768 21.586335681474534 265.26585949289466 0.8103180029889342
2.0607243046595194 11.978915536460276 20.135081435365827 280.69654548862997 0.8358062005153162
2.064025820795776 11.912011091832275 18.81538334152401 297.23566584070346 0.8627768166395798
2.0661829316467704 11.843097945736563 17.61298804829754 314.9835291819948 0.8913499845054258
2.0671705757521437 11.772196603963444 16.51822804799218 334.04944666841493 0.9216511004694702
