M[M_sun], R[km], Lambda[1], P_c[MeV/fm^3], rho_c[fm^-3]
0.24162668629717493 15.618656898711224 2160425.4255784233 3.5677272577965504 0.1711233750220791
0.2536447928150815 15.277273155435772 1723111.7064336687 3.7848437143738187 0.17388847355233691
0.26604219092776044 14.981242827405612 1382910.1028606333 4.011452167178121 0.17666727359258652
0.27881955180571066 14.723430382226233 1116402.974234237 4.247807959193943 0.17945843913557652
0.29197479557064987 14.498351079245243 905831.5147024728 4.494536598139607 0.1822685423023564
0.3055119032285397 14.301138578829354 738583.4210960044 4.751794795650626 0.18509331101821996
0.31942989026374896 14.128046952359142 605027.5368849786 5.020263080890175 0.18793932541412944
0.33373038693870805 13.975861632170801 497625.98781756376 5.300167882905554 0.19080325485122246
0.3484127946968737 13.841923060417972 410926.20671996765 5.592235160293923 0.19369134199714308
0.3634781644026696 13.723870203427099 340628.4866564308 5.896635574325482 0.19659871216674416
0.37893268512316497 13.619904814062167 279329.8263834356 6.214231866785707 0.1995330177167745
0.39476660214427384 13.528370430451783 236360.79803326543 6.545278398613763 0.2024903824113894
0.41099417676488753 13.447779448496174 197828.2330741187 6.890483753856864 0.20547462164499908
0.42760259421143954 13.376999875203547 166047.2789628128 7.250550444877056 0.20848876038992104
0.44460182943079046 13.314836331726623 139761.11669220202 7.6257331878163 0.21152827673261154
0.4619823846586217 13.260514318012014 117946.24854690504 8.016989572156147 0.21459946457494025
0.4797529696259756 13.213087092723871 99789.49495790902 8.425020911183791 0.21770390872774836
0.49791244340811214 13.171913760589936 84620.25340921081 8.85026244290868 0.22083899487460273
0.5164528829911731 13.13634000211523 71919.64696033008 9.293598820264423 0.2240082901950726
0.5353740798391848 13.105790116316447 61257.582747576234 9.755909908074656 0.22721463814727713
0.5546835861304774 13.079753262127722 52288.347305335556 10.238002636856503 0.2304593517184823
0.574367985626947 13.057801310311923 44715.085309700386 10.740348873460368 0.2337391361848068
0.5944278869178999 13.03948815260847 38314.718795869885 11.264201074811155 0.23706027293430335
0.6148665743229987 13.024484228568415 32889.04258918697 11.810492401191366 0.2404243155345352
0.635675438241822 13.012403505348198 28281.63760357513 12.380202296321933 0.24383289772286346
0.6568484192029794 13.003017562746363 24361.807507329868 12.974008643633146 0.24728384280545643
0.6783828580076668 12.995962209215262 21019.953396125224 13.593260755867401 0.2507821862343996
0.7002745502883448 12.991041431761355 18164.98066621051 14.239146233062954 0.2543304447243988
0.7225106773893949 12.988007417948236 15723.71345178432 14.912855335348066 0.2579306039899265
0.7451016365001224 12.986649207085973 13628.673601774843 15.615401979000323 0.26158240011708084
0.7680265908528578 12.986747871390957 11831.551632882143 16.348084331156294 0.26528804504198433
0.7912739237643435 12.988146819201196 10285.412854707301 17.112503985356387 0.26905207659751224
0.8148509081442725 12.990684675575041 8952.309524681736 17.910116741029267 0.2728769288467856
0.8387377984437143 12.994145447859742 7804.2238640777 18.74226467522171 0.2767634716104754
0.8629202322039199 12.998426797788813 6810.948494358333 19.610339467515118 0.2807126045888297
0.887406723077048 13.00337523714052 5952.767847644698 20.51640541906822 0.2847304856787134
0.9121655387641447 13.008861094619693 5208.879716328736 21.46225765276288 0.28882013020475716
0.9371866331674273 13.014766320961321 4562.838203295588 22.449350592141858 0.2929812174044923
0.962474965305807 13.020967818403221 4002.513240900867 23.479770217083804 0.2972180286867436
0.9879987542296577 13.027356639703877 3514.8013007667364 24.555911279887003 0.30153643145637055
1.0137447691320443 13.033813489144716 3090.712306576032 25.67968071472856 0.30593779046836606
1.0397104938191115 13.04027862204091 2720.06512799112 26.853112135607766 0.3104238970800077
1.065865746406129 13.046602605041006 2396.971726962516 28.079269431379604 0.3150032299039769
1.0922011386894932 13.052730718943044 2114.6663293528336 29.360164998742043 0.31967593682583384
1.118702572632103 13.058560442798209 1867.3977908644683 30.69864198246508 0.32444729679344686
1.1453360104886772 13.06401820841225 1651.0634454676972 32.09801207406405 0.3293247676738599
1.172102716186693 13.069024626290705 1461.231635103816 33.56031128876562 0.33430665964478107
1.1989611312318575 13.073488969041769 1294.691556694266 35.09003911938135 0.3394062449108959
1.225910224949191 13.077345184572097 1148.4134912381082 36.689164664918394 0.3446199495746799
1.2529094498920685 13.080504641861298 1019.5969802173926 38.362794331452555 0.3499625422227334
1.2799535998361038 13.082944045559577 906.2044098673475 40.113229735018216 0.3554309482250065
1.307006767663935 13.084552318422759 806.3004850301095 41.945828688650586 0.3610390593953241
1.3340397465274616 13.08523956227904 718.1265200375694 43.86419655322117 0.3667894827314597
1.3610500038182582 13.08502859436894 640.2474791417026 45.87290335231944 0.3726893059487339
1.3879899004672658 13.083782575515144 571.4183660503775 47.9773449911157 0.3787488252300325
1.4148341599931045 13.08145915989141 510.5219201031031 50.18235153871169 0.3849740557159982
1.44156762983263 13.078009665256166 456.6057483862612 52.493009178091214 0.3913712653955942
1.468163717626017 13.073406983792342 408.76219710090726 54.9158052969438 0.3979525037839411
1.4945744413273159 13.067535313774085 366.30903118869907 57.45693386344045 0.4047268387809005
1.5207868643416376 13.060380546506108 328.6422427591693 60.12302732200571 0.4117040489385163
1.5467711228118326 13.051883709520407 295.1022407832677 62.92119606918562 0.4188946819837531
1.5724894538751328 13.041994207689463 265.29894415586665 65.85907170965574 0.42631011812066477
1.5979018955002455 13.030652058150173 238.75710540358938 68.94485447620417 0.43396263867142654
1.6230110668274071 13.0178401451438 215.08816311311125 72.18736524524596 0.4418655006841835
1.6477537203293577 13.00347533108587 193.9629790583027 75.59610263352963 0.4500330182115666
1.672101858619495 12.987531631884236 175.12283503405257 79.18089420626589 0.45847893268544754
1.6960388736483154 12.969971128725312 158.25874924353425 82.95217101697887 0.4672175015989945
1.7195179795977729 12.95074820703121 143.18588740858578 86.9225670201787 0.4762698098581181
1.7424996653163358 12.929799109850716 129.69474802244744 91.10354509724586 0.4856497193678921
1.7649810890822117 12.9071347328086 117.59594670765169 95.50945081215403 0.49538014613542264
1.7868921729829803 12.882657556660412 106.75309134318796 100.15371151575025 0.5054776370344265
1.8082432171185108 12.856415633713146 97.02173034268723 105.05299041653328 0.5159684062272579
1.828947030952314 12.8282619935964 88.2745235293102 110.22384281942402 0.5268750116164792
1.849027663067182 12.798284627913961 80.41463072866173 115.68406928116624 0.5382214139283447
1.8683993766532314 12.7663333221862 73.33488918233479 121.4535953647675 0.5500358595194997
1.8870750100766995 12.732500002867056 66.96103011549779 127.55386327954191 0.5623481972980926
1.9049962004599152 12.696666131995233 61.21595888688256 134.00760564744144 0.5751887300120384
1.922134690032164 12.658831299268385 56.0367614204824 140.84041562642852 0.5885933755460623
1.9384438026921311 12.618925626646696 51.35627471307549 148.07998841858193 0.6026004069210458
1.9539363388989355 12.577065105987455 47.1334667421939 155.75467868820098 0.6172450388864059
1.9685461402431874 12.533116410897225 43.3109363678304 163.89832500520808 0.6325754733726845
1.9822579809387693 12.487101305589977 39.852650802471764 172.5449254695832 0.648633957105359
1.9950404481917452 12.439000851069233 36.72227129789244 181.7334344426286 0.6654724496807227
2.0068728430401794 12.388823963315732 33.87994065091991 191.50608205378407 0.6831460504897297
2.017712812632849 12.336532057143781 31.306839790273497 201.9089494024579 0.7017140543916999
2.027543668549529 12.28213324984347 28.972874218301616 212.99182033517883 0.7212384913008039
2.03634612474881 12.225642399520288 26.85268983285098 224.81066675221714 0.7417911678884417
2.0440839771574266 12.167028210581835 24.92712235783361 237.42627757346108 0.7634478600661865
2.0507352149254716 12.106300339479208 23.172544893589592 250.9058083242797 0.7862919628617321
2.0563006813535387 12.043531672551934 21.58056658895117 265.32260716961423 0.810412278843369
2.0607393426577927 11.978661306488727 20.13072031885905 280.75802395623725 0.8359070395111802
2.0640366085473616 11.911743527837567 18.810088023920848 297.3023662861644 0.8628848833126866
2.0661854875844017 11.842818312865228 17.609473505498396 315.05598738729793 0.891465975840684
2.067173572677061 11.771911192203875 16.513942838219243 334.1281406758904 0.9217753913682447
