M[M_sun], R[km], Lambda[1], P_c[MeV/fm^3], rho_c[fm^-3]
0.24162668629717493 15.618656898711224 2160425.4255784233 3.5677272577965504 0.1711233750220791
0.25364481373599446 15.277270743105834 1723196.6033057377 3.7848350901019314 0.17388836605494834
0.26604099399293246 14.981251441008604 1382909.5025719104 4.01143403708274 0.17666705450108347
0.27881663496791304 14.723505611902942 1116393.9851812022 4.247779709746566 0.17945811148455795
0.2919728127533152 14.498378343196778 905862.1060584614 4.494497487888666 0.18226810680063515
0.30550926514570165 14.301180816413419 738646.7252751404 4.751743496431906 0.18509275688875176
0.31942775876519824 14.128061259117016 605054.3195177901 5.020199214648694 0.18793866277722399
0.3337270754183639 13.975849948149003 497631.27045180247 5.300089767996508 0.19080246836370443
0.34840824565696 13.841966469132808 410968.8317479761 5.592142601507218 0.19369044646541966
0.3634723800940249 13.723914012220387 340635.1244327961 5.896526491938117 0.19659768764187774
0.3789266975041468 13.619950436055966 283266.7027073046 6.214104940494855 0.19953186030183115
0.3947603273751427 13.528387477325593 236385.5170446995 6.545133760025754 0.20248911412636972
0.4109864742554585 13.44781352142997 197836.76539497817 6.890318610392576 0.20547321521395745
0.42759569816909715 13.377008944223444 166065.0694421635 7.250363246551438 0.208487211746148
0.44459148037623464 13.314883514922746 139783.93220204944 7.625524451864222 0.21152661506021622
0.4619751572093337 13.260522281581325 117964.8525367419 8.016755657278498 0.21459765505424958
0.47974059596714835 13.213136384261798 99794.25548097052 8.424759992990706 0.2177019469876933
0.4978992683600192 13.171950047900536 84628.73759399883 8.849975483312779 0.22083691716452
0.5164397070247888 13.136365268706802 71927.07926885925 9.293281174780528 0.22400605395106307
0.5353597241169289 13.105810776834073 61263.84751668386 9.755559422556326 0.22721223853789585
0.5546676965890975 13.07979826380682 52297.49471707682 10.237620019509361 0.2304568221897208
0.5743524291468746 13.057812256336554 44720.6215440999 10.73992981316273 0.23373644568788732
0.5944113700953395 13.039498070043594 38319.69119786385 11.263742261930316 0.23705740626312105
0.614850062729819 13.024501016937736 32894.80433964479 11.809991124731095 0.24042126693729543
0.6356558973394127 13.012415592603565 28285.66281379603 12.379655676130447 0.2438296611441488
0.6568276295957488 13.003015052409479 24365.941501142992 12.973419189913015 0.24728047372970902
0.6783610288701579 12.995968352823397 21023.333886514094 13.592620097056109 0.2507786192177811
0.7002517170294479 12.99105782652534 18168.524594468963 14.238450933341484 0.25432667268947573
0.7224873461529965 12.988005386447771 15725.51798201463 14.912101738109847 0.2579266194372574
0.7450767854706056 12.98663931797895 13630.669374069743 15.614593546473104 0.26157826794625616
0.7679989681385435 12.986765291911434 11833.4425464966 16.347210113815166 0.2652836872878001
0.7912464297523923 12.988147306207177 10286.219641259602 17.1115595947564 0.269047484345822
0.8148218406215483 12.990675398818293 8953.895878150017 17.909097497738195 0.27287209261024886
0.8387069161515726 12.99413200248583 7805.666616703372 18.741175100344186 0.27675846557767436
0.8628892197464626 12.998414121940437 6812.205470646624 19.609165391639788 0.280707337250828
0.887371453129218 13.00337226885666 5953.748577205923 20.515141190174162 0.2847249456316779
0.9121252843469144 13.008871713208423 5209.404106616626 21.460897231740812 0.2888143052759009
0.9371523874626698 13.014757059264792 4563.816902000714 22.447899646589068 0.2929751910027091
0.9624376418382284 13.020958749270394 4003.435628592346 23.478210535530533 0.29721169435652917
0.9879597084308823 13.027348373915608 3515.497837061914 24.554235519437785 0.3015297744556267
1.013704029975163 13.033808082463652 3090.931781724619 25.677895362794715 0.305930900451414
1.0396705685171035 13.040267724537571 2720.6241907704816 26.851195361961594 0.31041665585432504
1.065823761548653 13.046587557813641 2397.511707414966 28.077212261661302 0.3149956195386629
1.0921571711296136 13.052720465669449 2114.9744667731993 29.357974724898035 0.3196680531848304
1.1186572741909753 13.058550760736788 1867.7907186010668 30.6962924499136 0.3244390086651256
1.1452897052748825 13.064006258349217 1651.564973225225 32.09551095228751 0.3293161740657863
1.1720553229564907 13.069013156888623 1461.5704087313868 33.557629234206885 0.33429762084438674
1.1989128145253956 13.073474573170865 1295.003333778629 35.087163470429765 0.33939673591940317
1.22585991714226 13.077345767951954 1148.677384498544 36.68610376778958 0.344610075594359
1.2528575524876056 13.08050276503919 1019.8815317342622 38.35953576177408 0.3499522812992037
1.2799013837501678 13.082944657962521 906.3921221411373 40.1097364480758 0.3554201411622384
1.3069464782739098 13.084522718780889 806.538665688226 41.94210904168882 0.36102781433903464
1.3339847757483274 13.085242856757626 718.3352467693801 43.860208833953486 0.3667776291674997
1.3609930221397093 13.08503102683605 640.3872070636513 45.86865591784196 0.37267695498624376
1.3879273971837514 13.08377167961504 571.5926753512417 47.97281969556006 0.378735944778084
1.4147774300826461 13.081461857547195 510.6480892651565 50.17749874967913 0.38496045766634057
1.441508912982248 13.07801881248882 456.71724608446414 52.48783660073605 0.3913570634361742
1.4681045437845965 13.073417265973173 408.87016933950713 54.91029002262397 0.3979376576573726
1.494515358176731 13.067548153219867 366.4012555364155 57.451051127635665 0.4047113051172734
1.52072687778802 13.060398034339574 328.72776280610094 60.11675033813075 0.4116877809997467
1.546711350683438 13.051904800114054 295.1840772361351 62.91449584581849 0.4188776293825924
1.5724275792436426 13.042021773691717 265.3625554757194 65.85191684933399 0.4262922265116512
1.5978415295444761 13.030681925126498 238.8217959370337 68.93721095371772 0.4339438494107397
1.6229392125685258 13.017860847491379 215.15616160517015 72.17919616309803 0.4418457504549969
1.6476913270535634 13.003514676313413 194.0219785547704 75.5873679519531 0.4500122386110933
1.6720404125141215 12.987577096407598 175.16330081715319 79.17159606676029 0.45845724023235856
1.6959771458609785 12.970017006602282 158.3044477802766 82.94221867875504 0.4671946311547421
1.7194574891956025 12.950800735009635 143.22360442588385 86.91190923827833 0.47624567522584227
1.7424341132722254 12.929823710416592 129.73709087202883 91.09217743593229 0.4856244305057551
1.7649212956468223 12.907197051798487 117.63376984760227 95.49726373366323 0.4953534049639714
1.78684696543644 12.882757939467965 106.77883522509657 100.14069440754804 0.5054495466796574
1.8081846044137138 12.856490898438745 97.0479193452198 105.03907576174069 0.5159388584286396
1.8288974044633735 12.828358349063574 88.29644127355681 110.20895697250091 0.5268438892703139
1.848971618369846 12.798372371553686 80.43325951894974 115.66807100821345 0.5381883670170037
1.8683466419522945 12.766427226484376 73.35750110713042 121.4364555523995 0.550000969142559
1.8870216006299558 12.732601510201256 66.97957579269921 127.53555085654986 0.5623115464333371
1.9049443170664695 12.696774999012996 61.23137401786013 133.98795249510633 0.5751499285870793
1.9220830703169238 12.658949918049382 56.05048910575681 140.81930647062387 0.5885522468831486
1.9383960981373705 12.619050708716511 51.37162704907409 148.05729681217807 0.6025567584871502
1.9538898109700733 12.57719862234393 47.14674591591202 155.73034051447019 0.6171989156109005
1.9685035200994327 12.53325519177777 43.3223792192185 163.8721927356337 0.6325266580759452
1.9822154232207883 12.487250051890518 39.862864537453525 172.51675841619544 0.6485819497210004
1.9950014528181272 12.439159760924888 36.73056268413645 181.7031304731715 0.6654172505801682
2.0068350667050203 12.388992170116092 33.889921024647755 191.4734443214608 0.6830873772469014
2.017678806321154 12.336706396472165 31.31500869378766 201.87376075866914 0.7016515980200483
2.0275127658029084 12.282314184426317 28.980160739864058 212.95392974808226 0.7211722039856002
2.0363178451841093 12.22583428237406 26.85903639733838 224.76972339708772 0.7417203963243775
2.0440587286273533 12.167230361705363 24.93266576049439 237.3820819316798 0.7633725024370687
2.0507141245950464 12.106512331065467 23.17973692321038 250.85804099558297 0.7862115886416566
2.056283499771201 12.043753130760818 21.58580729629764 265.27091301741444 0.8103264123473387
2.0607253799514913 11.97889359468103 20.135060084820182 280.70201088817714 0.8358151650426342
2.0640266873380635 11.911987602037863 18.81494223281859 297.24159545352995 0.8627864236748334
2.0661834028559958 11.843073482675221 17.61237244044817 314.98997063504123 0.8913602960048168
2.0671713083230006 11.772173534482821 16.517715257991156 334.05644245615275 0.9216621497573825
