M[M_sun], R[km], Lambda[1], P_c[MeV/fm^3], rho_c[fm^-3]
0.24162668629717493 15.618656898711224 2160425.4255784233 3.5677272577965504 0.1711233750220791
0.25363077581663057 15.277616604128651 1723651.377075609 3.7845816596312156 0.17388520716638978
0.26601317662668594 14.9818246309488 1383675.0369044892 4.0109012972783455 0.1766606166549489
0.27877326517878215 14.724290170553832 1117183.1783850715 4.246949659448834 0.17944848415196338
0.2919122802365801 14.499324164222445 906745.4034201727 4.49334836896819 0.18225531109475906
0.3054315972330552 14.302178625460943 739454.0415888829 4.750236317680934 0.18507647648174738
0.3193301076506749 14.129180186437358 605820.9784974545 5.0183228980581465 0.18791919526840536
0.3336101623967164 13.977021972365005 498422.5072168424 5.297794946853061 0.1907793633225868
0.34827198500102874 13.843117595855105 411676.3009921924 5.589423571140604 0.1936641390986432
0.36331565571225 13.725043777375486 341276.6163731994 5.893322203190735 0.19656759228386253
0.37874731309075765 13.621062398040536 283873.67126071465 6.210376653387445 0.1994978628125615
0.39455851098456346 13.529479887285195 236903.34687934304 6.540885370273939 0.2024518614875397
0.4107614801075156 13.448868119582405 198323.56024835713 6.885468152951445 0.2054319066829733
0.42734528639688496 13.377990948544328 166497.19639733658 7.244865249412917 0.20844172822483698
0.44431723119810035 13.315802865474366 140173.0448495114 7.619394133745114 0.2114778137862065
0.4616727244220806 13.26140449274076 118305.76242129084 8.009886156908506 0.21454451391513518
0.479411397518034 13.21392682886188 100107.71230768644 8.41709779615039 0.21764433797900887
0.4975427415998172 13.172689340756818 84900.0499432745 8.841548860431583 0.2207759048144412
0.5160511635756039 13.137040717010317 72171.23561133866 9.283953844141685 0.22394038896187435
0.5349435406981005 13.106421669410773 61478.36119804272 9.745268206334455 0.22714177942418276
0.5542213302777482 13.080346806948915 52482.030966653125 10.226297903767687 0.23038142131565292
0.5738718850524567 13.058290519750978 44888.75548348741 10.727626001789012 0.23365745140762428
0.5939018368692038 13.039956775805248 38466.949740834796 11.250271849310206 0.23697324288130597
0.6143044937745481 13.024846517339283 33027.076360135005 11.795274616443587 0.24033176601295547
0.6350757113141391 13.012713546671922 28404.82881048108 12.363608621802367 0.2437346453447332
0.6562112899160851 13.003235249758415 24470.600493726804 12.95611527469279 0.2471815716461146
0.6777145944663651 12.996158810021129 21116.821597534232 13.573813780790546 0.250673910687328
0.6995690547176576 12.991182553842261 18250.13663952333 14.218041486308763 0.2542159504432398
0.7217687702523322 12.988060289011072 15797.672582584524 14.889981962958291 0.25780966384791887
0.7443208586221696 12.986677594260335 13695.071546729723 15.590865035618636 0.2614569835385114
0.7672056595975126 12.986733922178642 11890.926546388562 16.321551786185164 0.26515578695989533
0.7904186477600551 12.98808083970368 10337.740079336867 17.083842815956487 0.2689127070362068
0.813944275479567 12.990566648244668 8999.635637231095 17.879185110869457 0.2727301604733949
0.8377983370882234 12.993996099409681 7846.14077403819 18.709103200273173 0.27661069940097377
0.8619456504913074 12.998249444289439 6848.766645763937 19.574711620459013 0.2805527649083963
0.8863790798598575 13.003146628105156 5985.9820807801 20.478043383527424 0.284562377290846
0.9111027123107452 13.008618978307148 5238.445743050547 21.420978414003716 0.2886433844583209
0.936089286116524 13.014500776890257 4589.376512278266 22.405326014569443 0.2927983643730498
0.9613233795565304 13.020689070296116 4025.954298289737 23.43244830858728 0.2970258403556302
0.9868142456368247 13.02706137252862 3535.8585045501018 24.50506954637286 0.301334461384823
1.0125201632499385 13.033513201578863 3109.271917740086 25.625409395525367 0.305727975112889
1.0384413593241302 13.039950644418688 2737.1477202466112 26.79496255383811 0.3102042184310508
1.0645647769253042 13.04630216326565 2412.18962933495 28.016863256855828 0.31477236232812894
1.090854846193667 13.05241667498564 2128.042986510536 29.29372325717788 0.3194367873516401
1.1173185124275253 13.058273314444056 1879.5804600518416 30.627372205837357 0.3241958880382262
1.143914650942272 13.063737216432623 1661.9519461116527 32.02173465662268 0.3290614352825398
1.1706415358317683 13.06876816135258 1470.9574310535716 33.478961330354615 0.33403250189740424
1.1974624066941957 13.073244493538692 1303.4131929458986 35.00282108136543 0.33911783850404076
1.2243772903519112 13.077145330150843 1156.2468686611376 36.596331439309616 0.34432048395914044
1.2513388265873981 13.080345784913613 1026.6314012385378 38.26334625419356 0.34964769404636786
1.2783518832192813 13.082819037117781 912.5032728044717 40.007291432729716 0.355103210509426
1.3053671929982174 13.084458812624597 812.0023372692132 41.83290609305646 0.36069735765361705
1.3323818861063796 13.085249512093762 723.2615372976662 43.743274279823034 0.36643003919852585
1.3593563443773826 13.08507493650058 644.8930360259886 45.74411061270219 0.3723147941570982
1.386262718235696 13.083877064826542 575.5835289037067 47.839952809957104 0.37835733462040155
1.4130867191579197 13.081634626138388 514.262945146931 50.03521611029197 0.38456176603090675
1.4398048402806802 13.078294672959498 459.9615742753942 52.336184348564984 0.39094068317090114
1.466368778656646 13.073742845629617 411.8284008631857 54.748597484962666 0.3975024104257571
1.492764960716615 13.067976579675658 369.07167091499514 57.27859334702656 0.40425592156058276
1.518961662143362 13.060929458090206 331.11981163502327 59.932743216156254 0.41121089326941446
1.544932213599827 13.052534331832156 297.36179641240443 62.71809080273669 0.4183777629330559
1.5706395622925708 13.042756951108187 267.3338276927566 65.64219494569028 0.4257677910743632
1.5960562922464487 13.031538064315448 240.59579751678118 68.7131764135071 0.4333931290607537
1.6211488738154267 13.018844065611864 216.7539120387971 71.9397692306371 0.441266892670987
1.6458893734971254 13.004616797900033 195.48895725793028 75.33137700621084 0.44940324221772665
1.6702373495443668 12.98880435538668 176.49099564336046 78.89813480220957 0.45781747000018974
1.6941783903899659 12.97140832986608 159.51737229719842 82.65056975425972 0.4665244227756713
1.7176716206814784 12.952341946763248 144.3204616885897 86.5996047810796 0.4755384592870035
1.740676320143442 12.931570669266447 130.71585211850126 90.75895125816243 0.48488288776859173
1.7631589475149445 12.909043028621335 118.54353898608547 95.14018414182627 0.4945698926074827
1.7851097781089287 12.884785535211769 107.60726345559071 99.75931452047713 0.5046265454290564
1.8064623149650862 12.8586770152507 97.80102496081578 104.63077660366784 0.515070766695929
1.8272176803452769 12.8307634757652 88.9791576212458 109.77134278770579 0.5259264544419333
1.8473079263916645 12.80093079080235 81.05563014074188 115.1994282022376 0.5372203126960573
1.8667398400988156 12.769239020947515 73.92459384013145 120.93440234694245 0.5489789727982228
1.8854385187251297 12.735556798771238 67.50212329859957 126.99735546679912 0.5612315219247438
1.9034137942699318 12.699969154467057 61.71107014390957 133.4112731846655 0.5740097146870654
1.920596376833276 12.662343031500914 56.489331217336066 140.20109470844065 0.5873477352763641
1.9369881547474408 12.622753448755626 51.773640166325414 147.39278457223298 0.6012785361320703
1.9525338264323064 12.581107082109723 47.5096580593802 155.01731600592058 0.6158471496751755
1.9672026340858664 12.537375743573383 43.655423050498406 163.10505769416173 0.6310906651589281
1.980985521392812 12.491619554711821 40.170416615317826 171.6920628396121 0.6470592395091882
1.9938552950311785 12.443811251300033 37.01044825045968 180.8159292027379 0.6638012011643312
2.005747879647286 12.393847297695881 34.14951081622527 190.51798573995603 0.681369737895928
2.0166725455993775 12.341813324781839 31.555688146191905 200.8437007813697 0.69982334316738
2.0265991216901384 12.287704104624552 29.1989937710964 211.8431407571667 0.7192263226409733
2.035490376451713 12.231476115489045 27.058553738924537 223.5713871407807 0.7396490435770106
2.043335102829724 12.173168203513285 25.115911756186534 236.0870726507976 0.7611619287986011
2.0500999038257 12.112747125396897 23.348874913769496 249.457623856013 0.7838511605470201
2.0557609872681875 12.050227190091837 21.741545153416492 263.7554333215686 0.8078045660859368
2.0603125231850203 11.985662435027846 20.278711210309943 279.0606664532382 0.8331189453147786
2.06372941824797 11.919067083674292 18.946839820669734 295.4647163897458 0.8712804998961147
2.06591119104513 11.850669239299217 17.743718231900235 313.11349552545533 0.9466940748963464
2.066752977182354 11.780469429199522 16.659430765629075 332.1544180192166 1.031006641179932
