M[M_sun], R[km], Lambda[1], P_c[MeV/fm^3], rho_c[fm^-3]
0.24162668629717493 15.618656898711224 2160425.4255784233 3.5677272577965504 0.1711233750220791
0.25363886542546993 15.277424940242502 1723265.3620764802 3.7847409628884314 0.17388719280464052
0.26603031124456444 14.981488442035529 1383236.7070638442 4.011236165017397 0.17666466333394992
0.27880098442797424 14.723772828950196 1116678.2116158286 4.247471400695049 0.17945453556417218
0.29195050325459754 14.498689178755887 906146.414797925 4.49407065384821 0.18226335390453166
0.3054806637420977 14.30155871242138 738955.0458667026 4.751183647038613 0.18508670944681557
0.31939116769410003 14.12848673835092 605305.0566179324 5.019502228302272 0.18793143127486783
0.3336837152610467 13.976310559135504 497941.9352908561 5.299237298083532 0.19079388540618417
0.3483578439829164 13.842387556342658 411225.59672054084 5.591132522082761 0.19368067366912475
0.3634148886842727 13.724317199541167 340855.18874269846 5.895336113915119 0.1965865073595749
0.3788591856920382 13.620414443808846 279579.72741150536 6.212719862256712 0.19951923005604205
0.39468491786261767 13.528805725262579 236565.50185191756 6.5435554220871905 0.2024752742348786
0.4109026463571586 13.44819583583217 198013.8321512405 6.8885165480460975 0.2054578680948087
0.4275032808311763 13.37736036231929 166219.351498535 7.248320553906844 0.20847031307339656
0.44448915899217195 13.315235007710099 139928.64617305598 7.623246776965194 0.2115084833034798
0.4618622049364619 13.260861463733296 118083.64690479019 8.014203278715545 0.2145779103425557
0.47961867097871713 13.21342645487209 99916.76416886675 8.421913013074207 0.21768054167872616
0.49776698732098873 13.172255761672501 84731.64599121589 8.846844401145935 0.22081424679182357
0.5162959626742698 13.136617636684246 72016.92007651328 9.289815328543355 0.22398165417748306
0.5352044586787346 13.106054373558681 61347.45818743614 9.75173531939033 0.2271860567034057
0.5545013688746372 13.08000745865253 52364.299402641285 10.23341273931945 0.2304288033449213
0.5741717873440038 13.05801378285051 44782.00223615536 10.735357637490761 0.23370709090379052
0.5942252869358039 13.039676256227537 38375.31770793877 11.258736444664677 0.23702612982625856
0.6146476558724012 13.024617630078499 32945.206621890626 11.804522102260181 0.24038800615580977
0.6354385561970795 13.012529770267777 28332.422458096407 12.373692040800293 0.24379435001683952
0.6566000143973074 13.003106213423624 24405.736220537758 12.966988327128112 0.24724371755512992
0.678121043300952 12.996041557540597 21057.34113985849 13.585630705393442 0.2507397041575734
0.699998611412257 12.991101032403217 18198.69581223804 14.230865547665427 0.25428552160197826
0.7222205595687767 12.988028492998456 15752.082383486912 14.903880486531412 0.25788315058113803
0.7447961730676511 12.986650780680874 13654.457375374901 15.605774195000686 0.2615331892716362
0.7677049594486907 12.98675261153169 11854.138527732805 16.337673255826747 0.2652361484426544
0.7909377891997357 12.988113735712265 10305.218915679527 17.101257380913367 0.26899738816852564
0.8144997888504878 12.99063005360456 8971.28376299666 17.89797890693976 0.2728193356919276
0.8383680606732502 12.994089641548571 7819.67748053935 18.729289442333016 0.27670385712891765
0.8625382763864022 12.998346026047443 6825.970865628882 19.596358160187265 0.28064987928039875
0.8870005527153546 13.003281676906704 5965.669670891579 20.5013507631924 0.28466451384240427
0.9117485981030732 13.008767738423085 5220.056647842213 21.446057768199687 0.28875076699033336
0.9367558318045205 13.01466000074488 4573.694388104363 22.43207295294618 0.2929094559276694
0.9620221264193757 13.020846218764438 4011.822431150882 23.461198048459497 0.2971426015916313
0.9875340500926558 13.027248517939466 3523.0010947395167 24.535957188097612 0.30145716332234346
1.0132689524089091 13.033709733274607 3097.8830233425047 25.658421927660186 0.305855748714858
1.0392148842274231 13.040147552858182 2726.6011879229995 26.83028882053211 0.3103376747054359
1.0653569432113887 13.046485486052084 2402.7999881356873 28.05477478311044 0.31491261354893985
1.091673203852445 13.052607412274103 2119.8129987929665 29.334085815653534 0.3195820677794152
1.1181597714409768 13.058448082458657 1872.2816677537958 30.67066698230008 0.32434861316763
1.144778759935955 13.063902993302081 1655.4114006298003 32.0681644283359 0.3292220074947499
1.1715295675062463 13.068925986681172 1465.0339578180854 33.52837800892944 0.3341990411992742
1.198378414826357 13.073401406471811 1298.0961705539014 35.05580141641213 0.3392930301090389
1.2253092905061285 13.077265465264047 1151.44748153043 36.65272187342554 0.3445023907705468
1.2522940218019751 13.080444202564598 1022.3272470150621 38.32379455406673 0.3498391810087812
1.2793253275605394 13.08289983723515 908.6451041771232 40.07164022563461 0.355302284177131
1.3063592492210299 13.08450375759594 808.516912480459 41.90154486240961 0.3609051826796274
1.333386318870712 13.08522869312332 720.1124328502257 43.81672205838333 0.3666483639808009
1.3603854832571745 13.085046809235147 642.1012020912689 45.82233763972651 0.3725422677253465
1.387309856786983 13.083808469004465 573.0776127632923 47.923472141975665 0.3785954857108459
1.4141490725103918 13.081526620739163 511.98942687915763 50.124581000304595 0.38481217630093656
1.4408805242998624 13.078129572981425 457.91167415564144 52.43143263550953 0.3912021992804017
1.4674626880481523 13.073541563921696 409.96275804167294 54.85015017833079 0.3977757720124505
1.4938649412948273 13.067704918712137 367.38023891605394 57.386905522304694 0.40454192537807854
1.5200711379433565 13.060600923140427 329.59487568599855 60.04830706122201 0.4115103978711413
1.5460511313399952 13.052139816447292 295.9844678559793 62.841438967867056 0.41869169381992666
1.5717642906235767 13.04229419972529 266.09534750512773 65.77390423095072 0.4260971463558592
1.597179204723288 13.030997866414374 239.47993884134553 68.85387183140035 0.43373898568496333
1.6222715219979775 13.01822565422715 215.74956215205788 72.09012848653579 0.44163041328573277
1.647021048003277 13.003926782903514 194.55875763409946 75.49213544436849 0.4497856827323995
1.6713767537536364 12.988040051883068 175.6558497371559 79.07009087112101 0.4582201879263793
1.6953136771844584 12.97053920926503 158.76201989380755 82.83371444700528 0.46694528874619673
1.718778559107014 12.951336908296446 143.63090921637584 86.79571649704171 0.47598255583485766
1.7417927403850877 12.930507901975055 130.1035992418629 90.9682478121114 0.4853487327096084
1.7642733623131257 12.907901580368987 117.97149428309783 95.36440388670611 0.49506188079358526
1.7862034021876572 12.883513162325759 107.09240653558042 99.99878866857227 0.5051433202513539
1.807547512113205 12.857311950121654 97.32160009408086 104.88738857484147 0.5156167503693104
1.8282773766909892 12.829262823147811 88.5568051654511 110.04623629178123 0.5265029496717838
1.84835810639564 12.799334192873443 80.66709956774967 115.49367789355232 0.5378281310205513
1.8677561271747534 12.76749558641755 73.56464141601477 121.2496230571857 0.549620646648775
1.8864395650266572 12.733714541507275 67.17222741232833 127.33531311814126 0.561909800234376
1.904376962113515 12.697962660826471 61.408643124809714 133.77373293151777 0.5747269926539713
1.9215174080062658 12.660163043723031 56.21255048448068 140.58922222814084 0.5881039552821763
1.937874400338836 12.620435005861653 51.521112275262354 147.80997068140897 0.6020810143693734
1.9533835015804693 12.578644396697591 47.27943492387546 155.465074035544 0.6166962090797865
1.9680204863535466 12.534788231615005 43.44712062096657 163.5868215585795 0.631992736212969
1.9817611341308392 12.48887141063474 39.97675635066599 172.20977662737252 0.6480151414126333
1.9945705068231754 12.440874125380542 36.83517845199654 181.37286810674567 0.6648156731003766
2.0063946814444065 12.390930808725347 33.995479806573684 191.13205990292366 0.726890529973526
2.0158904839794496 12.339965951401119 31.58892426201861 201.82240779626608 0.9181702759848722
2.022333861692429 12.286646464033609 29.59336308994049 213.64480535650267 1.115838332959656
2.02573925670618 12.229930122290392 27.924548039234097 226.70435457450435 1.3207792385272326
2.0262205300843843 12.169250820889246 26.522080683418345 241.11613893397185 1.5340076660336333
