M[M_sun], R[km], Lambda[1], P_c[MeV/fm^3], rho_c[fm^-3]
0.24162668629717493 15.618656898711224 2160425.4255784233 3.5677272577965504 0.1711233750220791
0.2536415654425988 15.277359593657742 1723190.4510712961 3.7847917242619284 0.17388782552067308
0.26603747877911504 14.981309560523474 1383182.9029220794 4.01134287354297 0.1766659528435064
0.27881055466777355 14.723605381494576 1116548.6698288268 4.247637664416721 0.1794564639727895
0.29196286785347647 14.498506218100166 905971.746808353 4.494300833509544 0.18226591700848252
0.30549578330570515 14.301366956886893 738762.0658758963 4.751485555817313 0.1850899706378271
0.3194102940052908 14.128267165228053 605203.7521139657 5.019878087873309 0.1879353309629858
0.3337067543475951 13.9760577553046 497765.2085691512 5.299697000850719 0.1907985138502649
0.34838502949409084 13.842160173715357 411088.96650359785 5.5916772134842025 0.19368594370827313
0.3634454071750421 13.72410556153495 340727.4423232805 5.895978027674862 0.19659253634944981
0.37889683802758284 13.620117932955633 283365.40341716167 6.213466763021895 0.19952604089169346
0.39472572425553026 13.528586899954462 236462.62951000064 6.544406532069435 0.20248273731962962
0.41094785662138306 13.448014299664118 197925.06748818114 6.889488293185204 0.20546614388419035
0.4275529371998777 13.377170973014344 166129.99691682708 7.2494220487912155 0.20847942545828602
0.4445454396735536 13.315030606743317 139851.2297021681 7.624474975047414 0.21151826054994305
0.4619231942812708 13.260682023441547 118017.20717347425 8.015579596473993 0.2145885572731224
0.4796856880707644 13.213243563409105 99847.13849124 8.423448177820266 0.21769208397149556
0.49783834098271607 13.172079659574177 84675.9344853272 8.84853275074227 0.22082647116427734
0.5163731060593544 13.136487666137166 71967.56930618931 9.291684177511838 0.22399481099073032
0.5352883473254747 13.105915769214423 61300.90311599304 9.753797332982167 0.2272001743399428
0.5545913953472682 13.079894848142043 52320.204430914484 10.235681352111552 0.230443911421128
0.574269229866325 13.057924002443487 44750.20347722988 10.737822991495545 0.23372291924017233
0.5943239457819902 13.039572241622535 38345.68669652186 11.261435603346168 0.2370429942185453
0.6147564575139757 13.024541775158138 32917.66279745613 11.80747100318064 0.24040594039353871
0.6355544254823874 13.012460834479608 28308.82953969398 12.37690761549483 0.24381338967321106
0.6567234354909195 13.003054582049124 24384.11768721696 12.970455809682758 0.24726353626350414
0.6782508135237619 12.995994866622365 21038.70149894694 13.58939931787926 0.25076068678222274
0.7001343702352957 12.991071709683446 18182.435814533263 14.234955486688555 0.25430770972078826
0.7223643452581596 12.987994027425238 15622.727334931627 14.908313245947697 0.25790658825111323
0.7449471788002815 12.98665993458648 13641.800335257429 15.610529413071946 0.2615574947921557
0.7678636105275891 12.986754107989649 11842.283846219472 16.342815304219435 0.2652617802642217
0.7911038082339404 12.988122566208363 10294.883500419612 17.106812053325925 0.269024398659498
0.8146744638758195 12.990653556027414 8961.960356260732 17.903973706612604 0.2728477805877265
0.8385516322960029 12.994115174611842 7811.8613012548 18.735697785144808 0.2767333001483722
0.8627285593578172 12.998386122435821 6818.906611041666 19.603263336716797 0.2806808584526198
0.887198666275641 13.00332838647248 5959.365569873733 20.508785990432223 0.2846970961610194
0.9119552966949035 13.008810331143566 5214.624921585861 21.454058537027997 0.2887850239655376
0.9369691860158433 13.014703834840354 4568.234281084413 22.440605943675962 0.29294489711321275
0.9622437853075052 13.020908431249293 4007.3110127914892 23.47037029760928 0.2971798528207693
0.9877637325575729 13.027298083959268 3518.9564813932393 24.545811845130554 0.30149631119651
1.013501046469959 13.033764403817607 3094.0286681643356 25.668920858007382 0.30589626610904763
1.039460252016647 13.040213016982376 2723.4513560071223 26.841560316747543 0.3103802563884846
1.0656108372848576 13.04654663569136 2399.9433285613586 28.066871577177842 0.31495736485028436
1.0919339610181598 13.052665064632638 2117.2001052342976 29.346965049053615 0.3196284251117659
1.1184277039494643 13.05850156214559 1869.9685223104434 30.68448234514661 0.3243973477552843
1.1450542647666213 13.063963061361372 1653.186643665817 32.08293896281033 0.32927297794823385
1.1718129414351603 13.068975167839934 1463.2253555835841 33.544147900212714 0.33425218735884266
1.1986641677677705 13.073434631599572 1296.4185095208597 35.072709166961644 0.3393489394564046
1.2256066938247434 13.077303466442203 1149.9059712895933 36.670718438260415 0.3445604449028958
1.2525976922455098 13.080472675299498 1020.994898117332 38.34308688233009 0.3499002948754207
1.279635818061111 13.082923721569987 907.4583849293122 40.09217804783378 0.3553658213377721
1.3066751460787043 13.08451576924723 807.3964413786838 41.923413027700626 0.3609712934563146
1.3337093137560343 13.08523678825017 719.1940636595546 43.840165606383955 0.366718050329569
1.360713794118716 13.085035952447434 641.14010332348 45.847307471690065 0.37261487660480125
1.3876422270990199 13.083788830224513 572.2948089982361 47.95007485124803 0.37867120560897644
1.4144952656132044 13.081507836162041 511.23849927858726 50.15310811984333 0.3848921124336377
1.441223925712838 13.078082347131229 457.2583275437423 52.46183890256489 0.39128568349749193
1.4678096101817624 13.073472782694738 409.37110492016103 54.882570149040575 0.3978630407429966
1.4942155284958127 13.067616436154312 366.848625457444 57.42148464812425 0.40463323332166534
1.5204247405459648 13.060489288399683 329.12310343744355 60.085202664022276 0.41160601949757536
1.546407322051872 13.052012620870233 295.54747764166785 62.8808213122896 0.4187919250175172
1.5721218183108536 13.042147232455454 265.693921051722 65.81595770484802 0.4262023062442144
1.597544575693485 13.030833969490834 239.1370114650786 68.89879624650219 0.43384941861010307
1.6226325670525836 13.018033106048263 215.43341181306775 72.13814051297965 0.44174649101745433
1.6473834103604266 13.003706652856476 194.27304988921773 75.54347019441788 0.4499078068862199
1.6717319181073496 12.987790201316903 175.3816359203289 79.12486695236798 0.4583482217430971
1.6956712339370053 12.970259716286533 158.50797211988473 82.8922023298014 0.4670796937305179
1.7191431247439117 12.95106146870487 143.41533847769435 86.85834820578462 0.47612438583977335
1.7421400291533469 12.930148371254921 129.9039318898607 91.03504942469702 0.4854973417088217
1.7646249737115944 12.907527841383784 117.78467846979804 95.43601845793727 0.4952190191536231
1.7865505920307985 12.88310481081406 106.9175089748735 100.07527854083723 0.5053083820772825
1.8078915431419882 12.856869894831867 97.17451123017125 104.96915011785744 0.5157903711772837
1.8286051941653065 12.828757734665981 88.41009646873741 110.13404748882026 0.5266871036640387
1.8486884716465273 12.798817383271638 80.53870596784857 115.58767640413265 0.5380222995070179
1.8680793153535693 12.766935075705208 73.4488154250508 121.35032547048286 0.5498256398589305
1.886755247802837 12.733111996379675 67.06947657251264 127.44328440017091 0.5621264977358915
1.90468316483424 12.697322321002439 61.31301679233159 133.88919474736386 0.5749549501290271
1.921831276486584 12.659535287440034 56.12521366294086 140.71323360414175 0.5883455766017689
1.9381593455996389 12.61970396980817 51.439903953251566 147.94327367459925 0.6023374293090125
1.953657616078134 12.577868334921508 47.207497684689244 155.60804501353263 0.6169671533946716
1.9682812363120437 12.533965059337225 43.378979649648656 163.74077520229505 0.6322810042544664
1.982006959843889 12.487999025975963 39.91473758911321 172.3752272218197 0.6483206278452862
1.994805943269718 12.439951025783834 36.777025941714335 181.55086396482227 0.6651398950239155
2.0066441805694906 12.389809695556401 33.936001714164036 191.30945380454617 0.6827925695278735
2.0175087984107245 12.33758622299089 31.35533527962666 201.6969555943433 0.7013377862937613
2.0273569552671127 12.283238077720352 29.017350247407563 212.76355132753056 0.7208391483288241
2.0361787892651315 12.226803354345803 26.893618787896287 224.56400980726036 0.7413648154870148
2.0439356100884365 12.16824492936331 24.963910646272385 237.1600310823819 0.7629938853410773
2.0506091128674644 12.107576622623776 23.208272515373448 250.6177951576166 0.7858069471176771
2.0561891382158186 12.04484543649139 21.61217848560726 265.01070594184205 0.8098934126558738
2.0606567818561414 11.980055343778357 20.1595814041326 280.4205647909772 0.8353534708112703
2.063983626645943 11.913208815380736 18.837249166262676 296.9362868200401 0.8622917689830385
2.0661538618686706 11.844332904055536 17.63313947346499 314.6583129702782 0.8908293773155733
2.0671626479875487 11.773478485901403 16.53640041898641 333.69624855337776 0.9210932522600354
