M[M_sun], R[km], Lambda[1], P_c[MeV/fm^3], rho_c[fm^-3]
0.24162668629717493 15.618656898711224 2160425.4255784233 3.5677272577965504 0.1711233750220791
0.25364180878431525 15.277385801556896 1723125.03607346 3.7847996092150495 0.1738879238028099
0.2660379032291157 14.981271563912696 1383061.42776816 4.011359449157719 0.17666615315002837
0.2788117147154464 14.723570755825936 1116512.297113344 4.247663491337709 0.17945676352615264
0.2919646373520821 14.498490700296935 905943.884057768 4.494336589315956 0.1822663151576854
0.3054984311134468 14.301317396568793 738773.5853688907 4.751532454422723 0.18509047723227284
0.3194132949641887 14.128234085654091 605202.9509831542 5.019936474597517 0.18793593674778467
0.3337105725158175 13.976006721230288 497722.30766777834 5.299768412663303 0.190799232848724
0.3483892408758094 13.842125371555342 411067.457280122 5.591761828531179 0.19368676238212945
0.3634498527927019 13.724094525196145 340704.0721319723 5.896077746718894 0.19659347293181417
0.37890228230195533 13.620082592478257 283353.23906772124 6.213582792578936 0.199527098941545
0.39473161097347864 13.528555525758128 236451.69648510034 6.544538751520329 0.20248389670559425
0.4109547960431633 13.447957994224568 197905.62717656832 6.889639254707262 0.20546742953586075
0.427561588175334 13.377127708878843 166112.4967758429 7.249593168712661 0.20848084108954185
0.4445543981181561 13.314992992069836 139838.02893490414 7.624665780271821 0.21151977948221667
0.4619325842850034 13.260646409229444 118011.40397375182 8.015793414684259 0.2145902113298434
0.47969506438112325 13.213229870645499 99845.10381976575 8.423686676003724 0.21769387714442082
0.4978496524141187 13.172060231367883 84668.50839186239 8.848795049405563 0.22082837031867117
0.5163853878311396 13.13646831979306 71958.34162595113 9.29197452091314 0.22399685502637628
0.5353015869981813 13.105894816631398 61293.77228643796 9.754117689321083 0.22720236766901353
0.5546057100426769 13.079862503871013 52316.18378766981 10.236033809165834 0.23044625864761556
0.5742854919363538 13.057893843058483 44743.15737141831 10.738206017783526 0.23372537838758786
0.594339590296984 13.039558151633587 38340.98617683322 11.261854958230247 0.2370456143554498
0.6147744246943305 13.024550624357458 32913.071381520414 11.807929163487005 0.240408726772625
0.6355719274756286 13.012454739265971 28303.9744162258 12.377407212550278 0.24381634782444797
0.6567414078424193 13.003039444489273 24379.684841824586 12.970994549293007 0.24726661547819573
0.678270510729901 12.995999032166347 21035.990237526305 13.589984849125656 0.2507639468633295
0.7001557194816291 12.991076601145027 18179.82212134251 14.235590948417217 0.25431115713167995
0.7223861489035444 12.988005270450698 15735.289109874613 14.90900197865336 0.2579102298405478
0.7449707185691773 12.986644195973106 13639.8393246902 15.611268252861766 0.2615612712510694
0.767887675259626 12.986765405392454 11840.480084256555 16.343614254911135 0.26526576283303605
0.7911290457920016 12.98813179895463 10292.960544461794 17.107675123802398 0.2690285954789649
0.8147004940514322 12.990655110449445 8960.293562806777 17.904905171503962 0.2728522003220331
0.8385786618324488 12.994122749296688 7810.333339127259 18.73669351338697 0.2767378750044413
0.8627576723285055 12.998387456406968 6817.72062904169 19.604336272924684 0.28068567204071915
0.8872291191616302 13.003334409547382 5958.495491646109 20.509941297446073 0.2847021588954873
0.9119866024604545 13.008824932390269 5213.744386524835 21.4553017311775 0.2887903469628729
0.9370022261990645 13.014712211093112 4567.631322453466 22.441931846854864 0.2929504041601631
0.9622785483708653 13.02092592996349 4006.690829374383 23.471795545788 0.2971856411771056
0.9877995138279033 13.027306807295046 3518.395285329629 24.547343145230872 0.30150239432486625
1.013539351311969 13.033766937885632 3093.73788678841 25.670552283358795 0.3059025620936735
1.0394979781897038 13.040217265297425 2722.8809586976513 26.843311807811023 0.31038687320633224
1.0656483487820003 13.046558129224962 2399.4139839593586 28.0687513306141 0.31496431887562454
1.0919742609248513 13.052681050316814 2106.2694556199513 29.34896640369059 0.319635628759621
1.118469737840224 13.058513221889028 1869.5992590144926 30.686629189971907 0.3244049208895176
1.1450967869785338 13.06396561783268 1652.9605799139983 32.085224292115946 0.32928083011463205
1.1718569851865723 13.06898231200887 1462.9323541884262 33.54659851459937 0.3342604461819946
1.1987093412033505 13.07344456890494 1296.1623005271424 35.075336629764465 0.33935762776358674
1.2256523570646058 13.07731765814536 1149.683458750155 36.67351512616774 0.3445694665851668
1.25264439563203 13.08048492363236 1020.765965707768 38.34608496501801 0.3499097921441309
1.2796836723021585 13.082922256909821 907.264396976519 40.09536971140142 0.3553756952785845
1.3067242346219794 13.084517465362028 807.2522278478256 41.92681146199634 0.3609815674380511
1.3337593711060804 13.085229283963907 718.9680949361899 43.84380890383262 0.36672888009376114
1.3607653030345772 13.085038914119634 641.0064341750958 45.851187999988106 0.37262616065396204
1.3876941218318095 13.083787003718973 572.1588103592502 47.95420918107835 0.3786829732462642
1.4145480969322488 13.081500797408896 511.12901801703697 50.157541573303675 0.3849045354588102
1.4412688849654292 13.078056505507837 457.1306354701238 52.466564443289116 0.3912986580618136
1.467863012837189 13.073462948507128 409.27541705383203 54.88760869565461 0.39787660360431876
1.4942691178844538 13.067606739029003 366.7708660672411 57.426858813417724 0.4046474240789449
1.5204799361963697 13.060470190238977 329.04479353392753 60.090936906603844 0.4116208808241401
1.5464627478446813 13.05199289404151 295.48900459024657 62.88694210337339 0.41880750291744995
1.5721773059578292 13.042124005685547 265.63296054323746 65.82249371185304 0.42621865033432726
1.5976001308464738 13.030808176754814 239.07495923058858 68.90577853535666 0.4338665824302802
1.622680323082715 13.017975572680491 215.37722552912058 72.14560277124924 0.4417645323724567
1.6474393627818955 13.003671665800532 194.22775903127337 75.5514489776462 0.44992678822243637
1.6717879877476391 12.98775021184026 175.34689979403893 79.13336030803336 0.45836803664469417
1.6957270255658028 12.97021377770445 158.46659602775233 82.90129309800963 0.4671005842893838
1.7191892106397173 12.950978395644828 143.38423643841662 86.86808316861581 0.4761464307408932
1.7421950099925996 12.93009676853545 129.87072520421458 91.04543263481195 0.48552044052940513
1.7646757151373895 12.907459917819146 117.75646608714808 95.44714990749387 0.4952434440394822
1.7866041348891148 12.883040485658706 106.89306252538243 100.08716792128531 0.5053340388444832
1.8079445952694129 12.856800885191458 97.15156293521598 104.98185906269251 0.5158173586482799
1.8286577741118373 12.828685062261519 88.39207388085215 110.14769697798113 0.5267157288053188
1.848739816212629 12.79873420619232 80.5189705145928 115.60228784121217 0.5380524816940049
1.8681302389810945 12.766848612922438 73.43263953448837 121.36597918746756 0.549857505090264
1.8868040205029493 12.733018436558439 67.05283000190191 127.46006825371903 0.562160182796042
1.9047309088413185 12.69722142034922 61.2997886814464 133.90714320263953 0.5749903859526871
1.9218777425993379 12.6594298301008 56.11195055827122 140.73251135840397 0.5883831369980311
1.9381958782574962 12.61955931214046 51.42725194363906 147.96399613101752 0.6023772899849396
1.953699661309527 12.577749223469189 47.19789126905388 155.63027069791883 0.6170092732914059
1.9683216810940993 12.533836906779717 43.36806592208668 163.76470858442647 0.6323258179336164
1.982046055901376 12.487863545423549 39.904859013322785 172.40094827937864 0.6483681189657865
1.99484094374873 12.439808926855314 36.77091243898641 181.5785357400352 0.6651902995461566
2.0066788884506455 12.389659931075707 33.92647715995003 191.33925592704978 0.682846145160921
2.017539976720387 12.337426492606124 31.348585274536763 201.72908621230079 0.7013948149712117
2.027384740534695 12.283068435198878 29.010778003526287 212.7981482711336 0.7208996736117883
2.0362038728078558 12.226627576405216 26.887707733567705 224.60139316739313 0.7414294335149759
2.0439580641326525 12.168060627776146 24.958304171978607 237.20038291946645 0.7630626889300893
2.0506272237142236 12.107383311720405 23.201784148364442 250.66149445210453 0.7858806142504432
2.056205331708577 12.044643584191515 21.60653446649709 265.0579905842727 0.8099720970480583
2.060671442764393 11.979842631913623 20.155978899976677 280.47173718675947 0.8354374625765747
2.063991338800517 11.912989568742894 18.832952148463104 296.9917660080953 0.8623816552085106
2.066159131385109 11.8441047179273 17.629558402157212 314.71857941580726 0.8909258520413678
2.0671637791628066 11.773243371287704 16.5329985724328 333.761699586194 0.9211966269381769
