M[M_sun], R[km], Lambda[1], P_c[MeV/fm^3], rho_c[fm^-3]
0.24162668629717493 15.618656898711224 2160425.4255784233 3.5677272577965504 0.1711233750220791
0.2536451946972106 15.277266054878107 1723012.2739994505 3.7848556437453045 0.17388862224619758
0.2660434057941202 14.981204752586237 1382882.1733667646 4.011477245408324 0.17666757664819835
0.278821655247948 14.723371168756954 1116306.8083045739 4.247847035038065 0.1794588923564823
0.2919782205035922 14.498270175884393 905734.2019569881 4.494590697308063 0.18226914470915292
0.30551548967765535 14.301090884871204 738544.201655233 4.751865755442853 0.18509407751940482
0.3194352451053641 14.127976703226253 604995.5461397251 5.020351424360062 0.187940242011727
0.33373550590751405 13.975810871171985 497579.2301671507 5.300275936341881 0.19080434277003322
0.3484192967301233 13.84187319839996 410910.9936112233 5.592363193834754 0.19369258075687143
0.3634846073309669 13.723827435555172 340545.9338244702 5.896786464951001 0.19660012936343088
0.37894024309906654 13.61987750229213 283222.8832497384 6.214407440996031 0.19953461874216757
0.394776741512474 13.52830920162125 236335.61346879014 6.54547847447158 0.2024921368063732
0.4110048258483518 13.447726037676757 197799.95545327917 6.890712194505904 0.2054765671414277
0.42761615442693773 13.37694312486396 166023.0203124737 7.250809394585435 0.20849090261449532
0.44461456326550824 13.314798249450678 139747.85287683364 7.626021931199793 0.2115305753156055
0.4619977256304614 13.260443186271809 117928.22231012059 8.017313146498106 0.2146019676840739
0.4797674958272394 13.213052391525036 99766.57439493325 8.425381840396977 0.21770662241086172
0.49792844873459924 13.171890552253837 84603.29240012416 8.8506593964591 0.22084186898791297
0.5164715175001113 13.136313020277376 71909.0552755316 9.29403822329253 0.22401138361978404
0.5353931522081359 13.105767766256974 61247.30368590711 9.756394740721325 0.2272179575682131
0.5547043296909815 13.079731976976873 52277.40623665752 10.23853087248454 0.2304628374062372
0.5743908370919238 13.057777402538763 44708.28354178695 10.740928570285456 0.23374285801799147
0.5944519508531724 13.039488975043305 38306.73801850428 11.26483576444822 0.23706423848664127
0.614892993777784 13.024461745605198 32885.81466381453 11.811185834207109 0.24042853276423834
0.6357019159103392 13.012396282730265 28276.292375285477 12.3809584573193 0.24383737500823824
0.6568767531370259 13.002986517956213 24356.49973381963 12.974824060127162 0.24728850339175895
0.6784131466656715 12.995958952105665 21015.05045067162 13.594147009390122 0.25078712065657255
0.7003065789402908 12.991036298374175 18161.66693350284 14.240108077016664 0.25433566277479047
0.7225452469372531 12.988004202485035 15719.240414935379 14.913897828610878 0.25793611604477784
0.7451382005298931 12.986651570302337 13625.48935736444 15.616520331961608 0.26158811639558605
0.7680630094998907 12.986755708667753 11828.231872966458 16.349293692061668 0.26529407340277944
0.7913132813178243 12.988150457635188 10282.592640919278 17.113810425640377 0.2690584293742155
0.8148918343761209 12.990689830709261 8950.237670182392 17.911526734734142 0.2728836191660958
0.8387794099136497 12.994154094234615 7802.221108508442 18.74377196773209 0.2767703968396665
0.8629662005396985 12.998418833252947 6809.293824622552 19.611963662017466 0.2807198913252359
0.8874507296862089 13.003393111930668 5951.08365844525 20.518154335277746 0.2847381497007173
0.9122134351759056 13.008873065985922 5207.524094113163 21.464139645975965 0.28882818835469487
0.9372377610307329 13.014777028790082 4562.2908503095205 22.451357821462338 0.29298955429234647
0.9625263902191824 13.02098697077785 4001.4982941432736 23.481927878296563 0.2972267915900322
0.9880530036100346 13.02737992164487 3514.0686248352763 24.558229532235135 0.30154564077242363
1.0138012417278373 13.033830513404805 3089.777557332213 25.682150582977222 0.30594732216560744
1.0397687244140508 13.040285481590207 2719.32563714144 26.855763822565045 0.3104339146758443
1.0659248653792386 13.046619109906576 2396.4775399125197 28.082115353647037 0.31501375820794597
1.0922629991593649 13.052740194679709 2113.9483181293103 29.363195067847364 0.3196868432141411
1.118766034936791 13.058576883429971 1866.8738137462078 30.701892384624312 0.3244587627976843
1.1454021850821445 13.064037284390292 1650.6503463499014 32.1014721983588 0.3293366563201281
1.1721692057456834 13.06903433329512 1460.9129378710747 33.56402173392385 0.3343191642275272
1.1990296443692898 13.073491123941693 1294.3972066077572 35.09401740392536 0.33941940001936755
1.2259813272977431 13.07735429524431 1148.0593768608344 36.693399241453335 0.34463360966308326
1.2529808411619583 13.080513320440952 1019.2674340093765 38.36730239014018 0.3499767376673687
1.2800273200200933 13.08295290258976 905.8701367697613 40.11806253068437 0.3554458992802648
1.307081172395394 13.08455475635479 806.0718700849523 41.95097465843963 0.3610546164416074
1.3341155452999094 13.085235662177439 717.8941377602983 43.869713410591146 0.3668058816846718
1.361126455106323 13.085028536101348 640.0143518151023 45.87877953448497 0.37270639308825226
1.3880681828646657 13.083778648517596 571.2433561084455 47.98360560501022 0.37876664495814644
1.4149147062454983 13.081446604188288 510.3454744334682 50.18906525723522 0.3849928682951682
1.4416480698393659 13.077998448716475 456.4460077276856 52.500165340287474 0.39139091353580285
1.4682449760078358 13.073389500614475 408.625404901511 54.923435600095765 0.3979730431877461
1.494657092389857 13.067513769565632 366.1805376230951 57.46507257287404 0.4047483294578398
1.5208696702131759 13.060355831773375 328.5251310873037 60.1317115010659 0.41172655555889803
1.5468550545565818 13.051856992819927 295.0037813113383 62.93046583216529 0.4189182742675152
1.5725727390692545 13.041959780822896 265.1996725562074 65.868970500233 0.4263348712650661
1.5979869739974393 13.030611097586576 238.66198009888797 68.95542937425759 0.43398863382177955
1.6230959864677326 13.017792047170735 215.0095851770691 72.19866730526657 0.44189282545233316
1.647838208156127 13.003424550740037 193.89503339374892 75.60818725824988 0.4500617672473909
1.6721860019908312 12.987475348329763 175.0625092688848 79.19375843157555 0.45850894477591864
1.6961231926403817 12.969908020774557 158.20151343941552 82.96594040184466 0.46724914360531317
1.7196025016101066 12.950674960681235 143.13400208103016 86.93731247315392 0.4763032010542061
1.7425868754250395 12.92972719952198 129.6449783576041 91.11927275498921 0.4856847076172283
1.7650631929719036 12.907047651344383 117.55593466161763 95.52631224615564 0.4954171438865974
1.7869729317930272 12.88255837858178 106.71187965080549 100.17172140964111 0.5055165016041059
1.808322868071206 12.856312292824812 96.9868965886937 105.07224219582056 0.5160092874209279
1.8290350579653611 12.828164639728683 88.23884340205356 110.24443839076365 0.5269180714775685
1.8491052065267335 12.798164919283893 80.38486653010558 115.70620408049759 0.5382671367856311
1.868476308939095 12.766200555222728 73.30918332191413 121.4773096767092 0.5500841331682872
1.887136819791051 12.732318538507558 66.93918390760226 127.94095789659788 0.5620929195206299
1.8892884766561995 12.705793386960337 65.07970169855355 137.19828632102832 2.6887309948667055
