M[M_sun], R[km], Lambda[1], P_c[MeV/fm^3], rho_c[fm^-3]
0.24162668629717493 15.618656898711224 2160425.4255784233 3.5677272577965504 0.1711233750220791
0.25364529747122927 15.277257118670429 1723123.741654921 3.7848495457622264 0.17388854623778027
0.2660428641438981 14.981275612140937 1382963.5689698632 4.011464426058127 0.17666742173391667
0.2788197485095575 14.723436470751977 1116345.759176823 4.247827060444374 0.17945866068129657
0.2919764018653981 14.498311064987728 888578.2675737513 4.494563043138445 0.18226883677355601
0.30551371644252234 14.301134764327497 738546.9348258303 4.751829482497564 0.18509368570236776
0.3194324692827561 14.128012665498744 605014.0394017649 5.020306265250799 0.18793977346853855
0.3337328280551537 13.975810533007145 497578.07408524357 5.3002207019039895 0.19080378665089415
0.3484159910452971 13.841904295433393 410931.171319967 5.592297745963705 0.19369194753071495
0.36348172902126186 13.723837187852437 340589.60473911447 5.896709332974871 0.1965994049235882
0.37893641101323144 13.619883745606629 279325.993149629 6.214317691224536 0.1995338003323173
0.3947716077458401 13.528362476373532 236349.02714516904 6.545376199891117 0.20249123999646873
0.41099930426558795 13.447776883614058 197817.96559793127 6.89059542032638 0.2054755726435125
0.4276087322078001 13.376967024852114 166023.29956352583 7.250677024672567 0.20848980755212967
0.44460788469190277 13.314841054355957 139760.16577041036 7.625874331228926 0.21152940032493095
0.4619903099917215 13.260484270921697 117940.45295255304 8.017147741466026 0.21460068814242655
0.47976019437301476 13.21306570101141 98704.94229764189 8.42519734009355 0.21770523522650664
0.49791970589246326 13.171909016307074 84610.63628632696 8.850456481016383 0.2208403997934086
0.5164619562303532 13.136322247801655 71914.33248699905 9.293813608239454 0.22400980231580728
0.5353834374764864 13.105779116531131 61254.12449519059 9.75614690262163 0.22721626073739426
0.5546939805412299 13.079759635029337 52282.91921204384 10.238260847312304 0.23046105558125904
0.5743794771635862 13.057802201166396 44712.7439475939 10.74063223874284 0.23374095547769586
0.5944399226425647 13.039472819118016 38312.389974676764 11.264511321182008 0.23706221135924274
0.6148809078439524 13.024487972008696 32887.890177370704 11.810831361934314 0.24042637698139582
0.6356884394946427 13.012402322799103 28279.338704110552 12.380571919115813 0.2438350862868531
0.6568623001778658 13.003004526622348 24358.916566680102 12.974407231078876 0.24728612096784774
0.6783971641215153 12.995962732459375 21017.075404904288 13.593693969071413 0.25078459824945476
0.7002898839079684 12.991040823215457 18163.787167573657 14.239616395486845 0.2543329953784947
0.7225280715681355 12.988002464839864 15720.554477134761 14.91336491976696 0.2579332983548385
0.7451199612586122 12.98663829297468 13627.132060097647 15.615948644206576 0.26158519430699784
0.7680439500108099 12.986768743153807 11829.469392778332 16.34867548164411 0.2652909917789004
0.7912940593880072 12.98814836501595 10215.866177502483 17.113142588828165 0.2690551819099462
0.8148709420047519 12.990684388973095 8951.053059565578 17.910805961977307 0.2728801991509024
0.8387577199184413 12.994148987374706 7803.286837590848 18.74300145635398 0.2767668567385574
0.862943546763697 12.998418274863207 6810.371910675542 19.61113339085918 0.2807161664221733
0.8874284894816569 13.003380466475594 5951.763813090423 20.517260306864753 0.28473423192959024
0.9121883725146643 13.008878877970329 5208.163845229281 21.463177589037212 0.28882406910548225
0.9372123664861761 13.01476615145464 4562.771434044598 22.450331744246572 0.29298529255175193
0.9624998770164245 13.020990096776217 4002.086372498168 23.480824900638158 0.2972223120700348
0.9880257130569174 13.027356292775805 3514.322027890804 24.55704446065897 0.3015409330456314
1.0137720938939718 13.033819811089627 3090.220950951289 25.680888005626425 0.30594244963645206
1.039739725771231 13.040277471486464 2719.7078464753517 26.854408299605762 0.3104287937541925
1.0658950605010784 13.046610009553804 2396.826321498319 28.08066053760508 0.31500837621080424
1.0922308858369292 13.052738446731727 2114.3775193649394 29.361646115978626 0.3196812679384749
1.1187333319646717 13.058567565271522 1867.130396433139 30.70023079826871 0.32445290144414685
1.1453681892338228 13.064022606721998 1650.9042267788282 32.099703401866016 0.3293305789095983
1.1721359346294735 13.06902827788156 1461.131510066325 33.562124972867196 0.33431277194720205
1.198994275841719 13.073486331506166 1294.4966582376833 35.09198372263066 0.3394126751866582
1.2259426716923905 13.077361599934086 1148.1814529348662 36.691234543030006 0.3446266266810577
1.252944662627111 13.080510849831015 1019.4304764326558 38.36499788679283 0.34996948100725267
1.2799903609017418 13.08294996059807 906.0383786292036 40.115592020344245 0.3554382563466167
1.307043472059192 13.08454933018754 806.1713875787774 41.94834405214909 0.361046663720256
1.3340768194255936 13.085238705738757 718.0264929468473 43.866893204464446 0.3667974985735601
1.3610876514467432 13.08502933026438 640.1427346076268 45.87577563954791 0.37269765816982353
1.3880291900196988 13.083777698900892 571.3524910325331 47.98040518624164 0.3787575355332134
1.4148738466911592 13.08144988622116 510.4360918915676 50.18563320797595 0.38498325131492406
1.441606610758719 13.078004276973683 456.5188967883224 52.49650711056619 0.39138086940760847
1.4682030630685472 13.073398704230502 408.69490702604224 54.919534985738906 0.39796254343540766
1.4946144871524372 13.067524899391442 366.24901464976926 57.46091205685651 0.40473734340331075
1.520827438752362 13.060368469980368 328.58628066542815 60.12727213593867 0.411715050141407
1.5468118897215226 13.05186991357475 295.0544063422232 62.92572711074788 0.41890621384476284
1.5725299105668427 13.041977175653296 265.24621012250196 65.86391021326548 0.4263222173945713
1.5979433704946913 13.030631502612039 238.71797712009925 68.95002345354466 0.43397534502022145
1.6230526817966515 13.017816185342467 215.05056727683058 72.19288965066603 0.4418788569304778
1.6477947818311802 13.00345283376904 193.92287425995042 75.60200954665838 0.45004707061791605
1.6721428876494868 12.987503267871743 175.09112453880482 79.1871821784474 0.4584936024526079
1.6960796908309703 12.969941724750978 158.23136723833852 82.9589014184238 0.4672329680419129
1.7195583804558556 12.950713660236142 143.1576156204531 86.9297745092327 0.47628613127467334
1.742541135631903 12.929759896799846 129.66892456256866 91.11123267352212 0.4856668213954117
1.7650210163120204 12.907092161790613 117.57421655988861 95.51769255973248 0.49539823036990255
1.7869313720546833 12.882611159559403 106.73132173534508 100.16251461178852 0.5054966337337656
1.8082818651373131 12.856365649120749 97.00522976517539 105.06240052493109 0.5159883886121651
1.8289856562527536 12.828207666548343 88.26254074180113 110.23390974933827 0.5268960588890484
1.84906501587676 12.798227006204984 80.39922566612877 115.69488855567117 0.5382437628160273
1.8684373956496916 12.76626843627591 73.3236364714824 121.46518667400005 0.5500594551773562
1.8871134829194618 12.732426819095766 66.95311142953184 127.56624763734354 0.5623729836097164
1.9050314698862185 12.696592284126986 61.2034742983805 134.0208967615393 0.5752149707981219
1.9221687665844123 12.658752870506722 56.02636388791864 140.8546914629343 0.5886211903044017
1.9384768506529206 12.618855264623772 51.354458699665535 148.09533450098706 0.6026299258740673
1.9539670560239026 12.576976658286181 47.124976764682636 155.77113838124018 0.6172762316523537
1.968576098673962 12.533020281522843 43.304004665919685 163.91599809133905 0.6326084868444507
1.982286382182083 12.48700012832449 39.846878298983924 172.56397474350393 0.6486691295068491
1.995067358440006 12.438895964071197 36.714933909239576 181.75392898222591 0.6655097807687721
2.0068970183139014 12.388711952024032 33.875242395377555 191.5281550009039 0.6831857312914922
2.0177358481549517 12.33641376359969 31.302679425256514 201.93274763146528 0.7017562939006863
2.027564327493807 12.282007276355998 28.96787899348056 213.01744599890822 0.7212833218663637
2.0363651020852958 12.225512155325701 26.84847766909117 224.83835714502308 0.7418390313916216
2.044093881760343 12.166894416755209 24.916500375659997 237.45616764524115 0.7634988253843203
2.050748942686238 12.106157506291103 23.169318086310128 250.93811411465904 0.7863463212019723
2.0563120801856836 12.043381760341992 21.576708694459846 265.35756835299765 0.8104703502056599
2.0607480055243856 11.978505174059661 20.126923522507273 280.7959068217549 0.8359691762277889
2.064043131426006 11.911580716086453 18.807290486783657 297.3434671351636 0.8629514740525615
2.0661892876030334 11.842649042811919 17.60631602508189 315.10063641344937 0.8915374501497648
2.0671725212097947 11.771736078333983 16.511317783477182 334.17663248704866 0.9218519803104707
