M[M_sun], R[km], Lambda[1], P_c[MeV/fm^3], rho_c[fm^-3]
0.24162668629717493 15.618656898711224 2160425.4255784233 3.5677272577965504 0.1711233750220791
0.25364135930471404 15.277379505672384 1723227.2414819247 3.784788443997322 0.1738877846337572
0.26603626266767877 14.981350274765997 1383124.6146989428 4.011335977840763 0.1766658695130148
0.2788091885815737 14.723634469712056 1116485.0026004794 4.24762692005527 0.17945633935438807
0.29196205750482596 14.498518779966785 906012.5452807329 4.494285958621781 0.182265751373155
0.30549498944533043 14.301369541721629 738781.313887738 4.751466045416951 0.185089759888267
0.3194083942958381 14.128299810023638 605191.6106613177 5.019853798319196 0.18793507894948697
0.33370590177456744 13.976117989487285 497794.8326753824 5.299667292766725 0.1907982147391537
0.34838357749710996 13.842168213956038 411092.05551436986 5.591642012776228 0.1936856031317401
0.3634430549506066 13.72413388927392 340729.9703106309 5.895936543631636 0.1965921467225369
0.378894563446248 13.620132152787376 283376.68490241916 6.213418493745801 0.19952560073401546
0.3947233453904127 13.52858237839943 236476.9500545342 6.5443515277555875 0.20248225500610437
0.4109449299140301 13.44802765536116 197930.87251989328 6.889425492141154 0.2054656090441458
0.4275490282234134 13.37720097847508 166143.47081875484 7.249350861843716 0.20847883654691302
0.4445423636691044 13.315041167457705 139847.4508380573 7.624395599022728 0.21151762866574794
0.4619195224045546 13.260682695697064 118023.41023609554 8.015490647081423 0.21458786917765837
0.47968035776705653 13.213272723410562 99852.6800827167 8.42334896162022 0.21769133800437293
0.49783373978077233 13.172088550541083 84678.21887340922 8.848423633620053 0.2208256811096903
0.5163701800950651 13.136471453342274 71968.21980517668 9.291563393899478 0.22399396066656935
0.5352836113180274 13.105919220766221 61305.0656568969 9.75366406414568 0.22719926191094492
0.5545853329062451 13.079916021992132 52323.575943677846 10.23553472957664 0.2304429349722431
0.5742633477686424 13.05793107567944 44751.76121217249 10.737663652366546 0.23372189623360706
0.5943177615636265 13.039576814923501 38347.73213927084 11.261261151808428 0.23704190424218058
0.6147499553644101 13.02454456948712 32919.60589202843 11.80728040892944 0.24040478126249193
0.635546374889312 13.012467373013727 28309.435069982705 12.376699783958868 0.24381215908726492
0.6567147450175976 13.00304670720769 24384.096390587754 12.970231695239397 0.24726225531724833
0.6782417676569157 12.996001525484273 21039.805642202344 13.589155738646479 0.2507593305983134
0.7001251103988659 12.991085529385632 18183.24595363973 14.234691136986244 0.2543062756107516
0.7223541572871013 12.988012888477355 15739.369038636334 14.908026736217991 0.25790507336617163
0.7449381653044298 12.98664491092513 13642.71251028995 15.610222059462686 0.26155592380438086
0.7678538235761802 12.986750797724188 11842.957208849604 16.342482945359436 0.2652601235386631
0.7910933443599883 12.988122779014766 10295.506479132498 17.106453021635193 0.2690226528099643
0.8146613675145707 12.990657817459383 8962.16644285335 17.903586223971807 0.2728459420103023
0.8385406956459525 12.994111493812474 7812.368934884823 18.735283570010644 0.2767313970441514
0.8627156218485936 12.99838000537722 6819.345441201118 19.60281700446272 0.2806788560412828
0.8871876907317372 13.003325419085735 5959.769562306759 20.508305393482797 0.2846949901106693
0.9119414581718063 13.008815010476035 5215.005773068889 21.453541380772528 0.2887828096522134
0.9369553979636028 13.01470170310412 4568.504536396363 22.440054382095283 0.2929426062404181
0.9622294112634625 13.02090479112408 4007.5945940388096 23.469777410637594 0.29717744493061343
0.9877495883574309 13.027297794390906 3519.3760099156552 24.54517484292789 0.30149378068915794
1.0134849407059554 13.033759730747834 3094.263744447864 25.668242205917426 0.3058936470599315
1.0394447690039614 13.040204381874004 2723.6169844183473 26.840831720199343 0.31037750388192353
1.0655935465189401 13.046539063698315 2400.068220819885 28.066089626675566 0.3149544720753583
1.0919176799001225 13.05266357273424 2117.4342875453503 29.346132515448723 0.3196254285019665
1.11841066468743 13.058501039306464 1870.115286139301 30.683589291490645 0.32439419745064446
1.1450368331164527 13.063955821146386 1653.4792561810061 32.08198830325344 0.32926971157563256
1.1717943400830277 13.068973673320201 1463.3938559920214 33.54312848674087 0.33424875183033664
1.1986442555001557 13.073433911815185 1296.5001930584285 35.07161618972761 0.33934532527699846
1.2255869483172177 13.077302100172473 1150.010474630754 36.669555068287934 0.34455669205145034
1.2525775996937856 13.080472781166398 1021.0490339755696 38.341839738389176 0.34989634419681703
1.2796161480388648 13.082922265268076 907.4905540591872 40.09085038020601 0.3553617139776769
1.306655775563844 13.08451545543355 807.4779196282373 41.92199934998707 0.3609670196944153
1.3336887424006338 13.085230271474462 719.2174762300389 43.838650073874376 0.36671354538317485
1.360693194946168 13.085037485226664 641.2293257762478 45.845693259098276 0.37261018269385854
1.3876198639393351 13.083793060187066 572.3153072586248 47.94835506595047 0.37866631054486083
1.4144728813893468 13.081507489608601 511.29256349574024 50.1512639100814 0.38488694475464863
1.4412014571552767 13.078085638307927 457.2879993642649 52.4598731951391 0.3912802864013877
1.4677857059769346 13.073480580364116 409.40295830519744 54.88047424286169 0.3978573989405036
1.4941922869482336 13.067624446254683 366.8845825834945 57.41924913744328 0.40462733034180953
1.5204025454882464 13.060493601750451 329.1512701395832 60.082817375353905 0.4115998375906631
1.5463837130001974 13.052024206655444 295.5804063190654 62.878275235044676 0.4187854450485068
1.5720994984011043 13.042154976513675 265.72564667181007 65.81323891497081 0.4261955075754374
1.5975219763479953 13.030846008898065 239.15887577848824 68.89589182233053 0.4338422789721936
1.6226084209407514 13.018047120498045 215.45035240037834 72.13503644244311 0.44173898636718917
1.64736052988125 13.00372033758779 194.29287134361255 75.54015127258317 0.44989991124982803
1.6717093128565441 12.987807220334803 175.40926319830737 79.12133399122841 0.4583399793851782
1.6956475341024297 12.97027947557557 158.52286476425687 82.88842087303617 0.46707100395388473
1.7191136627328514 12.951052375804 143.42851604717924 86.85429879502016 0.47611521591673983
1.7421174576566054 12.930169867726448 129.9142296802635 91.03073037411235 0.48548773341105617
1.764602236234186 12.907552821655326 117.79476305997001 95.43138817746689 0.4952088592843797
1.7865286757844014 12.883130777721034 106.9349091084465 100.07033299928628 0.5052977098131718
1.807868918768689 12.85689912530227 97.18370491142545 104.96386367978675 0.5157791454149598
1.828583428296725 12.828789883913013 88.42025012159179 110.12836983520327 0.5266751967248845
1.848667405074135 12.79885114648223 80.54637923327026 115.58159863235767 0.5380097449278086
1.868059319703498 12.766971133116979 73.45943421956596 121.3438141681739 0.5498123852335556
1.886735272072466 12.733151563328718 67.0762717722776 127.43630302537302 0.5621124861723775
1.9046641353935456 12.697362573010112 61.318950755486476 133.88172896464988 0.5749402103558447
1.9218125640326758 12.659580438164246 56.13157580879142 140.70521491229468 0.5883299531406964
1.9381404096108494 12.619750347874547 51.444971939625695 147.93465407491826 0.6023208490801742
1.953635503388473 12.577907455588338 47.21166806515278 155.5988001633699 0.6169496334781907
1.9682649560220906 12.534017079455273 43.383579640414986 163.7308200592555 0.6322623639058682
1.9819917140833159 12.488057670409793 39.91910225591005 172.3645285212107 0.6483008738643834
1.9947907779916705 12.440011477358137 36.78112258525819 181.53935389467165 0.6651189292715399
2.0066293070259884 12.389875423988261 33.93899495762768 191.29705765425814 0.6827702848198313
2.0174962709995237 12.337652389526625 31.360124740443208 201.6835909515987 0.7013140653712029
2.027345363506041 12.283307414633416 29.020840906515655 212.74916086629236 0.7208139730778419
2.0361686051185477 12.2268770954734 26.896667154652484 224.54846039964795 0.741337937965778
2.043926885989355 12.16832445024159 24.967033956428775 237.14324700718944 0.7629652669510627
2.0506004220395693 12.107657695632163 23.209622918624664 250.59961879600937 0.7857763058805721
2.0561824783567375 12.044929382993438 21.61322068920887 264.9910383534319 0.8098606846460966
2.0606517163979468 11.980145934448531 20.16095166483659 280.3992564876128 0.8353184579387389
2.0639798401798526 11.913301028031142 18.839130354608013 296.9132109569251 0.8622543819500333
2.0661518797324643 11.844428938677913 17.634794988543813 314.6332460076028 0.8907892500386221
2.0671632558525985 11.773578276980738 16.538537565791177 333.66902524237923 0.9210502552148959
