M[M_sun], R[km], Lambda[1], P_c[MeV/fm^3], rho_c[fm^-3]
0.24162668629717493 15.618656898711224 2160425.4255784233 3.5677272577965504 0.1711233750220791
0.25364483399900367 15.277247897103472 1723143.663306387 3.7848359051671876 0.17388837621434355
0.2660410072336056 14.981241441924253 1382925.5764965976 4.011435750524674 0.17666707520701805
0.27881728084669694 14.723516452767559 1116412.1668279283 4.247782379546064 0.17945814245020883
0.2919730260817559 14.498368285345794 905848.8885546146 4.4945011841161655 0.18226814795898622
0.305509421287116 14.301163237582015 738611.4240427008 4.751748344606316 0.18509280925828828
0.3194281277020312 14.12805826447122 605044.6805015907 5.020205250496347 0.187938725401473
0.333724304379212 13.975960822330226 497657.5409498787 5.300097150442033 0.19080254269268118
0.34840857320381596 13.841918198315883 410957.3993930817 5.592151348996535 0.19369053109978515
0.3634717809528999 13.723939076222576 340632.60803538404 5.896536801016083 0.1965977844669196
0.37892722148267094 13.619939242646128 283270.6616274662 6.214116935935469 0.1995319696858061
0.3947609704976568 13.528381879837353 236379.62760166274 6.545147429388409 0.20248923398821378
0.4109871939885375 13.447825795699655 197839.25365264175 6.890334217589842 0.20547334813139867
0.42759600507684414 13.377012419414042 166059.925112532 7.250380938062576 0.2084873581034857
0.4445928480930077 13.314874196121286 139780.37124940738 7.625544178804344 0.21152677209934398
0.46197617822660453 13.260520413793557 117966.44102938822 8.01677776376709 0.21459782606581115
0.4797423813919385 13.213117199871855 99794.65897984922 8.42478465143846 0.21770213238474853
0.49790093368735056 13.171974655823137 84629.77561429786 8.850002602810585 0.2208371135212714
0.5164411264902055 13.136359263178244 71925.53102207345 9.293311194251602 0.22400626529001094
0.5353610771278146 13.105808550609249 61263.80586642934 9.755592545573545 0.22721246531560477
0.5546689685577951 13.079777396602323 52293.38576358033 10.237656462017041 0.23045706488260567
0.5743540041768916 13.05782408245429 44720.45124749901 10.739969416823447 0.2337366999556568
0.5944125178486618 13.039501071428264 38322.271770833635 11.263785622390634 0.23705767718006177
0.6148518574466976 13.024478154250959 32897.80055775067 11.810038498186294 0.2404215550469439
0.6356570554899553 13.012418364726257 28285.392503691826 12.379707334761008 0.24382996701873358
0.6568295757698135 13.003007827796676 24365.31048967513 12.973474896491563 0.24728079212566845
0.6783632732843239 12.99596841967968 21023.065648635926 13.592680642720214 0.25077895631981767
0.7002534818153613 12.991055958069332 18167.923273351673 14.238516642782018 0.25432702916639754
0.722489684745431 12.98799267463358 15725.260325575364 14.912172956882115 0.25792699599775254
0.7450792960066156 12.986651785658017 13630.601538528495 15.614669947381884 0.2615786584570231
0.7680014467341804 12.986763858301742 11833.198889506108 16.347292731616417 0.26528409911681805
0.791248753315116 12.988142765484863 10287.35281379183 17.111648844163494 0.2690479183354663
0.814825880627675 12.990671037690129 8953.836307695858 17.909193820962553 0.272872549657061
0.8387099117682961 12.994132790821906 7805.614384644928 18.741278070126654 0.2767589386705468
0.8628925528476292 12.998418343610387 6812.282390780762 19.609276347013925 0.28070783503761587
0.8873753355258476 13.003362410581351 5953.6036663098575 20.515260665259856 0.2847254691900283
0.9121307022658617 13.008871501605775 5209.326401849655 21.4610257972371 0.2888148557561251
0.9371553044343952 13.014750151780808 4563.705249365069 22.448036766894496 0.2929757605223934
0.9624411168693146 13.020959984707853 4003.2369926240754 23.47835793164799 0.29721229297595786
0.9879625554804303 13.027353860117138 3515.3563370989505 24.554393885271775 0.30153040356790534
1.0137070072085976 13.033805039225998 3090.741845454745 25.678064085273572 0.305931551583954
1.0396741761973445 13.040261982760875 2720.5385695513605 26.851376504053487 0.31041734017653005
1.065826809492652 13.04658951816536 2397.406304043007 28.077406671440304 0.3149963387449713
1.0921612892425687 13.052720129712787 2114.9376482614616 29.35818171326709 0.31966879821586747
1.1186612189800214 13.058552699188203 1867.7733414017448 30.696514488480872 0.3244397919205594
1.1452945040106837 13.064013621105032 1651.47387839043 32.09574731628151 0.32931698618918875
1.172059688612991 13.06901407198506 1461.5204860238541 33.55788269658368 0.3342984750387296
1.198916714720926 13.07348063855637 1294.9445637881352 35.08743522769786 0.33939763454701516
1.2258645556347592 13.07734123338942 1148.6242442974476 36.686393031230786 0.3446110087134433
1.252862727592869 13.080502692590668 1019.802909396308 38.35984370548138 0.3499532509844165
1.27990661329887 13.082944412023945 906.3582850828584 40.11006657273477 0.35542116245764577
1.3069507221810668 13.084528589366654 806.48398590034 41.942460557544294 0.36102887702472014
1.3339904720169877 13.085240927864637 718.3441553370646 43.86058568275594 0.36677874935703236
1.3609999268703576 13.08503124709008 640.372169538787 45.86905730985369 0.3726781221796889
1.3879323450534518 13.083767594309535 571.5924050842999 47.97324734553504 0.3787371620079612
1.41478206233385 13.081464943635739 510.62551689845026 50.1779573477778 0.38496174270875155
1.4415148485887834 13.07801890268481 456.7200574716975 52.488325418833725 0.3913584055475261
1.4681101778627237 13.073417482961576 408.86117491490813 54.91081122553587 0.3979390606418751
1.4945210225816343 13.067544270606843 366.3895429414738 57.45160705554854 0.40471277307325276
1.5207327830344148 13.060397321123782 328.71704272447755 60.11734352230666 0.4116893183438032
1.5467169407605401 13.051904537424292 295.171096950447 62.91512902586498 0.41887924087615075
1.5724333236325885 13.04201878824151 265.3575355205051 65.8525929922163 0.4262939172901631
1.5978471622147865 13.030678874376093 238.81597388386913 68.93793327470837 0.43394562501582457
1.6229447723212649 13.017856358680808 215.1486292426351 72.17996814888392 0.44184761686984303
1.6476976143823396 13.003510325540212 194.01745644507875 75.58819338614573 0.4500142022994762
1.6720462845371247 12.98757345205909 175.16132744399582 79.17247474701999 0.4584592901833517
1.6959821898031837 12.970013673309936 158.29853733177885 82.94315917971387 0.4671967924232063
1.7194631149584805 12.950795887853616 143.22014614516354 86.91291640236423 0.4762479559569627
1.7424446747731492 12.929851400178954 129.72252518067438 91.0932516823335 0.48562682030858195
1.7649269184020562 12.907192311033128 117.6277599959698 95.49841541317137 0.49535593200596983
1.7868526610963382 12.882752193629418 106.78031296614428 100.1419245230312 0.5054522012155029
1.8081899140450048 12.85648529118425 97.04258036541971 105.04039069322225 0.5159416506883969
1.8289039629466861 12.828352462362082 88.29977488009766 110.21036367911556 0.5268468303196502
1.8489765691705504 12.7983640318748 80.43179453046454 115.66958283574718 0.5381914899309969
1.868351874569616 12.76641820749582 73.35717798973678 121.43807525194433 0.5500042662572786
1.8870260865389232 12.732592714160262 66.97733416505 127.53728136423592 0.5623150099074601
1.904949336090195 12.696764264025205 61.229753252270434 133.98980969708904 0.5751535952804492
1.922088814755184 12.658937690908285 56.051162934381594 140.82130125957806 0.5885561334906112
1.9384001188647846 12.619039167002931 51.368982061389474 148.0594411365199 0.6025608832017084
1.9538948319829348 12.577186029380098 47.144520131146066 155.73264043288975 0.6172032741865306
1.968506886893161 12.533245112228894 43.32138787307476 163.87466218856778 0.6325312710345486
1.9822193176950056 12.487235970984266 39.86235432196674 172.51942014679662 0.6485868643155278
1.9950050639874113 12.439142770085951 36.73108527486584 181.70599413226586 0.6654224667749155
2.0068386455834184 12.388976079175585 33.88857176816198 191.47652850954094 0.6830929217288023
2.0176816003065032 12.336690334838806 31.314269450952956 201.8770859945199 0.701657499985676
2.027515969732167 12.282297316658198 28.97990946231654 212.95751030311638 0.7211784679524147
2.036320915003901 12.225816272344513 26.858291648437373 224.77359242106147 0.7417270840244244
2.044061660268745 12.167211103110368 24.931640390952413 237.38625827748461 0.7633796234903115
2.050716682206693 12.106491885632215 23.178136745340886 250.86255484361376 0.7862191837286107
2.0562853039008955 12.043732417750025 21.585403622209306 265.2757986458358 0.8103345287651512
2.0607264495192896 11.978871194277088 20.133835586794213 280.70730390354356 0.8358238468197736
2.0640273982155786 11.911963414106307 18.814484972022406 297.24733804367423 0.8627957276998308
2.0661839162969193 11.84304989514264 17.612107003614618 314.9962089254025 0.8913702822807079
2.0671698319489153 11.772146890462636 16.51718058838905 334.0632176014816 0.9216728505582346
