M[M_sun], R[km], Lambda[1], P_c[MeV/fm^3], rho_c[fm^-3]
0.24162668629717493 15.618656898711224 2160425.4255784233 3.5677272577965504 0.1711233750220791
0.25364452555583167 15.277248058608361 1723068.2160158837 3.7848291069944286 0.17388829147839965
0.2660402982225424 14.981267918559624 1382969.2828079474 4.0114214593238176 0.17666690250628977
0.278816994438031 14.723473604713764 1116332.698321915 4.247760111736085 0.17945788417716996
0.29197134780284995 14.498389767778706 905864.7320434197 4.494470355282411 0.18226780467276735
0.30550799286570796 14.301187621185107 738664.7846144213 4.7517079078629 0.1850923724642847
0.31942472694674373 14.128104520589892 605065.6579356645 5.0201549078818095 0.1879382030774167
0.3337224382789178 13.975928026209381 497662.19860183063 5.30003557645232 0.1908019227447745
0.3484050237390529 13.841993705086358 410985.79120910174 5.592078389800049 0.19368982519948877
0.36346869258041586 13.723943011028483 340651.13650320703 5.89645081734122 0.19659697689004924
0.3789228251120558 13.61996655043569 283293.9177206048 6.214016887121698 0.1995310573610911
0.39475514242251464 13.528415748626674 236384.6200725679 6.545033419215886 0.20248823427302096
0.4109810039968478 13.447836884117542 197852.85090238426 6.8902040449157465 0.20547223952628121
0.4275910366208755 13.377013502723662 166070.9895022667 7.250233381201456 0.20848613740338925
0.44458562033193644 13.314918054386819 139795.40025799413 7.625379645499458 0.21152546230844252
0.4619680214972785 13.260566232760363 117973.45461090581 8.016593383925354 0.21459639973867065
0.47973360440271867 13.213144310124306 99802.62119058662 8.424578987102223 0.21770058607645348
0.4978918956216308 13.171957726924719 84635.07131524244 8.849776412223205 0.22083547580477497
0.5164302384978858 13.136391431022792 71931.86553369743 9.29306081663129 0.2240045026159547
0.535349311103129 13.105830594671353 61271.464526988944 9.755316283066074 0.22721057387624435
0.5546578665997007 13.079805510234744 52301.33891332841 10.23735251358924 0.2304550407046472
0.5743412872508757 13.057851115682007 44725.3030699501 10.739639103093975 0.23373457923919522
0.5943997125300635 13.039500987531872 38322.209077151754 11.263423975470992 0.23705541760356338
0.6148369260780637 13.024487439218527 32897.5884749496 11.809643381345818 0.24041915207731593
0.6356418160294253 13.012424786622997 28288.908930690457 12.379276477951336 0.24382741588359266
0.6568133288657113 13.003007602512598 24368.11266253282 12.973010278294664 0.24727813655858064
0.6783458528465363 12.995979943297922 21025.480031026418 13.5921756648204 0.2507761447381632
0.7002350663333504 12.991053461956062 18170.391557353258 14.23796859719026 0.2543240559923149
0.7224705363965005 12.98799199835547 15727.573110886891 14.911578961599968 0.2579238553207876
0.7450594286727455 12.986645021215375 13632.100998192063 15.614032731338131 0.26157540143128954
0.7679802585103116 12.986757966242255 11834.668329571197 16.346603664692594 0.26528066429102676
0.7912268010931123 12.988146210250864 10287.449191590182 17.110904467578973 0.2690442986842028
0.8148008751448418 12.990676316716081 8955.038021896002 17.908390446603 0.27286873770316894
0.8386857612866847 12.994125836682326 7806.6293729828985 18.74041926146476 0.27675499288910493
0.8628671932868177 12.998405881917858 6813.203663547224 19.608350936238647 0.28070368330309325
0.8873500121221293 13.003366616760367 5954.525706143916 20.514264197740047 0.2847211025148517
0.9121055730411894 13.008857133487462 5210.379224689533 21.459953513271664 0.2888102645467046
0.9371269232988183 13.014748619359695 4564.517979397787 22.44689313353236 0.2929710105204932
0.9624115355907268 13.020951949351582 4003.953249022778 23.47712859545391 0.2972073002764023
0.987933078769219 13.027337702333432 3516.010355820068 24.553073059015485 0.30152515655221473
1.0136763908859654 13.033797295953914 3091.6007293065445 25.67665688209885 0.3059261209158907
1.0396410501431883 13.04025409644185 2720.943503059401 26.849865718551854 0.31041163270095135
1.0657933993860664 13.046584205183045 2397.812177029631 28.07578523061675 0.3149903403303085
1.0921266874377935 13.052713245379817 2115.3252028166407 29.356455364303738 0.3196625844195831
1.1186262805526481 13.058542624072057 1868.299974826331 30.69466261794831 0.32443325932725753
1.1452560975344468 13.064005641171466 1651.7752946292637 32.093775968872244 0.3293102128336604
1.1720215681945663 13.069015171814913 1461.7976680974411 33.555768745667024 0.334291350806183
1.1988783764199074 13.073471040506288 1295.1857616708523 35.085168694374865 0.3393901397357746
1.2258246688699488 13.077336694030723 1148.8461185701876 36.68398049348418 0.34460322624012557
1.2528214600660244 13.080501690873856 1019.9701169546621 38.357275371339476 0.34994516354642097
1.2798647881669967 13.082936782432654 906.5278511693507 40.107313246428625 0.3554126445858814
1.306908908050233 13.084519916279254 806.584799244903 41.93952882567183 0.3610200139551143
1.3339467451041553 13.085241333720496 718.4394846419721 43.85744267116258 0.366769406701131
1.3609552234235707 13.085033434311876 640.5005309135569 45.865709604969034 0.3726683875086356
1.3878871944375049 13.083773838724637 571.6792434190845 47.9696806463574 0.37872701003074605
1.414744528147556 13.081479005530328 510.71980839595705 50.174132538603764 0.38495102517194324
1.441468592000758 13.078028105928485 456.78864186222 52.48424857220828 0.39134721205415507
1.4680630914629862 13.073426658272739 408.9366864898254 54.906464287040855 0.3979273594652264
1.4944730503559276 13.06755804743987 366.4545184414061 57.446970508206476 0.4047005300337567
1.5206849542796999 13.060411159134157 328.7625010547707 60.11239625562105 0.4116764966075805
1.5466691911158055 13.051920788578636 295.2231065011165 62.90984819179211 0.41886580073359037
1.5723853796832525 13.042039535986238 265.40743199952004 65.84695384661231 0.4262798159123891
1.597809866129958 13.03070664354508 238.87604218100518 68.93190900262022 0.43393081618666063
1.6228969732017755 13.01788276785589 215.183524956129 72.17352967185006 0.441832050690592
1.6476486427064363 13.003541761000871 194.05464965457685 75.58130914944691 0.4499978248635145
1.671996747543257 12.987604998188784 175.19146080721796 79.16514643798155 0.4584421933222063
1.6959349780988326 12.97005188757938 158.33464424601544 82.93531528753941 0.4671787671818345
1.719415439461246 12.950838568391642 143.2468496275712 86.90451654218536 0.47622893440646735
1.742394274063865 12.929886753572001 129.76145274344276 91.08429235801823 0.48560688910978916
1.7648792737119101 12.907245068483288 117.6543556846913 95.48881030157533 0.4953348562464109
1.7868066151296869 12.882804576192378 106.80586261050455 100.13166526025353 0.5054300621715143
1.8081436947383471 12.856544004225238 97.06377063325544 105.02942407136352 0.515918363043893
1.8288533219575842 12.828404789631316 88.30992035611668 110.19863166074423 0.5268223017900437
1.84893333974898 12.798433628610397 80.44612357078299 115.65697412106086 0.5381654446773878
1.8683084765157851 12.766493182998522 73.3698834973171 121.42456689737946 0.5499767681976442
1.886986018516835 12.732670440600872 66.99464448989636 127.52284888284629 0.5622861244386324
1.9049094751868456 12.696849678658635 61.244952021660936 133.9743206037378 0.575123015000853
1.9220493728592514 12.65903001364883 56.06228737745278 140.80466471307656 0.5885237191714674
1.9383624306790694 12.619138190695221 51.38042218543928 148.04155749138047 0.6025264831205159
1.9538576025038614 12.577290722873112 47.153672261003535 155.71345916128558 0.6171669237567684
1.9684731985279271 12.533355748947583 43.33021431747639 163.85406703247307 0.6324927991118061
1.9821863868354308 12.487350024152114 39.871547158304764 172.49722143821558 0.6485458768272895
1.9949748297483614 12.439272028344838 36.73854336502529 181.68211138676236 0.6653789640228278
2.006810089876905 12.389106358972949 33.89564155050552 191.45080660715269 0.6830466811563912
2.0176556281769527 12.336827819175644 31.32144488795069 201.84935381801287 0.7016082781079296
2.0274910628262695 12.282439117074782 28.98528825086832 212.9276488346733 0.7211262270999284
2.036299321827444 12.225972257692431 26.864484838837207 224.7413252091224 0.7416713093804145
2.0440421974253935 12.16736969828245 24.937313540704327 237.35142809763042 0.7633202348341053
2.0506999570318087 12.106658730655491 23.182915901872956 250.82491000742593 0.7861558418078666
2.056271713673981 12.043906671923603 21.58946890990473 265.23499090604435 0.8102666358669882
2.060715084506125 11.979054046715117 20.137691446204382 280.66316109522313 0.8357514423399796
2.0640196617693234 11.912155085793085 18.817724655451784 297.19944595943906 0.8627181339420128
2.066178780130026 11.843247978115123 17.615040484424576 314.9441829083557 0.891286998860146
2.067169361864496 11.772350991969413 16.520867895381016 334.0067144462928 0.9215836083380541
