M[M_sun], R[km], Lambda[1], P_c[MeV/fm^3], rho_c[fm^-3]
0.24162668629717493 15.618656898711224 2160425.4255784233 3.5677272577965504 0.1711233750220791
0.253641344869429 15.27737998126763 1723233.2685272868 3.7847881361033604 0.1738877807960075
0.26603632533942895 14.981336647884039 1383125.1702362606 4.011335330593093 0.1766658616914087
0.27880901137068775 14.72366695484066 1116514.7124169285 4.247625911563578 0.1794563276574042
0.29196207713096706 14.498521885999173 906039.0844539559 4.494284562429808 0.18226573582623334
0.3054946552670237 14.301376014825927 738794.6401822979 4.751464214126007 0.18508974010682977
0.319408348425271 14.128307400061974 605209.4275457561 5.0198515184473225 0.18793505529493634
0.33370414224784306 13.976099689231845 497764.5960185949 5.299664504301252 0.1907981866639333
0.3483832846870893 13.842118236065303 411078.9626762574 5.5916387087630435 0.19368557116450366
0.36344301535206286 13.724138296298127 340735.4433668464 5.895932649853626 0.1965921101513498
0.37889433460141675 13.620129069370359 283379.94801599195 6.213413963094558 0.1995255594199314
0.39472275682980135 13.528618375636922 236463.71970627143 6.544346364943049 0.20248220973521303
0.41094465518446927 13.448028907382078 197931.4106320679 6.88941959751576 0.20546555884304235
0.42754864112374985 13.377199646207382 166138.21486481398 7.249344180105453 0.20847878127060473
0.4445421290346914 13.315037429618497 139856.39845964132 7.624388148646503 0.2115175693559626
0.4619191961890111 13.260693286456938 118025.8547945335 8.015482298136568 0.2145878045918201
0.4796795454368434 13.213276498497335 99851.75867313339 8.423339649020313 0.2176912679866404
0.49783329294286255 13.172090501148073 84678.16444480582 8.848413391708114 0.22082560695387185
0.5163678262627348 13.136501021754123 71968.99744038009 9.29155205695812 0.2239938808537954
0.5352826913027754 13.105939884100117 61303.07567619449 9.753651555328517 0.2271991762689613
0.5545847985826108 13.07990607476027 52324.98022036514 10.235520967368705 0.23044284332130693
0.5742627483452583 13.057909785107485 44752.07494213193 10.737648696567556 0.23372180021274483
0.5943170627663791 13.039591174411603 38348.06564136643 11.261244777546365 0.2370418019354949
0.6147486279153671 13.024547425657142 32918.814593936004 11.807262519500064 0.24040467246491345
0.6355467533238609 13.01246187516373 28309.41838553561 12.376680276625997 0.24381204358289948
0.6567135499117573 13.003050381648611 24384.408927399738 12.97021065958205 0.24726213508605702
0.6782414018228087 12.995999285406993 21040.195546360555 13.589132876012837 0.25075920330529455
0.7001247832949999 12.99108087229086 18183.49984439243 14.234666324825776 0.25430614100357013
0.7223536541198634 12.988000736672927 15739.19808157469 14.907999844107513 0.25790493117744645
0.7449373004525491 12.98665148842198 13642.559877653017 15.610193210936673 0.26155577634985183
0.7678525034142164 12.986758520498723 11843.022131552547 16.342451749832335 0.2652599680367846
0.7910923394331749 12.988120666650362 10295.749516019958 17.106419322589122 0.2690224889429147
0.8146613458347618 12.990653253361513 8962.383644604211 17.903549854513816 0.2728457694398247
0.8385387210244046 12.994114249175823 7812.518653277641 18.735244691435458 0.2767312184172147
0.862714348888577 12.998378572074053 6819.435575210975 19.602775111371887 0.2806786680934048
0.8871852301943889 13.003318133976524 5959.811843509195 20.508260284306875 0.2846947924352661
0.9119411457547499 13.008806261194149 5215.025687057644 21.45349284014165 0.28878260181528875
0.9369541047760654 13.01470139558629 4568.541480340305 22.440002612181754 0.2929423912176707
0.9622282120825594 13.020906320200712 4007.589833705305 23.46972176192932 0.2971772189246743
0.9877474608791446 13.02729381161321 3519.221280081115 24.545115053573923 0.301493543174438
1.0134848649841994 13.033751710710813 3094.333235475503 25.66817850731374 0.30589340123475217
1.0394431116917362 13.040205822801768 2723.567510714466 26.840763333825823 0.3103772455305187
1.0655931810971966 13.046535563454837 2400.15385054933 28.06601623252175 0.3149542005584691
1.0919156967672745 13.052660887109244 2117.438106379649 29.346054373584717 0.31962514723923546
1.1184091190647942 13.058500073999964 1870.0742624530965 30.68350546924675 0.3243939017622476
1.1450349924744025 13.063963250523884 1653.4188531901243 32.08189907414908 0.3292694049932187
1.171792810183492 13.06897671138886 1463.3816710415724 33.54303280443921 0.33424842937111476
1.1986430794585285 13.07343417152106 1296.5161635377758 35.071513602784684 0.3393449860497896
1.2255857743950744 13.07730042262567 1150.0119228974672 36.669445874332254 0.3445563398086522
1.2525750016389934 13.080471996485361 1020.9911925729235 38.3417226814807 0.3498959733861924
1.2796137546625328 13.082923022028751 907.5361667985758 40.09072576541167 0.35536132846113433
1.306653629336379 13.084512749087843 807.4728380686323 41.92186666236305 0.3609666185596258
1.3336865647760936 13.085229048625942 716.2686795374975 43.83850782626657 0.36671312254971944
1.3606911265126527 13.085038819914029 641.2246386016278 45.84554174947995 0.37260974212446946
1.3876178550448877 13.083793290986936 572.3239763479935 47.94819364739403 0.3786658510955421
1.4144707602458264 13.081507607812751 511.29546496053655 50.15109081320171 0.3848864597181161
1.4411992523994523 13.07808435939658 457.2916488812424 52.45968869463999 0.39127977983214346
1.4677833820031272 13.073482362670024 409.4011015487399 54.88027752207854 0.3978568694035348
1.494190058977264 13.06762501968588 366.88084852141554 57.41903931357479 0.4046267762911939
1.5203997870388646 13.060494032718116 329.15329603360703 60.08259349354167 0.41159925736046243
1.5463818105821399 13.052022880078194 295.5791603566688 62.87803626186262 0.41878483684275924
1.5720965586919786 13.04215776673684 265.72785573184916 65.81298373125837 0.4261948694571508
1.59751957605347 13.030845771907927 239.16147675580382 68.89561921529567 0.4338416088512314
1.6226063526637444 13.018045682526331 215.45013162016704 72.13474509695243 0.4417382819869284
1.6473578988226953 13.003722180760919 194.29395181530717 75.53983976154603 0.44989917017245296
1.6717072542026952 12.987809243080243 175.41330093083238 79.12100239085173 0.45833920576529313
1.6956457505983356 12.970281323930841 158.5246028926833 82.88806594935745 0.4670701883403048
1.7191111991244614 12.951054541030981 143.42704603041517 86.85391872173881 0.4761143552377572
1.7421141816185322 12.93017335074414 129.91586312226062 91.03032499299741 0.48548683158729083
1.7646000793704515 12.907554800194694 117.79704513749363 95.43095358501806 0.4952079056915072
1.7865263228195256 12.883132933073599 106.93108368963195 100.06986881714344 0.5052967081282456
1.8078668415503105 12.856901789069326 97.18409304759697 104.9633675018952 0.5157780917801671
1.8285919772203008 12.828817467477782 88.42482356686914 110.12783693880954 0.5266740791567192
1.8486663980021434 12.798852692492252 80.54520781006008 115.58102818188873 0.5380085665739871
1.8680569430111642 12.766974388515392 73.45745899061819 121.34320302767014 0.5498111411754479
1.8867327097438706 12.73315596578215 67.07556223957377 127.43564776514903 0.5621111710703364
1.9046625986972756 12.697366340311731 61.32181617710651 133.88102823922503 0.5749388269062828
1.9218109192091815 12.659584127493675 56.132533424311504 140.7044622924368 0.5883284867510064
1.9381396225493477 12.619755075562239 51.44546795920856 147.93384505567397 0.6023192928914066
1.9536335583176572 12.577912188495038 47.2123167095962 155.59793246002778 0.616947989093499
1.9682627739722405 12.534023103772098 43.3829115436165 163.7298856901314 0.6322606143613239
1.981989973954859 12.488058812840757 39.920935501169325 172.36352436421558 0.6482990197982842
1.9947893272547013 12.440016754438256 36.78223906804858 181.53827358528918 0.6651169614730204
2.006629696577133 12.389880941490288 33.939753731758046 191.29589418051006 0.6827681932291206
2.0174948685272907 12.337658734099389 31.35934814549711 201.6823365786717 0.7013118389829912
2.027344022935411 12.283314361859533 29.02118536802243 212.74781021382626 0.7208116101921593
2.0361675718243513 12.226883229421158 26.89665390102716 224.5470009729759 0.7413354153120313
2.043925139274795 12.168332196002087 24.966566251878092 237.1416716994947 0.762962580906733
2.050599496904602 12.107665232922663 23.20991635344161 250.59791281408405 0.7857734299806644
2.056181884306408 12.04493740668204 21.614251843971743 264.98919241125935 0.8098576128910745
2.0606508595039754 11.980154011041295 20.160723434260372 280.39725655509784 0.8353151717370635
2.063979481503485 11.913309848867481 18.839387648242514 296.911045129123 0.8622508729209185
2.0661516293833633 11.844437906154898 17.63505312621485 314.6308933044654 0.8907854838236402
2.0671626195334696 11.773588093588774 16.538166784194644 333.6664701546469 0.9210462196579217
