M[M_sun], R[km], Lambda[1], P_c[MeV/fm^3], rho_c[fm^-3]
0.24162668629717493 15.618656898711224 2160425.4255784233 3.5677272577965504 0.1711233750220791
0.25363730828232467 15.27745986305735 1723358.5987642903 3.784711548047889 0.17388682616284334
0.2660267685254637 14.981585755091071 1383302.5195310258 4.011174331247402 0.17666391610933133
0.2787959872934667 14.723868206702756 1116761.8291146671 4.247375058219758 0.17945341813664384
0.29194385856189947 14.498790998814734 906267.9913695337 4.493937276798802 0.1822618687201313
0.3054729603168558 14.301620390466459 739062.3902825979 4.7510087092347195 0.1850848197846597
0.319379260668187 14.128629308974013 605401.7071049114 5.0192844434587744 0.1879291716730593
0.3336678548257667 13.97646961106324 498049.97629691445 5.298970935583071 0.19079120357777984
0.3483418173162833 13.842470955584638 411293.05154117855 5.590816919301325 0.19367762012539502
0.3633948865118543 13.724522240740162 340929.60860721866 5.894964184049485 0.1965830141155681
0.37884009751149134 13.620471833324158 283555.5152202139 6.212287107966501 0.19951528385798542
0.3946618691798302 13.528911085500106 236641.87750505886 6.54306229508694 0.20247095017726835
0.4108772416973126 13.448313207851378 198080.66344343097 6.887953533390122 0.2054530732257385
0.42747388107017986 13.377490601676994 166274.20522694357 7.2476823726163895 0.20846503356313248
0.444457582530368 13.315352626040433 139973.08309751167 7.6225351951206255 0.21150281865445142
0.4618277212169595 13.260948498515463 118130.3372898486 8.013405891052512 0.2145717419043219
0.47958138207542944 13.213496246520322 99944.7130090831 8.421023606843589 0.217673854587239
0.49772549205536104 13.17231211366524 84753.72151231355 8.845866257542397 0.22080716461420535
0.5162512515431754 13.136696666129728 72045.476671285 9.288732626637653 0.22397403188856832
0.5351562315359619 13.106106699897316 60777.710125303034 9.750540724391687 0.227177877873709
0.5544501148467499 13.080069292968187 52385.53874573205 10.232098471020445 0.23042005083074768
0.574116907073358 13.058041758345775 44802.137916462394 10.73392940728887 0.233697921223484
0.5941660011787252 13.039711230739638 38393.55982883592 11.257172786281151 0.23701636006038188
0.6145846134367539 13.024656106756577 32958.71992595233 11.802813786351777 0.24037761674482452
0.6353711540693306 13.012553307650581 28111.66609837421 12.37182926256912 0.2437833203687091
0.6565247353683216 13.003104927599933 24419.184021572197 12.964979640216882 0.24723223672444616
0.6780457173349695 12.996061231127033 21068.974796460963 13.583447603430937 0.2507275492307342
0.6999189235703824 12.991114121361253 18207.880916226288 14.228496335585318 0.2542726685108142
0.7221357825932424 12.988044682456247 15760.762484178751 14.901312718269535 0.25786957382240994
0.7447075320110174 12.986655658972158 13661.75310189972 15.603019664389654 0.26151910993830496
0.7676121617556471 12.986742919651602 11860.316798053911 16.334694685326863 0.26522130101576374
0.7908406949064559 12.988104451853888 10310.946052224444 17.0980398352526 0.26898174233352967
0.8143996689923256 12.990613813388151 8976.801262595056 17.894506461219834 0.27280285918527836
0.8382640717057254 12.99406083269586 7824.677950118654 18.725577492901763 0.27668680264189527
0.8624296692366513 12.998324486512836 6830.299877021685 19.592358476966385 0.28063193522425484
0.886886072698759 13.003256015914562 5969.663066982713 20.497044113742575 0.2846456414367586
0.9116285275790006 13.008748826320643 5223.431461079962 21.44142360384502 0.2887309248405604
0.9366296256836811 13.014638671499132 4576.52099046057 22.427130569127346 0.2928889280790526
0.9618929105142089 13.020819816026332 4014.352620166474 23.45588546929205 0.2971210256291112
0.9874016069307187 13.027205355421836 3525.3162525636913 24.530249431831926 0.301434489116299
1.013128185624383 13.033661551301782 3099.749030351294 25.652341076514887 0.30583228153918246
1.0390731643274607 13.040115291984057 2728.529323122595 26.823760595142854 0.3103130122454499
1.0652105472949513 13.046452115641694 2404.4804085819756 28.047768655288422 0.3148866948356283
1.0915220151289509 13.05257226781247 2121.3118579238717 29.326626601385268 0.31955521918803037
1.11800349655005 13.058416354361615 1873.6364352987573 30.6626657024975 0.32432038813465636
1.1446188108873152 13.063872056721214 1656.6995247534237 32.059583581059705 0.3291923315868371
1.171365893498832 13.068896430471852 1466.1747967513975 33.51924497578856 0.3341682619359343
1.1982111273674114 13.073373749616916 1299.0825593806785 35.046009536879765 0.3392606510180099
1.225136830638513 13.077251792900993 1152.309350729804 36.642299542394504 0.34446876994398284
1.2521180741995086 13.080430576580405 1023.1231020987502 38.312621969851435 0.34980378871126117
1.279146745519233 13.082881649136498 909.4572134156072 40.05974649075666 0.3552654889348587
1.3061756729267622 13.084492489506715 809.1287135643372 41.8888808595966 0.36086689748053563
1.3331998200787651 13.08522675206992 720.7106516506973 43.80314594419018 0.3666080087483697
1.3601952624590317 13.085049144511256 642.6183596879805 45.80787783693895 0.37250022058305604
1.3871159422724404 13.083822270974126 573.504594251861 47.908066949601746 0.3785516375604454
1.413952422431541 13.081545312054844 512.4392576356631 50.10806167244243 0.38476588732379924
1.440681449117698 13.078159459070681 458.28344156047865 52.41382537248564 0.3911538563330095
1.4672557453775288 13.073571562589509 410.31821678116626 54.83137709777895 0.39772523825586986
1.4936609787680573 13.06775832223728 367.6917072542804 57.36688243724952 0.40448905340178304
1.5198671061095534 13.060658229841312 329.8868470543288 60.02694291600527 0.41145502882556534
1.545844994153828 13.052212341439509 296.24342250544686 62.81863521782989 0.4186336564631036
1.5715557882414106 13.042381416760216 266.3279177467675 65.74955415961311 0.4260362560049323
1.5969677628358472 13.031101518686242 239.6807155103471 68.82785979811507 0.4336750430622711
1.622064774058179 13.018330829273989 215.941290802106 72.0623290967374 0.44156320324795584
1.6468141894133426 13.004052486545335 194.7368746143567 75.46241263355593 0.44971497286985695
1.6711684005641823 12.988183298739704 175.8144925807455 79.0382968926064 0.4581457270179986
1.6950983412285414 12.970697499213196 158.88930289067326 82.79985098306581 0.46686747060469025
1.7185878634658625 12.95155354096743 143.75581570334415 86.75945444122338 0.47590044011970006
1.74158692914347 12.930704798303438 130.22130420490956 90.92957206256486 0.48526269340289896
1.764069281242394 12.908117388909533 118.07454037627848 95.32294234072839 0.49497090490379675
1.7860015846696178 12.883748082744441 107.1879974843383 99.95450523900693 0.505047758531534
1.8073370477508135 12.857543077133592 97.41009879436008 104.84005390175153 0.5155162350917866
1.8280825930713152 12.829541724294206 88.62997525469437 109.99540023194996 0.5263963384002818
1.848166542228171 12.799634196402494 80.73825955239084 115.43926078104855 0.5377157240440203
1.867568173846759 12.76781462857023 73.63144885139259 121.19132599219465 0.5495019751879441
1.8862573614135096 12.734058860274704 67.23746038689063 127.27280921929736 0.5617843554081237
1.904187551326493 12.69830061073717 61.468704558053865 133.706832202963 0.5745948138039253
1.9213529995850271 12.660585933909948 56.26598364627042 140.51743541589377 0.5879640872727739
1.937700847183566 12.62082603183988 51.56441579059922 147.73280676417568 0.601932585735431
1.9532184076811194 12.579064490619928 47.32611351263763 155.3823152405239 0.6165393728789512
1.9678753271991263 12.535283010247687 43.48693073415134 163.49770736508165 0.6318258757645298
1.981618476386824 12.489383788523725 40.01158364168972 172.1140094890873 0.6478383178627519
1.9944517251200709 12.441449231995346 36.86620145587424 181.26984159310555 0.6646280088772376
2.0063042969201694 12.3913501340483 34.0182477673847 191.00680377053934 0.6822484919319982
2.0171888763084227 12.339198739488523 31.433736306523663 201.37066701152708 0.7007586562449771
2.0270640297785336 12.284933046894416 29.087410852367864 212.41183602298025 0.7202232485870763
2.0359196992117554 12.228595504158664 26.957952266391565 224.18439830312408 0.7407086479648471
2.0437082479253164 12.170125746315962 25.02205217659439 236.7501033311514 0.7622946361876403
2.0504126448068445 12.109549473364563 23.262454853983098 250.17407216957676 0.7850589304584987
2.0560268156560975 12.046901806310633 21.660918182745966 264.5305906049998 0.8090944728412552
2.0605225472726287 11.98218500798156 20.204481211922108 279.90041023954876 0.8344987755924972
2.0638862124495034 11.915435448145075 18.878939204518435 296.37299844870176 0.861379140890832
2.0660998283128182 11.846661925828826 17.671558318373748 314.046437978962 0.8898498858010245
2.067146953000963 11.775901624717603 16.57143316115947 333.0317557793671 0.9200437390027937
