M[M_sun], R[km], Lambda[1], P_c[MeV/fm^3], rho_c[fm^-3]
0.24162668629717493 15.618656898711224 2160425.4255784233 3.5677272577965504 0.1711233750220791
0.253639270977437 15.277412950943384 1723341.4294476386 3.784751723933726 0.17388732693587883
0.26603200202071814 14.981435412820712 1383218.8127135143 4.011258786286065 0.17666493669863162
0.278803042003824 14.723735603188699 1116667.0685588634 4.247506646886092 0.17945494436687343
0.29195251846033654 14.498685103902886 906079.1121738403 4.494119449213648 0.18226389725225062
0.305484034811863 14.301483000306487 738889.1884549882 4.751247647670404 0.18508740077578595
0.31939538966871217 14.128431663023806 605259.9994742532 5.019581904975911 0.1879322579511092
0.333687494465784 13.976298449938895 497872.3267758281 5.299334747595608 0.19079486656107278
0.3483641165503566 13.842327783073765 411192.52313636284 5.591247987052279 0.19368179082446815
0.3634196982412314 13.724311344871012 340834.121295631 5.895472187382043 0.19658778539037244
0.3788672393323595 13.620321575443748 283466.8806781629 6.212878189893856 0.19952067381345392
0.39469331613159503 13.528773181090186 236547.04650974827 6.5437358388251194 0.20247685624593917
0.41091218513791244 13.448174582292951 197999.85944741365 6.888722535437488 0.20545962236987303
0.4275134311337593 13.377328856204693 166217.3187890139 7.248554043689846 0.20847224467453304
0.4445019189485139 13.315175318577074 139912.079195868 7.623507123168004 0.21151055582665623
0.46187604477001415 13.260807423888718 118068.3657483979 8.014495020563634 0.21458016720161383
0.4796322966523644 13.213387055448694 99894.69492243299 8.422238424052825 0.21768298831436916
0.4977825451910825 13.17218597875272 84716.26874468951 8.847202280897308 0.22081683799413376
0.5163126120588173 13.136586329581359 72009.37921605009 9.29021146625385 0.22398444301166126
0.5352218570942344 13.106024002517447 61334.65894648816 9.752172399202488 0.22718904918315955
0.5545217638055963 13.079954820298695 52356.82147199553 10.23389360839677 0.23043200574538864
0.5741925726969179 13.057967529994356 44775.43968289293 10.73588020620055 0.2337104459567789
0.5942452211269003 13.039664625615941 38367.784574670826 11.259308568187148 0.2370297044643803
0.6146707599094412 13.024600783825624 32939.00375963626 11.8051471581406 0.2403918075384454
0.635463844182445 13.012502106291176 28326.435315269584 12.374373617203041 0.2437983856812952
0.6566261622088984 13.003089304569865 24401.300375211864 12.967723294297688 0.24724791832608373
0.678148203261494 12.996038013738271 21053.52072789163 13.58642949504472 0.2507441516043432
0.7000261230475697 12.991087549498202 18195.034693196525 14.231732439814477 0.25429022453419553
0.7222506801388491 12.988025067660935 15749.005557963865 14.90482003606977 0.2578881183337132
0.7448278383809623 12.986651368107834 13651.696318000379 15.60678208634373 0.2615383409436211
0.7677378956351492 12.986757321317873 11851.327614758176 16.33876313090469 0.2652415811965679
0.7909726545381585 12.988118324497837 10303.244599430363 17.10243470570898 0.26900311310033104
0.8145366588889942 12.990635697595819 8969.538392481429 17.899249509662585 0.272825364610995
0.8384073970047762 12.994098251072781 7817.972125111025 18.730647688879785 0.2767100975690244
0.8625785430690738 12.998353512746275 6824.443334439018 19.597821701251746 0.280656445266148
0.887042871730206 13.003285777099771 5964.424443406416 20.502926637633408 0.28467141956854797
0.9117919833194842 13.008779328654422 5218.77121687598 21.44775349666421 0.28875802760855757
0.9368004609417764 13.014667603128553 4572.285386779548 22.43388147416715 0.29291696749520546
0.962066963830867 13.020868004827213 4011.0532027737795 23.463142044483714 0.29715049673710314
0.987582975856074 13.02725075169625 3522.213768504665 24.538045802248117 0.3014654603948517
1.0133187537647965 13.033720094219797 3097.1530870199963 25.660647078554927 0.3058643360007006
1.0392659111150502 13.040170259439215 2725.9568718864393 26.832677693821527 0.31034669943855997
1.0654103970591577 13.046498849873474 2402.2019973872243 28.057338552379317 0.31492209804627774
1.0917268420713906 13.05262217709795 2119.188205224806 29.33681539873976 0.3195918926025531
1.1182161161227175 13.058463283682237 1871.7815389750374 30.673594945763245 0.32435894174847363
1.144837290617644 13.063920647762908 1654.8270393664889 32.07130449855594 0.32923286707908817
1.171589836708989 13.068936261981216 1464.649769681193 33.53172016443899 0.334210304607932
1.1984398584857323 13.073412923643698 1297.7238450776908 35.05938469636701 0.3393048790444203
1.22537242153596 13.077274206452676 1151.1224626011713 36.656535885270294 0.34451469418236164
1.2523581483755875 13.080453498357596 1022.0479754393234 38.32788314766656 0.34985213277699667
1.279391457027309 13.082900861421262 908.41457496393 40.07599274920119 0.35531574943096184
1.306427471332238 13.084501930741009 808.3595361716176 41.90617929412906 0.3609191932688286
1.3334532233345675 13.085231272068116 719.9325616510786 43.821690317432285 0.3666631322160888
1.3604555507707747 13.085044227681673 641.9202827728035 45.82762932274723 0.37255765522074996
1.387378860426967 13.083806186781823 572.901115738088 47.92910983376224 0.378611532401557
1.4142266316122427 13.081535959947413 511.804493630829 50.130626469133176 0.3848291163708187
1.4409529514138935 13.078121214222012 457.77110910194057 52.437876291153636 0.3912198911445713
1.4675347556370073 13.07352851076304 409.83250598901003 54.85702052942166 0.3977942657619814
1.493938954188764 13.067686691936151 367.27266834997073 57.394233385570864 0.4045612749743989
1.5201465535837377 13.060571643395111 329.49588071474363 60.056125768026774 0.411530661463671
1.546125982227951 13.052113987464798 295.8989502320984 62.84978459134181 0.4187129340951764
1.5718394921128724 13.042266548460612 266.0082993486007 65.78281583601841 0.4261194309213691
1.5972554660841003 13.030962048640745 239.40952832565807 68.86339175025996 0.43376238749185114
1.6223473678855072 13.018186260275165 215.6819534132242 72.10030262249487 0.4416550110940702
1.6470995630304888 13.003878487054982 194.5103771813125 75.50301360726846 0.4498115616241444
1.671453007879295 12.987988937073263 175.60442960809323 79.08172714800729 0.4582474398711689
1.6953885827068171 12.97048129599653 158.71301819095606 82.84610822026774 0.46697376960105735
1.718852206940553 12.951271300012237 143.59798512203915 86.80898824893985 0.4760126098230808
1.7418684122586072 12.930436240680745 130.0632719907171 90.98240306921993 0.485380222946312
1.7643482687843008 12.907823729905353 117.92834824199976 95.3795788752005 0.4950951781067522
1.7862767480651625 12.883426818924839 107.0571902065925 100.01499659754519 0.5051782962589163
1.8076204144083698 12.857212096017351 97.2921425457519 104.90471341236139 0.5156535396980982
1.8283499501297695 12.829164755454961 88.52204408338372 110.06484284106146 0.5265419705534888
1.8484274430204737 12.799224331946393 80.63576408340003 115.51359531841962 0.5378692735473521
1.8678261116095825 12.767375475222469 73.54053828531362 121.2709607887125 0.5496640824507573
1.88650643961401 12.733586877644822 67.1495336816496 127.3581908335329 0.5619557156266226
1.9044413857314861 12.697826779503043 61.387581758275836 133.79819759138445 0.5747752934887576
1.921580632746836 12.660015510237498 56.19562778317544 140.61549815726968 0.5881551507843501
1.9379344939901377 12.620280659182802 51.503641884174996 147.83821506339856 0.6021353438433761
1.9534370331245177 12.578470676677428 47.26529513875675 155.495366598801 0.6167536165194869
1.968076555848812 12.534614305144022 43.43517450635812 163.61944076833188 0.632053813531333
1.9818131250298274 12.488686659073025 39.96378225661138 172.24483142287536 0.6480798662597173
1.9946205019139684 12.440677294209202 36.82351976781906 181.41058053313924 0.6648843668079648
2.0064756222826965 12.390579239074734 33.97749234233124 191.1583724290875 0.6825209687272629
2.017358416353577 12.338413477186956 31.39609631291412 201.53407213856332 0.7010486842268798
2.027213342562338 12.284085927338499 29.053451232128378 212.58816728474272 0.7205323244388607
2.03603666186362 12.227662934799051 26.92518257661347 224.37450318550725 0.7410372487798018
2.0438229933264163 12.169185837840454 24.992902025784467 236.9554792723809 0.7626451057145762
2.050511622484062 12.108563619519959 23.235705913069975 250.3962778407172 0.7854335189929157
2.0561087316414826 12.045869759687433 21.63617284297232 264.77101765002305 0.8094945574126908
2.0605926529141407 11.981125031277953 20.18200050776356 280.1608842806519 0.8349267751494249
2.063937816300858 11.91432819902006 18.85648178649687 296.6550686827966 0.8618361452117246
2.066127001086444 11.845496050271889 17.652254535789233 314.352833921283 0.8903403654412366
2.0671550913325634 11.774692433475902 16.55462412491637 333.36449538074277 0.9205692746241148
