M[M_sun], R[km], Lambda[1], P_c[MeV/fm^3], rho_c[fm^-3]
0.24162668629717493 15.618656898711224 2160425.4255784233 3.5677272577965504 0.1711233750220791
0.2536422447801505 15.27734202734555 1723228.6456799177 3.784806182221097 0.17388800573215937
0.26603835993643515 14.98130896601939 1383068.327925393 4.011373266857009 0.17666632012876965
0.27881195494253747 14.723610423044606 1116440.2334439256 4.247685021131196 0.17945701323931237
0.29196571953853034 14.49850250029988 905962.8945327558 4.4943663960858675 0.18226664706298618
0.30549973553470344 14.301319328695277 738679.1702525526 4.751571550158432 0.18509089954083385
0.3194156793470784 14.128209679425698 605156.0017169382 5.019985147207316 0.18793644174489724
0.33371286805891115 13.976029080246704 497727.5856634886 5.299827943457336 0.19079983222504046
0.348392624630918 13.842094109035811 411043.4985677584 5.5918323660598785 0.1936874448521238
0.36345222811340927 13.724088753933751 340687.03765711235 5.896160875577313 0.1965942536956444
0.3789060645568021 13.62007167344221 283348.2321911941 6.2136795186186635 0.19952798096656157
0.3947370696613493 13.528508454014734 236430.53071865637 6.544648974232141 0.20248486320987324
0.4109607505568043 13.447950287815884 197899.7517908427 6.88976510176022 0.20546850130217342
0.42756743151094334 13.377110223889854 166103.86811128625 7.249735820885563 0.20848202121440965
0.44456110813376704 13.314977201892916 139826.318118165 7.624824843212715 0.21152104572550334
0.4619403901218513 13.260638926562342 118002.51315980362 8.015971662597426 0.21459159022155902
0.4797032258391808 13.21321080294131 99830.16890276653 8.423885498651527 0.21769537201278336
0.49785918548955943 13.172059099315145 84663.31797347184 8.849013713635701 0.2208299535411254
0.5163958932886011 13.136439323076425 71949.23406772378 9.292216565084132 0.22399855903242977
0.5353124577299998 13.105877938930346 61288.665312630634 9.754384754327932 0.22720419613741616
0.5546174923933046 13.079855930401413 52312.90087387789 10.236327635601102 0.2304482154170524
0.5742974986489779 13.057868247484873 44739.30124111824 10.738525328941122 0.23372742846412983
0.5943528505426374 13.039574209421737 38338.16540651628 11.262204555637666 0.2370477986463778
0.6147870915111265 13.02452497430041 32910.233086287255 11.808311112104478 0.24041104965748644
0.6355868833007824 13.01244776945484 28301.00554204812 12.377823706153176 0.24381881391397578
0.6567577828030545 13.003042812713232 24377.36774636055 12.971443675296143 0.24726918249825688
0.6782882883439036 12.995981542156526 21033.69928950242 13.590472984573898 0.250766664670726
0.7001736251422823 12.991072204130536 18177.919432871844 14.236120710231745 0.2543140311153788
0.7224055824885104 12.987996606543634 15734.084993980432 14.909576151881447 0.25791326571084094
0.7449911697913023 12.986640856972423 13638.26140826712 15.611884199827239 0.26156441956338317
0.7679083389374376 12.986762431193842 11757.537526360475 16.344280315906715 0.26526908298004515
0.7911512437920394 12.988139225867238 10293.441172999346 17.108394641151317 0.2690320942481837
0.8147234684423307 12.990653678745517 8958.86707573935 17.90568170910065 0.2728558849374043
0.8386033027308489 12.99412438278088 7810.120715645604 18.737523627179346 0.2767416889478049
0.8627830477257742 12.998379136460155 6816.859080395151 19.605230755116573 0.28068968501819375
0.8872543390193711 13.003339197428415 5957.178343840828 20.51090445249421 0.28470637959024775
0.9120147000336926 13.008832700446991 5213.016050623999 21.456338158269816 0.28879478464354646
0.937030945895989 13.014722271588255 4566.86224329832 22.44303722894949 0.29295499528807506
0.9623069234076186 13.020918107986814 4006.087248404226 23.472983752831887 0.29719046683896155
0.9878279507996346 13.027315321270203 3517.7381963838907 24.548619769102174 0.3015074657454651
1.0135685360593754 13.033770254220572 3093.3330905318207 25.671912382868655 0.30590781097962244
1.0395300931914726 13.04022362563599 2722.4873200538705 26.84477200813279 0.31039238958021026
1.0656794551410926 13.046555593153961 2399.236441802839 28.07031846575027 0.31497011638993583
1.0920082945046594 13.052680682659977 2116.485973711595 29.350634920014855 0.31964163439391413
1.1185044976478038 13.058520181136062 1869.300200132495 30.6884190049093 0.3244112345776864
1.1451325563681363 13.063975799638044 1652.5616756675604 32.08712956474275 0.329287376443716
1.1718930616684533 13.068993690239104 1462.6905136149571 33.54864159005067 0.3342673315569154
1.1987470108951173 13.073445433721567 1295.9301279035672 35.07752714916665 0.3393648712173986
1.2256908854119608 13.07731743165198 1149.5477410945598 36.67584673360029 0.3445769879898191
1.2526846935262306 13.080485020070135 1020.5731755108499 38.348584482399595 0.3499177100672471
1.2797231187872626 13.082932874450817 907.0837469417955 40.0980306238555 0.355383927252764
1.30676644145341 13.084522768724527 807.0940048242719 41.929644766801395 0.3609901329477206
1.3338011333814286 13.085232496973731 718.8286054895092 43.846846361429286 0.3667379089885958
1.3608072153386828 13.085037269683074 640.9021450154938 45.854423246828496 0.3726355683122988
1.3877371415250617 13.083783043259777 572.0452772607572 47.95765603341558 0.37869278410068413
1.4145921651433049 13.081494841127851 511.04385760596836 50.16123781991507 0.38491489274915014
1.4413140414392174 13.07804868865601 457.07372452898255 52.470504217424704 0.3913094752054841
1.4679063819762612 13.073457049404094 409.2007117577431 54.8918094389736 0.3978879112498463
1.494315198023282 13.067594892454249 366.6994174358245 57.431339380217786 0.4046592552438723
1.5205254658509066 13.060456951394368 328.9805066605918 60.095717690283465 0.4116332710895479
1.54650807235984 13.051978114354515 295.4225357269768 62.892045175509764 0.41882049064174925
1.572223969450904 13.042103940162662 265.5847947955204 65.82794297530295 0.42623227688840004
1.597647101489128 13.03078567042398 239.0304123818319 68.91159989295375 0.43388089245627104
1.6227274686677107 13.017945164118268 215.33622310765818 72.15182431187034 0.44177957406881074
1.64748603054621 13.003641966486388 194.18654200485048 75.55810118163102 0.4499426136580702
1.671834364952467 12.987719229126755 175.31368119949457 79.14044154698942 0.458384557094164
1.695773271570547 12.970178236418185 158.4412401995799 82.90887244538027 0.46711800160756684
1.7192380638594884 12.950942442361779 143.3495695247881 86.87619963221289 0.4761648105375645
1.7422405557422578 12.930049711428127 129.8390187889349 91.05408959337818 0.4855396990757031
1.764721290132453 12.907410830432623 117.73330779883807 95.4564307372789 0.4952638082523391
1.7866493712743055 12.882988336866227 106.86985430915226 100.09708070277408 0.5053554301968822
1.807988940283619 12.856744513667438 97.12964832949154 104.99245518756561 0.5158398595416583
1.8287015355405392 12.828623187191083 88.37308263549791 110.15907732412656 0.5267395951941917
1.8487827523480684 12.798669087210458 80.50292044543964 115.61447025516215 0.5380776463573976
1.8681715264679666 12.766776803736422 73.41603190518428 121.37903065323509 0.5498840730917381
1.8868449765151292 12.73294126622353 67.04053155123732 127.47406203006697 0.562188268193514
1.9047704234613994 12.697139341838897 61.28802478513622 133.92210802701518 0.5750199311625415
1.921916086250307 12.659341299807625 56.10120534817617 140.74858456478412 0.5884144537163911
1.9382324392251162 12.619467557363569 51.41545314336221 147.98127394919834 0.6024105247278354
1.9537450958345242 12.577676216626914 47.18521977447551 155.64880192883533 0.617044391828995
1.9683546513213634 12.533730443051612 43.35938667763841 163.78464430363692 0.6323631168773971
1.9820759347883075 12.487750432849026 39.89831251536082 172.42239402796002 0.6484077161957125
1.9948714565046415 12.439689591256812 36.763348067741155 181.60160804835013 0.665232326075668
2.006706430535529 12.389535847787673 33.92107476130609 191.3641045839855 0.6828908158895092
2.017566193974447 12.337292092600947 31.342928059296455 201.75587644994948 0.7014423650003991
2.027407193652213 12.282927283794375 29.005270855848046 212.82699502166983 0.7209501392760052
2.0362251731337744 12.226482161356412 26.88254879932612 224.6325633537624 0.7414833119241722
2.0439766970412343 12.16790663663665 24.95309598185221 237.23402835853932 0.7631200574944312
2.0506440922067855 12.107222404910164 23.198301210636963 250.69793117883574 0.7859420383355944
2.056218884215187 12.044474595925376 21.603126324398293 265.09741697452904 0.8100377048520698
2.0606801960448076 11.979667529501958 20.15077865073534 280.514376095672 0.8355074003113103
2.063999001634545 11.912806510606796 18.83001440591919 297.03802552311754 0.8624566039116782
2.0661635017438504 11.84391352186593 17.626038909190708 314.7688308875225 0.89100629476388
2.0671660656924398 11.773043989467142 16.530336399202042 333.8162743554325 0.9212828234267874
