M[M_sun], R[km], Lambda[1], P_c[MeV/fm^3], rho_c[fm^-3]
0.24162668629717493 15.618656898711224 2160425.4255784233 3.5677272577965504 0.1711233750220791
0.25364645310268197 15.277224114004252 1723124.5115805608 3.784866967845362 0.17388876339564188
0.26604550540647764 14.98112162497335 1382860.149452583 4.011501051325235 0.17666786432865492
0.2788225448879796 14.723401454228886 1116275.2616762912 4.247884128573253 0.17945932258559172
0.29198048895778866 14.498245446401835 905735.5504989855 4.494642052248367 0.18226971655833205
0.30551978049135053 14.301027076967571 738504.9747606963 4.751933116017135 0.18509480514216664
0.3194384213187928 14.127944495085009 604986.3000666806 5.020435287208163 0.18794111212114412
0.3337406804063901 13.97573267364969 497528.5570157182 5.300378509918427 0.19080537551574867
0.34842538954817714 13.841821747070394 410879.103134601 5.592484734697473 0.19369375669815297
0.36349075667068764 13.723796837972879 340534.4364764526 5.896929704365995 0.1966014746983292
0.37894847467989096 13.619822867302137 283199.20172882127 6.214574113021056 0.1995361385903496
0.39478571177436705 13.528261563382541 236308.98463765706 6.545668406513097 0.20249380225379168
0.4110149315024717 13.447676025857856 197781.741532169 6.890929054084368 0.20547841400859948
0.4276275768320197 13.376873797961446 166006.61807280747 7.251055217472606 0.2084929362442419
0.4446265759271428 13.314770354216181 139736.52912138417 7.626296038385641 0.21153275738505523
0.46201151671667817 13.260398596576097 117916.09843816288 8.017620320244076 0.21460434392133831
0.4797831399500713 13.213010523491354 99760.22881248537 8.42572447694203 0.21770919855868343
0.4979444974273635 13.171852392798511 84591.51232236192 8.851036232793513 0.2208445974439839
0.5164891380671364 13.13627845866231 71899.79723937332 9.294455359351824 0.22401432028364687
0.5354116760452037 13.105746113648001 61243.40061519426 9.756855005929877 0.22722110878746343
0.554724689540879 13.07972257839771 52271.31453315163 10.239032342957744 0.23046614647778613
0.5744126098427625 13.057766771900068 44700.40640678845 10.741478896481441 0.2337463912826394
0.5944751601782154 13.03943840681263 38300.589585781505 11.265438299416628 0.23706800313602752
0.6149183743160209 13.024434678745683 32878.77193367868 11.811844138894575 0.24043253635509526
0.6357279146625946 13.012382511127452 28271.02791046825 12.381676314892914 0.24384162549619878
0.6569046301797042 13.002972176073198 24352.297155624878 12.975598173975426 0.2472929279090753
0.6784425408160432 12.995942484699631 21014.21063349203 13.594988375265826 0.2507918051563531
0.7003368188959632 12.991037222232112 18157.866583974286 14.24102120807507 0.25434061655534773
0.7225782608556649 12.987995334858224 15717.202376620853 14.914887528064913 0.25794134895886134
0.7451725517032602 12.986643458324775 13622.353171062743 15.61758205262952 0.26159354320737327
0.7680993231057159 12.986763930052557 11744.752672489281 16.350441816294094 0.26529979651411856
0.7913516003235718 12.98815628075658 10280.784759389277 17.115050718103973 0.2690644604964677
0.8149316035759753 12.990679268961765 8948.254097069826 17.91286534238877 0.27288997076370203
0.8388210417063083 12.994154782594393 7750.7995508222175 18.74520295236629 0.2767769714736493
0.8630083848354243 12.99843868526709 6807.829783398669 19.613505636058697 0.28072680919028675
0.8874952759240557 13.003394729741775 5949.763326283316 20.519814723465505 0.2847454257792033
0.912259120342869 13.008884786409345 5206.050192346959 21.46592638161547 0.2888358386392878
0.9372865190181703 13.014781716701895 4561.097823160421 22.453263460099997 0.2929974692303412
0.9625766397394006 13.020997147445254 4000.4982323957174 23.483976342804983 0.297235111013059
0.988103821915289 13.027380461418332 3512.9207204070835 24.560430468883087 0.30155438404889223
1.0138534036353222 13.03384850965032 3088.9812643667838 25.684495470155255 0.30595637153682725
1.0398225849645237 13.04031056673675 2718.7250931009007 26.858281337670462 0.31044342539458475
1.0539818408141988 13.037888098754415 2527.9807933719235 28.47519364913071 1.2608502505021038
