M[M_sun], R[km], Lambda[1], P_c[MeV/fm^3], rho_c[fm^-3]
0.24162668629717493 15.618656898711224 2160425.4255784233 3.5677272577965504 0.1711233750220791
0.2536435625013284 15.277269541161301 1723266.9988646978 3.7848120515189425 0.17388807889012556
0.26603913083211095 14.981275895912281 1383064.1082356875 4.011385605257634 0.17666646923105958
0.2788136519503743 14.723568453758226 1116461.7385060366 4.247704246026014 0.17945723621912096
0.29196701500732214 14.498477459834898 905898.6658693574 4.494393011913597 0.18226694343640515
0.305503251125727 14.301232645459729 738671.8633656334 4.75160646060616 0.1850912766402969
0.31941816732269135 14.128180522259461 605123.6530275614 5.020028609394333 0.1879368926818624
0.3337158665336533 13.975990088190317 497702.6428670656 5.299881101570907 0.19080036743903886
0.3483958490404092 13.842070146330256 411031.9154414635 5.591895352781468 0.19368805426598223
0.3634578344087697 13.724032893554451 340679.1464145381 5.896235105926212 0.19659495088279005
0.37890902918129715 13.620065760524163 283330.90811094025 6.2137658908235025 0.1995287685770708
0.3947417896901257 13.528481677157293 236419.54710867384 6.544747398575498 0.20248572625839972
0.4109653912436554 13.447914434678276 197883.94556982268 6.889877478228806 0.20546945834733685
0.42757382726357424 13.377083355178208 164093.65606818692 7.249863203926595 0.20848307502166263
0.44456752718931436 13.31497569572489 139816.51362464958 7.624966880715049 0.21152217643535173
0.4619484638361186 13.260607026938088 117997.93396481099 8.016130831913127 0.21459282152489884
0.47971176242413366 13.21317858251385 99833.27684275548 8.424063040861068 0.21769670688199963
0.4978667733860637 13.172031751521988 84652.19178111403 8.849208974082687 0.22083136731018996
0.5164050675826527 13.136418253828552 71944.41083692336 9.29243270352908 0.22400008066055688
0.5353222304118975 13.105862482597304 61283.7980199115 9.754623236126816 0.2272058289100471
0.5546279714847935 13.079840228390623 52308.31292607267 10.236590015145781 0.23044996276246538
0.5743085356129086 13.05785997821261 44737.64458972007 10.73881046617786 0.23372925913351417
0.5943629737934968 13.039549558948746 38333.129728002146 11.262516738381574 0.23704974916981106
0.6148001777552509 13.024534065408728 32906.7876100722 11.808652184427743 0.24041312394627848
0.6356005029126816 13.012439732324658 28066.45134665064 12.378195627168385 0.24382101608590448
0.656769962359052 13.003034569283075 24374.62029991746 12.971844737093335 0.2472714748030265
0.678302033845944 12.995984113651565 21031.141184746353 13.590908881980226 0.2507690916307005
0.7001891740963984 12.991061266833416 18175.20064933752 14.23659378025784 0.25431659754335856
0.7224214189128167 12.987999748877513 15732.517042941034 14.91008888168688 0.2579159767065972
0.7450078797416121 12.986651580685939 13636.234970595653 15.612434233963805 0.26156723097303725
0.7679273849996915 12.98675955241 11837.90929449011 16.34487510249955 0.2652720478420328
0.7911709348051407 12.98813046546289 10291.08005792125 17.109037165049273 0.2690352186243226
0.8147437993774067 12.990662553766605 8958.068844192721 17.906375153033313 0.27285917527928116
0.83862438657157 12.994115804858307 7809.085215689264 18.73826491555492 0.27674509478433773
0.8628034549206763 12.99839615790108 6815.868563030928 19.606029525793122 0.2806932685984611
0.8872754434279805 13.003339899731822 5956.508369009541 20.511764549585187 0.2847101486690606
0.912036445449991 13.008841600686168 5212.187590574246 21.457263689109553 0.28879874749858053
0.9370547962643236 13.014735291290345 4566.21033564215 22.444024338295517 0.29295909517832364
0.9623326114677005 13.020927660860536 4005.333223932967 23.47404482722526 0.29719477617734896
0.9878559917204701 13.02731814703931 3517.362346900462 24.549759802440946 0.30151199455672084
1.013596352864004 13.033778036155246 3092.5396991603156 25.67312696248179 0.3059124982762644
1.0395582531396004 13.040231423205974 2722.079054169575 26.846075981240787 0.3103973157558064
1.0657085143335063 13.046558499097369 2398.897765824326 28.071717935590925 0.3149752936374125
1.0920382576556331 13.052688250084351 2105.7218151652346 29.35212492693478 0.3196469975039569
1.118535954269883 13.058526870441321 1869.0927341573677 30.690017336453174 0.3244168727957767
1.1451654886322011 13.063983414189332 1652.518203214524 32.08883100465074 0.3292932224236547
1.1719256993712757 13.068995666910814 1462.506025269147 33.55046609408782 0.3342734803236348
1.1987804731863274 13.073453109060045 1295.7392393974562 35.079483327637945 0.339371339769282
1.2257247479002826 13.077321358311096 1144.230664156861 36.67792891026659 0.34458370476943057
1.2527192416113686 13.08048609661162 1020.411496774786 38.350816611329215 0.34992478096236485
1.27975881228906 13.08293643970071 906.9089604933198 40.10040688681069 0.3553912786164892
1.3068021759827446 13.084516530396707 806.9374776857107 41.93217498525534 0.3609977821814333
1.3338387145649306 13.085235726812844 718.8056800411468 43.84955890020306 0.3667459720566532
1.3608459833101638 13.08503225430663 640.8064813725057 45.857312422770946 0.37264396964347457
1.3877747011749486 13.083780089558356 571.9629681030548 47.960734185684444 0.37870154551569046
1.4146315447301827 13.081491169279563 510.95478563336235 50.164538697487934 0.38492414217187354
1.4413539670974795 13.078043961316522 457.00542691114987 52.47402258077329 0.3913191353130225
1.4679466821732194 13.073447571450279 409.1230511619341 54.89556086521655 0.397898009414613
1.4943523054633014 13.067591909010863 366.6251115465627 57.435340708152275 0.4046698209541572
1.52056647799089 13.060446858272703 328.9238928552345 60.09998713333742 0.41164433612325924
1.5465492220211137 13.051962955363196 295.36854889413127 62.89660244596496 0.4188320892573768
1.5722649537163045 13.04208790955957 265.53939040134895 65.83280942104165 0.4262444460350398
1.5976889734732707 13.030764592154915 238.99071398717194 68.91679864813781 0.43389367200478074
1.622776184357426 13.017950096479188 215.29720596100213 72.15738046313332 0.44179300706640484
1.647527773861152 13.00361760782289 194.15347769326854 75.56404195155991 0.4499567466089448
1.6718766408617172 12.987689568489666 175.27613283147954 79.14676548095699 0.4583993107597598
1.6958135725184038 12.970146885107837 158.4099752691031 82.91564123470559 0.4671335562657225
1.719279732853125 12.950908039089503 143.32627766906418 86.8834481159153 0.4761812247868286
1.7422814264316295 12.930008909494513 129.81776740929803 91.06182078876866 0.48555689813969616
1.7647618674757601 12.907368929174606 117.7140977871444 95.46471911077005 0.4952819947944826
1.7866890258231936 12.882941330867792 106.85349314774899 100.10593347094957 0.5053745340865384
1.8080287710933223 12.856692108546717 97.11524121257881 105.00191825020019 0.5158599543749982
1.8287407342456146 12.82856721094749 88.35484038590045 110.16920626415292 0.5267607811131552
1.8488213183363336 12.798609724566733 80.48905394658976 115.62535004358163 0.538100120245946
1.868209325186077 12.766710345503315 73.40261572080468 121.3906866007386 0.549907800329427
1.8868815200237188 12.732870913445216 67.02848009981977 127.48655956786666 0.5622133506521583
1.9048056442529746 12.69706600750053 61.27624237731074 133.93547282115193 0.5750463174158992
1.9219501967031278 12.659260527671428 56.09137027191751 140.76293927700746 0.5884424221546234
1.938265949268601 12.619382084248551 51.40669485198954 147.996704528525 0.6024402062148894
1.9537661633018697 12.57755159477033 47.17644177705154 155.6653519615545 0.6170757557976794
1.9683858210562122 12.533634160951056 43.352078454219246 163.80241406655037 0.6323963109421964
1.9821034476085873 12.487647214247678 39.889178643358534 172.4415471073291 0.648443080262613
1.994897984414722 12.439582044375364 36.75692251589242 181.62221386604088 0.6652698598583076
2.0067299775279004 12.389417980280557 33.91416874755356 191.38629692867136 0.6829307113337081
2.0175893594107244 12.337173717313224 31.337901644993448 201.7798029046927 0.7014848320974182
2.0274289187065375 12.282801603533738 28.999799829443283 212.85275824088822 0.7209952104866633
2.036243964978701 12.226348387093129 26.877866507613486 224.66040175330653 0.7415314312605225
2.0439940419859974 12.1677687849811 24.949386809826326 237.264077539217 0.7631712941078515
2.0506586394309285 12.107077774073849 23.19441339515882 250.73047342658765 0.7859968972094902
2.056235846302832 12.044346175644066 21.59957875998552 265.13262947855804 0.8100963005045774
2.0606885838199123 11.979511400832079 20.147747843170972 280.55245791032223 0.8355698633508014
2.0640008589741643 11.912629650346743 18.82666751931912 297.0793411620188 0.8625235426496805
2.066167444505252 11.843743217324038 17.62350830198071 314.813712050426 0.8910781406782432
2.067166570374809 11.772865598466383 16.527854860296987 333.8650170028835 0.9213598085449011
