M[M_sun], R[km], Lambda[1], P_c[MeV/fm^3], rho_c[fm^-3]
0.24162668629717493 15.618656898711224 2160425.4255784233 3.5677272577965504 0.1711233750220791
0.25364641972018054 15.277240250070294 1723130.5933043638 3.7848760752850445 0.17388887691548394
0.2660459676756317 14.981116487352496 1382898.119481206 4.011520197374919 0.17666809569736613
0.2788248290069844 14.723327660072313 1116288.5453096011 4.247913961379006 0.17945966860118137
0.2919822538971358 14.498221100477307 905712.9089723189 4.494683355064972 0.18227017647478083
0.30552234487690233 14.300967009046005 738481.3329371455 4.751987291751773 0.18509539034349667
0.31944228785478634 14.12790752746218 604901.7601065667 5.020502735372866 0.1879418119218855
0.33374555178260473 13.975676161514107 497506.67366177816 5.300461006808277 0.19080620612254237
0.3484302898949551 13.841780383157307 410853.4600912386 5.592582486738687 0.19369470247604237
0.36349742460836254 13.723729367605216 340506.3278240805 5.897044908369385 0.19660255671870883
0.3789549369661584 13.61977556866808 283163.4669522897 6.2147081637703545 0.1995373609717756
0.3947929344839514 13.528221334032848 236289.39350990448 6.54582116527908 0.20249514174180236
0.41102353761350374 13.447654921656863 197764.118199059 6.891103470752529 0.20547989941413666
0.4276355797924447 13.37685494079939 165985.59380732878 7.251252929529767 0.20849457186542153
0.44463735624853534 13.314721247417838 139716.56658800264 7.626516499790521 0.21153451239959428
0.4620219636887577 13.260376618594695 117905.86222271947 8.017867377539373 0.21460625510925468
0.47979462883459845 13.213019538844998 99742.0922043728 8.426000057581314 0.21771127053983616
0.4979582194293589 13.171817668018186 84585.47733100773 8.851339321008775 0.22084679193216203
0.5165026532182468 13.136253228219172 71889.25466362444 9.294790861594112 0.2240166822403487
0.5354271123304808 13.105708034549622 61233.7719407033 9.757225198117931 0.227223643319137
0.5547398851608873 13.079711992466198 52264.090446291426 10.239435677748986 0.230468807977822
0.5744302426468982 13.057730905316848 44695.20922250425 10.741921527555728 0.23374923311124626
0.5944937949703009 13.039448653137773 38295.13474921923 11.265922923912987 0.23707103107865068
0.6111081133463805 13.02432764273421 33759.795828460046 11.854258430898703 0.5224577743173965
