M[M_sun], R[km], Lambda[1], P_c[MeV/fm^3], rho_c[fm^-3]
0.24162668629717493 15.618656898711224 2160425.4255784233 3.5677272577965504 0.1711233750220791
0.2536462776638341 15.277243570242772 1723157.146576087 3.78486603832898 0.1738887518096686
0.2660454177054266 14.981164799830948 1382846.618597304 4.011499097259773 0.17666784071492703
0.2788230622903658 14.723374170696461 1116245.9724600536 4.2478810838120395 0.17945928727095
0.2919801680853181 14.498231033651459 905734.9019326819 4.494637836855674 0.18226966961895608
0.3055195103640653 14.301030127879491 738511.4543884756 4.751927586815876 0.1850947454162404
0.31943847482281096 14.127948306137785 604944.998979863 5.02042840342807 0.18794104069926876
0.3337387367651287 13.97580524944977 497554.5586965919 5.30037009027564 0.19080529074391653
0.3484248894238079 13.841825970504884 410881.72069540765 5.59247475812833 0.19369366017210204
0.3634917767824274 13.723759808811025 340519.6124318123 5.896917946670463 0.19660136426756458
0.3789477470571234 13.619850911184658 283193.15775891225 6.214560431853948 0.19953601383457878
0.39478484365889444 13.528266838337885 236311.6260423233 6.545652816037317 0.2024936655463808
0.4110141511994998 13.44768512892737 197786.6848701951 6.890911253244599 0.2054782624091782
0.427627019952127 13.376875739773089 166004.83877169254 7.2510350391555685 0.2084927693141963
0.4446253081540625 13.31477104155631 139736.5177502121 7.626273538323722 0.21153257827009483
0.4620100716479103 13.26040627227089 117910.86889831946 8.017595105874246 0.21460414886780274
0.4797819784914417 13.213027775647989 99759.38688853785 8.425696351559669 0.21770898709512662
0.49794238575646715 13.171863396734887 84592.62524022054 8.851005300069689 0.22084437347784688
0.5164872227523148 13.136283783115234 71899.8059009281 9.294421118556281 0.22401407922631159
0.5354108503342812 13.105735073889443 61243.079024498584 9.756817224796924 0.22722085011782853
0.5547224663465761 13.079730285186889 52272.70809046323 10.238991179408405 0.23046587485036787
0.5744085912968933 13.05777051675427 44701.34414379073 10.741433722502624 0.23374610125170225
0.5944722841194758 13.039466070506245 38300.33273924909 11.26538883975709 0.2370676941111797
0.614915745183316 13.024442515136586 32878.08500005127 11.811790101236223 0.24043220771597265
0.6357258759018842 13.012383219749628 28271.6853024962 12.381617388674968 0.24384127658968982
0.6569023656770007 13.00297919553477 24352.424433222102 12.975534629805251 0.2472925647166561
0.6784398018885895 12.995944597098543 21014.304751317333 13.594919310511132 0.25079142062230253
0.700334553430858 12.991044983502295 18158.032837879568 14.240946252248285 0.25434020991632916
0.7225754504572814 12.987989041124564 15717.446677414426 14.914806286866606 0.25794091940602176
0.7451692931241168 12.98665067583975 13622.82633518945 15.617494899327692 0.2615930977375054
0.7680963176048445 12.986758085921606 11826.370575135312 16.35034757024294 0.2652993267211913
0.7913478424201235 12.988156874714411 10280.659594233266 17.114948906075156 0.269063965419048
0.8149276136925802 12.990692872691238 8948.132309155415 17.912755459769908 0.2728894493785325
0.8388177723592932 12.994154792404853 7800.693734096089 18.745085486618372 0.27677643177931605
0.8630048352105282 12.998432695753062 6807.884328807152 19.6133790592755 0.28072624132008833
0.8874926221717775 13.003397824429243 5949.832442608847 20.519678426136615 0.2847448285031749
0.9122553943177496 13.008888468427559 5206.44112269515 21.46577971248004 0.2888352106445234
0.9372824926818477 13.014787179759763 4561.205013369995 22.453107030272243 0.29299681950989437
0.9625709645741305 13.020999000349107 4000.579353438153 23.48380818842249 0.29723442808814815
0.9880998868419296 13.027379679454688 3513.0339881687237 24.560249798059715 0.30155366632947944
1.0138483712307367 13.033839666886932 3088.964292326907 25.68430298243502 0.3059556286896438
1.039819485299231 13.04030368595608 2718.875838358808 26.85807467886842 0.31044264467484356
1.0659777701296445 13.046625707486525 2395.8822665545626 28.08459548874279 0.31502293330611053
1.0923157896646045 13.052755745198555 2113.5969231990643 29.365835689299267 0.3196963478300181
1.1188205602140802 13.058586497730293 1857.2668213969703 30.704725030974313 0.32446875514123485
1.145457698064927 13.064049147476462 1650.1945215011342 32.10448762172656 0.3293470170178125
1.172227137283934 13.069048909339578 1460.508339080711 33.567255319009014 0.3343300617426608
1.199089970531912 13.073496496107472 1294.049417815484 35.097484419712735 0.3394308645006663
1.2260415509508729 13.077361954880702 1147.7243916635744 36.697089623693564 0.34464551426493134
1.2530422402466395 13.080522524515775 1019.0263460932093 38.371231121509254 0.34998910886581597
1.2800907924766003 13.082958290039686 905.6268066732393 40.12227428442286 0.35545892903927573
1.3071469890703773 13.084557171058577 805.8408524586225 41.95545935663204 0.36106817436367183
1.3341815517466513 13.08523840262187 717.7004628919173 43.87452135633989 0.36682017338592354
1.3611940079587366 13.085026329932058 639.849204828717 45.88390064980825 0.3727212845959614
1.3805028246260302 13.081229670147648 588.4476868837161 48.53223668761231 1.6026195447210088
