M[M_sun], R[km], Lambda[1], P_c[MeV/fm^3], rho_c[fm^-3]
0.24162668629717493 15.618656898711224 2160425.4255784233 3.5677272577965504 0.1711233750220791
0.25364380650344404 15.277280794520985 1723216.7122789123 3.7848167235635657 0.17388813712490792
0.26603954811836955 14.981282796837354 1382957.85687555 4.011395426819525 0.17666658791883874
0.2788144432497787 14.723540228173853 1116441.4630576917 4.247719549375323 0.17945741371491128
0.2919678257791587 14.498455562341116 905902.3565013485 4.494414198612952 0.18226717935521963
0.3055046818616905 14.30121787140727 738681.0914899635 4.751634250031411 0.18509157681912652
0.31942019780332875 14.128146194380891 605115.371805741 5.020063206239401 0.18793725163748315
0.3337170977082709 13.97600896057092 497686.643176556 5.29992341666193 0.19080079348179202
0.3483983613977842 13.842048935403856 411018.93830410985 5.59194549175832 0.19368853937437605
0.36345956988849565 13.724037135409942 340654.6843828849 5.896294195212634 0.19659550586187277
0.37891402676297375 13.6200158532313 279401.1018387892 6.213834645465367 0.19952939553661864
0.39474526274600685 13.528474598441388 236407.88988302354 6.544825747177481 0.20248641326979533
0.4109699960303372 13.447887861423066 195377.59373667755 6.889966933279288 0.2054702201840851
0.4275776462744326 13.37707023127561 166082.57309598228 7.249964604836515 0.20848391388540358
0.444572465073746 13.31494938010648 139807.34553572914 7.625079947213341 0.21152307651737964
0.46195308344557545 13.26058443969332 117986.58537508604 8.016257536111889 0.2145938016843122
0.47971629387650677 13.213182290455325 99817.97190512989 8.424204370749793 0.2176977694851873
0.49787406975770077 13.171998256563024 84651.04733905177 8.849364408548524 0.22083249272213465
0.5164118207513457 13.136411034139714 71944.04335832866 9.292604757934669 0.22400129193429855
0.5353298194353882 13.10585732958554 61280.67152362461 9.754813077007878 0.22720712866120746
0.5546355265054184 13.079830570297842 52303.20436925681 10.236798879919968 0.23045135372038303
0.5743172809616466 13.057851059941106 44733.682651472016 10.73903744732452 0.23373071642278567
0.5943734402518213 13.039531333017075 38330.65856672305 11.262765249292285 0.23705130187047832
0.6148100937337551 13.02450974928653 32904.65048151405 11.808923693136549 0.2404147751722303
0.6356140671645649 13.012436192814423 28294.563389033297 12.378491693294043 0.2438227691154035
0.6567825015752353 13.003036252152327 24372.659785327243 12.972164001056655 0.24727329958492048
0.6783136475077569 12.995982890323758 21029.543410138158 13.591255877289289 0.2507710236076158
0.7002012697376055 12.991056671638253 18174.287783130207 14.236970367380268 0.2543186405468771
0.7224356336502767 12.988004465681444 15731.082615103214 14.910497040626096 0.25791813479676556
0.7450216343634773 12.98664370549601 13635.176638281207 15.612872089640058 0.26156946900081307
0.7679419191302375 12.986757077049962 11837.38672448718 16.345348584230187 0.2652744080297067
0.7911854678248473 12.988135847225974 10289.884357531131 17.109548649056315 0.2690377057978458
0.8147578491941635 12.990668324421172 8957.214928860705 17.906927173076017 0.27286179457491244
0.838641155583983 12.994118286406858 7808.332060029442 18.738855023242127 0.27674780602383053
0.8628207382428671 12.998390910432047 6815.270679830631 19.606665393719542 0.28069612133682603
0.8872958215040305 13.003339473609634 5956.150915111105 20.512449238052447 0.2847131490800867
0.91205510498899 13.008849256317875 5211.782145202822 21.458000467976664 0.28880190217232793
0.9370750130130321 13.014729881686392 4565.645007051891 22.44481013847506 0.2929623589449027
0.9623528352278805 13.020934184570809 4005.054673530323 23.474889509602153 0.2971982066834611
0.9878765811269355 13.027324443851711 3516.993511241429 24.55066734269331 0.3015155997833139
1.013619151835538 13.03378407964881 3092.209849918028 25.674093847731896 0.30591622967265614
1.0395812268499989 13.0402369787637 2721.7629947343808 26.84711403139852 0.3104012373223811
1.065731673182766 13.04656820579875 2398.579771483514 28.07283200951789 0.31497941508130484
1.092062731805855 13.052700963081094 2115.9132320838926 29.353311076271588 0.31965126691327006
1.1172097025543148 13.057507795273994 1879.4238282738522 30.723967279602395 0.42408726422818943
1.1358008361827059 13.05364883712028 1715.0285422980958 32.299464238496405 0.5850332676714928
1.1492054098726223 13.039351421218962 1593.8712692246806 34.09642128055785 0.7358010237951473
1.1588431779382993 13.015385959193749 1498.231605043592 36.1147779885537 0.8763244652939788
1.1656400430531422 12.982415933929119 1418.4902024110884 38.35219804176865 1.0075471879276445
1.1703650871985987 12.941370117190232 1348.926768069992 40.807807168026144 1.1307803029332235
1.1735509125150763 12.892849120671885 1285.5706540831327 43.482356517979476 1.246426282432576
1.175608945978043 12.837505342493058 1225.7180349233197 46.37623201144027 1.354276468813501
1.1769047577904472 12.77588085762659 1167.8867362575393 49.49130986103404 1.4565231817135444
1.1776708695065865 12.708443650060122 1111.1215843252346 52.832358593007434 1.556319740175045
1.178153878491687 12.635808802195859 1054.7464696081622 56.404220918376325 1.6541126273536144
1.1785111596334834 12.558510153362018 998.5586990466006 60.21657639113695 1.750869979791865
1.1788590721958518 12.476868164375807 942.6215273371718 64.27783001022493 1.8474408345930862
1.1793278949749832 12.391388187139418 886.7888603801002 68.5981047781977 1.9452806097696929
1.179971303631592 12.302540436121513 831.6700409245478 73.19028915301735 2.047417776580414
1.180840052276172 12.210732539222183 777.4157249761673 78.07271193240437 2.1619673085984394
1.1819409394981835 12.117112905553096 724.8267563999669 83.2790479204806 2.3196225004624615
1.1830732123825174 12.021736239359154 674.8472299189363 88.84225649722528 2.4231120880201873
1.1846911629089991 11.921954328273587 624.696971249003 94.68331143476333 2.4604501257865143
1.1870925431380859 11.819268979692533 574.9845231085557 100.80479750672166 2.499277302060853
1.19034877376876 11.714783606305218 526.2271643153683 107.2270221111118 2.5398109601135057
1.1945050658183736 11.609365217433451 479.1313217331074 113.96449751871155 2.582138148162343
1.1995554439409155 11.503860763358295 434.40172785450665 121.03935281881002 2.626375499773883
1.2054467228225938 11.398704625394085 392.2235836827619 128.4738826542203 2.6726369771415786
1.2121393539725622 11.29449568606869 352.9854780889083 136.290147553521 2.7210304625143986
1.2195437586629791 11.191444028276743 316.7576993433123 144.51286788254208 2.7716777504920334
1.2275809029395648 11.08986059440121 283.68321964997705 153.17268505894285 2.8247374552199958
1.236190600757162 10.990097052417923 253.60364616044245 162.29397614531283 2.880317112579041
1.245251395817479 10.892000963435034 226.4420531996015 171.91260673861325 2.9385997296971156
1.2546857990941847 10.795837441043894 202.09302534286005 182.06190310847916 2.9997423465373227
1.264402439812646 10.701519916670907 180.28209769321484 192.7792201146429 3.0639222534179584
1.2743021358539635 10.609024389206414 160.8312004859612 204.10612806484053 3.1313374925966975
1.2843087611367507 10.518334908159204 143.5491331932723 216.08570534928748 3.2021858118226105
1.2943316357327679 10.429410453196564 128.24683489368863 228.76817008291292 3.2767047879972186
1.3042731229563118 10.342024786604815 114.66364658500744 242.20372169972316 3.3551172693121183
1.3140874176398585 10.256233954258219 102.65843120807322 256.4520919636261 3.4377006176549156
1.3236720970169111 10.171779136248874 92.03770342717281 271.57441318291086 3.5247239574064513
1.3329592502361585 10.088507422566874 82.65816851248717 287.64122689315957 3.616506139656906
1.3418918025591067 10.00648334987379 74.35599711930345 304.7267405777694 3.7133694824748145
1.3504027095633977 9.92535945710994 67.03173114950658 322.9144439920332 3.815679591027542
1.3584272505537889 9.845116735776852 60.53795916029183 342.29525978820567 3.923827662739283
1.3659166022872256 9.765623526549883 54.80679034279541 362.96791734352075 4.0382288199419385
1.3728074371140193 9.686764862405076 49.71495121527174 385.0439056439175 4.159356687413168
1.379066225514402 9.6083487131724 45.21129224448136 408.64359387813954 4.28770673417327
1.3846392786415285 9.530325218513871 41.208262710378605 433.9017160389841 4.423833861675157
1.3894843100345844 9.452668150787561 37.65617004937073 460.9660537268861 4.568333934237033
1.3935770920803965 9.375181070739234 34.49880864795614 490.0013145795112 4.721866918340193
1.396881954675715 9.297855011816724 31.684476900618236 521.1901403032838 4.885154946332053
1.3993584044390437 9.220596250607132 29.17983331441116 554.7333735198015 5.058971078419974
1.4009935040522263 9.143363856920477 26.947438763179626 590.8580790266552 5.244195083170623
1.4017609152309183 9.066046717182427 24.951868031527663 629.8138281952256 5.441762238651973
