M[M_sun], R[km], Lambda[1], P_c[MeV/fm^3], rho_c[fm^-3]
0.24162668629717493 15.618656898711224 2160425.4255784233 3.5677272577965504 0.1711233750220791
0.2536439886987633 15.277277580282854 1723190.0866049337 3.784818722298345 0.17388816203817273
0.26603976605436647 14.981255423349618 1382990.9713946667 4.011399628560633 0.17666663869440033
0.27881450784910966 14.723532261044827 1116395.6118245102 4.247726096275938 0.17945748964909244
0.2919693293463041 14.498412645131676 905876.6642400058 4.494423262470512 0.1822672802833772
0.30550441611422463 14.301245220559075 738705.4754136751 4.751646138607749 0.18509170523844065
0.3194203407449176 14.128155971543226 605108.1334621956 5.020078007110399 0.18793740520223237
0.3337191626477626 13.975961093658151 497690.19848667196 5.2999415194956185 0.19080097574728924
0.3483994364526525 13.842039832174686 411013.43657299166 5.591966941754585 0.1936887469089906
0.3634617035723313 13.723996454071584 340655.19076972146 5.896319474276815 0.19659574328819318
0.37891521413413415 13.62000969655357 283314.9626359229 6.213864059510963 0.19952966375729764
0.3947471593396116 13.528449407536646 236400.49137271175 6.544859265666769 0.20248670718166512
0.4109712950284379 13.447908871097184 197871.28536582683 6.890005203285313 0.2054705461075158
0.42757955975828604 13.377065554163048 166085.6227189682 7.250007985480527 0.20848427276235398
0.44457449380561903 13.31493478149611 139802.20255622955 7.625128318597244 0.2115234615846982
0.4619550128360631 13.260593599513493 117986.38538277865 8.016311741947936 0.21459422101027756
0.4797200480305545 13.213161511958319 99811.95381080013 8.424264833726548 0.2176982240822468
0.4978766862129267 13.171993379160662 84646.93740740871 8.849430905730937 0.22083297419014739
0.5164148326218414 13.136407906787609 71941.20603821386 9.29267836545333 0.22400181013581882
0.5353332045204269 13.105847095241904 61279.9941443681 9.754894293940081 0.22720768471531597
0.5546379749634902 13.079821739346272 52301.89179020358 10.236888235669005 0.23045194879481382
0.5743216003680104 13.057843968639554 44731.235876366096 10.739134553640515 0.23373133987541414
0.5943770273143121 13.039529713535831 38331.042962547246 11.262871566511366 0.23705196614238708
0.6148139306292182 13.02453452461985 32902.74192333538 11.809039849328514 0.24041548159567977
0.6356186351694746 13.012449651594219 28293.839017478567 12.37861835571238 0.2438235190929812
0.6567881838613313 13.003031252064588 24372.17676719263 12.972300588047569 0.2472740802601504
0.6783204613649579 12.995972794835842 21029.346040277156 13.591404328413962 0.2507718501437055
0.7002071280883359 12.991058949316702 18173.294915124523 14.237131478607372 0.25431951458314717
0.722441334212574 12.988004944674495 15730.99875071869 14.910671659066844 0.2579190580702847
0.7450283056057366 12.986640345092534 13635.040856002175 15.61305941309193 0.2615704264740425
0.7679486875709679 12.986744887052238 11837.293627860528 16.3455511494347 0.2652754177664461
0.7911920579775757 12.988139321243677 10289.605198802978 17.109767472643696 0.26903876986285136
0.8147648866627432 12.990674272008565 8956.818388501331 17.9071633390776 0.27286291516570327
0.8386482468661252 12.994130566508398 7807.888816781447 18.739107484170642 0.27674896595117027
0.8628281405728401 12.998397522566904 6814.951201413299 19.606937432162532 0.2806973418017541
0.8873036812231149 13.003342124552036 5955.743032230047 20.51274216331941 0.28471443272402536
0.9120632944693123 13.00884077840255 5211.550037750807 21.458315679035213 0.2888032518147996
0.937083091580698 13.014737813424693 4565.553958139988 22.445146322276962 0.29296375526102175
0.9623609529097781 13.020935394313364 4004.6177875030953 23.475250884982675 0.2971996743362565
0.9878860387465367 13.027329799368625 3516.85118318714 24.551055610602244 0.30151714218739667
1.013627524507833 13.033792559925782 3092.0607691169753 25.674507505245426 0.3059178260566668
1.0395912513614551 13.040240948857814 2721.6535013463235 26.847558135515452 0.31040291506776524
1.0657416088019875 13.046567031381594 2398.531210907045 28.07330863905641 0.31498117834122225
1.092072883126042 13.052694633515713 2115.947261675839 29.35381854198511 0.31965309347825316
1.1185719958760536 13.05853199633597 1868.7807737504065 30.69183408245769 0.32442328148502986
1.1452011069495522 13.06399488755396 1652.2324807572402 32.09076495227884 0.32929986727721866
1.1719635032249838 13.069001579003956 1462.131751069643 33.55253992749408 0.3342804693560351
1.198818480924745 13.0734625322344 1295.5334321421306 35.081706834465564 0.3393786923035669
1.225764864023053 13.077327092195997 1149.1546092276608 36.68029563825818 0.34459133946756987
1.2527598415328465 13.080488632419133 1020.2816620773734 38.35335256603571 0.3499328110085852
1.2798004740474276 13.082932932137352 906.7865031120074 40.10310790215117 0.35539963465560176
1.3068436859358552 13.084517516773806 806.8286605720737 41.93505100185121 0.3610064768153172
1.3338758052000197 13.085244229479423 718.5943350309658 43.85264216157462 0.3667551371039949
1.3608887343668505 13.085033741443409 640.6850181150423 45.86059646868907 0.3726535192029005
1.387819043480842 13.083779663513683 571.8477794076061 47.964233042659146 0.3787115043920961
1.41467598402736 13.081484907008436 510.87462968840964 50.16829072982206 0.3849346557799563
1.4413986198124835 13.078034886506597 456.9190303842949 52.47802183245344 0.391330115759746
1.4679937379452062 13.073438491470549 409.05994205109573 54.89982504366658 0.39790948781610475
1.4944015008981633 13.06757478807125 366.56007355988817 57.4398889550804 0.40468183083191117
1.520613370468559 13.06043225820462 328.8639612036366 60.10484015314767 0.4116569136016619
1.5465964392995772 13.051947044849737 295.318376166388 62.90178264698154 0.41884527328080823
1.5723119706645339 13.042068341647107 265.4939474785722 65.83834107097171 0.42625827860664817
1.5977363863646505 13.03074312279168 238.94227400360674 68.92270804537618 0.4339081984492846
1.6228237934899599 13.017923163457777 215.26196780683884 72.163696125702 0.4418082763195398
1.6475748646481627 13.003588963574455 194.11638303296195 75.5707948257058 0.44997281153650615
1.671924306563014 12.98765470056195 175.24795168460776 79.15395391276157 0.4584160812889189
1.6958617808711736 12.970110030309067 158.37955883076964 82.92333535452323 0.46715123733065456
1.7193419653917679 12.950901712752916 143.2933224158381 86.89168752867963 0.4761998830028716
1.7423279662542552 12.929962363780856 129.78858069229594 91.07060892416186 0.4855764485061497
1.764807729835064 12.907319799619481 117.68903551437087 95.47414062280991 0.4953026676956195
1.7867338802425579 12.88288564704469 106.83666551730684 100.11599656305181 0.5053962498027201
1.8080736295010773 12.856635719807946 97.09054967432995 105.01267510155779 0.5158827965714033
1.8287847120681882 12.828504085989344 88.33871597483648 110.18071378946391 0.5267848402874894
1.8488651455906733 12.798541982555031 80.47387045244714 115.63771738562448 0.5381256669069648
1.868251917726677 12.766638300536707 73.38766569608453 121.40393626006122 0.5499347717803494
1.8869221494309363 12.732792210041033 67.01513169318642 127.50076592845909 0.5622418627045128
1.9048459034051974 12.696981711760198 61.26378715457376 133.95066505987714 0.5750763116122909
1.921989194215922 12.659169583008254 56.080578993081126 140.77925684096587 0.5884742149744704
1.9383044796727578 12.619297881843554 51.39819943805726 148.0142451282599 0.6024739464311787
1.953801559865541 12.577448125570442 47.165396060906886 155.68416514673564 0.617111408666824
1.9684197214201251 12.533525552438704 43.34257847423272 163.8226138365681 0.6324340442804613
1.9821366201149315 12.48753066184439 39.883049065187045 172.46331943759287 0.6484832804899078
1.9949257783158476 12.439461410204022 36.74773104985451 181.64563767826334 0.6653125266570603
2.0067653596827792 12.38930566072958 33.90494563857749 191.41152432254643 0.6829760629222343
2.017615016172275 12.337038456780862 31.330574705616083 201.80700166319662 0.7015331072108263
2.0274531209924422 12.282659117250768 28.994642418907116 212.8820450672515 0.7210464460372107
2.0362658281407966 12.226200578395385 26.872990469747077 224.69204770017828 0.7415861320330734
2.044013850408037 12.167612292246892 24.94543125775607 237.29823676733528 0.7632295387297132
2.0506749296345577 12.106914028251762 23.189887476125616 250.7674205400276 0.7860591089314264
2.0562507527544414 12.044174122844675 21.595577126804432 265.1726585770374 0.8101629112500887
2.060699529098333 11.979335004499202 20.143870194523696 280.5957489689715 0.835640870762892
2.0640075460372582 11.912440594855907 18.823082259855592 297.1263086036982 0.8625996383208796
2.066171741774367 11.843549817510752 17.620240452652 314.8647329916858 0.8911598151701534
2.0671685083901257 11.772666434604275 16.5250397393911 333.92042792590524 0.9214473256716206
