M[M_sun], R[km], Lambda[1], P_c[MeV/fm^3], rho_c[fm^-3]
0.24162668629717493 15.618656898711224 2160425.4255784233 3.5677272577965504 0.1711233750220791
0.25364604095247384 15.277221089873956 1723164.5866450793 3.784855555503428 0.17388862114630516
0.2660434243908665 14.981186645448586 1382863.7867842019 4.011477059903583 0.17666757440648304
0.2788215818159685 14.723391617644442 1093934.2471753478 4.247846745991751 0.17945888900398063
0.29197813947955825 14.49827736318573 905755.8090417677 4.494590297132487 0.182269140253105
0.3055155236135966 14.301099690612162 738541.4867366663 4.751865230546885 0.1850940718495266
0.3194349014689844 14.127981803909739 604976.2652803505 5.0203507708741535 0.18794023523155845
0.3337357650097115 13.975832413426819 497591.82414856943 5.3002751370576275 0.19080433472256703
0.3484192492532011 13.841873599311539 410911.2420827472 5.592362246753461 0.19369257159359937
0.36348543084347157 13.723824443658598 340548.1199057481 5.896785348790512 0.1966001188802154
0.3789407173910821 13.619859849258383 283224.83285179007 6.214406142244782 0.19953460689911998
0.3947766328262353 13.528308051496932 236331.9536543504 6.545476994474924 0.20249212382880188
0.41100474251588964 13.447751983235312 197805.43340335018 6.89071050468654 0.2054765527502169
0.42761595712459827 13.376927525023225 166026.07083412414 7.25080747908095 0.20849088676801764
0.44461533743426684 13.314797051271096 139745.81501680106 7.626019795301607 0.21153055831248258
0.4619969118375306 13.26045136316583 117930.87673215716 8.017310752943077 0.21460194916799066
0.4797683821305145 13.213040988650702 99767.22448912899 8.425379170514125 0.21770660233707512
0.49792824804316793 13.171891207540412 84603.16656962915 8.85065646009036 0.2208418477273487
0.5164713829232288 13.136313222257296 71909.86971055613 9.294034972907818 0.22401136073687303
0.5353926627616064 13.10577586442841 61248.597942802146 9.756391154274533 0.22721793301349996
0.5547047564628987 13.079746576297866 52280.132036508105 10.238526964967072 0.23046281162155877
0.5743907060443855 13.057777207290608 44709.09777999255 10.740924282086068 0.23374283048642308
0.5944512259085014 13.039470126903426 37973.794864787684 11.264831069441014 0.23706420915215126
0.6148928220140195 13.024490481767032 32884.79534592888 11.811180704646361 0.2404285015679505
0.6357018082937489 13.012395971258645 28276.3150087625 12.38095286372788 0.24383734188816839
0.6568765919412295 13.002985734051762 24356.3452735201 12.974818028192397 0.24728846891569334
0.6784132884071934 12.995959748184138 21015.65692926066 13.594140453435783 0.25078708415477524
0.700306716334541 12.991046976838593 18161.541753796013 14.240100961877973 0.2543356241748158
0.7225449779936183 12.987991422047433 15719.360791682753 14.913890116863236 0.25793607526986106
0.7451379354123392 12.986651236637957 13625.507664225222 15.616512059036166 0.2615880741098789
0.7680626598070539 12.986756811963048 11828.091562281452 16.34928474589581 0.26529402880838643
0.791312925095842 12.988150765612634 10283.076785902713 17.113800761318398 0.2690583823798903
0.8148915378698671 12.990688467197154 8950.114560564014 17.911516304361765 0.2728835696747247
0.8387790372991384 12.994147173849731 7802.054190290338 18.743760817578757 0.2767703456104812
0.8629658852875726 12.998427641018191 6809.313287947983 19.6119516470625 0.28071983742171036
0.8874522894021035 13.003381284647705 5951.340750744495 20.518141397671396 0.28473809300612024
0.9122130300736442 13.008873325435909 5207.531252091246 21.46412572390621 0.2888281287444238
0.9372375831468542 13.014771803750472 4562.28406711467 22.451342972934075 0.29298949262001356
0.962526005992171 13.020986869492534 4001.5062216971514 23.481911916914125 0.2972267267661155
0.9880524191437605 13.027365412014621 3514.0380902516745 24.55821238284042 0.3015455726460196
1.0138006780879056 13.033829031252436 3089.842108199079 25.6821323119673 0.30594725165426134
1.0397674375392743 13.040293494996293 2719.2645720335054 26.855744206501186 0.31043384056988726
1.0659244954873535 13.046620133073137 2396.4400521793823 28.08209430067059 0.31501368032383154
1.0922621625614717 13.052736582668862 2114.139878324919 29.363172652591565 0.3196867625329832
1.118765448710887 13.058574130908248 1866.8840341801624 30.701868339383115 0.32445867797653793
1.145401844997194 13.064032628096873 1650.6322127888513 32.10144660163109 0.32933656837229286
1.1721690281631123 13.069033543664313 1460.9154828212 33.563994285358106 0.33431907172303055
1.1990298028353785 13.073488072465684 1294.4053224868544 35.0939879739171 0.3394193027023087
1.225979386645175 13.077359103256057 1148.0439521526187 36.69336791543023 0.3446335086101819
1.2529801993929632 13.080516014593 1019.3584509034034 38.36726904092744 0.34997663265389484
1.2800266782517726 13.08295207286317 905.914933409506 40.11802677909172 0.355445788676781
1.3070805029744812 13.084550563570266 806.0677590617017 41.95093659000993 0.3610545013549771
1.334115129090767 13.085238980288311 717.9123674450401 43.869672598349595 0.3668057603695834
1.3611264339843911 13.085030909578695 640.0244515123306 45.87873606397443 0.3727062666819126
1.3880672958741254 13.08377770672708 571.2494971015806 47.98355929048446 0.37876651313205545
1.4149141781445917 13.08144671015055 510.35053264448266 50.18901559063476 0.38499272912388033
1.4416470431602595 13.077998973057076 456.4446152456192 52.50011240048393 0.39139076818293717
1.4682440783254833 13.073389029072699 408.62366327594776 54.923379152584 0.3979728912411963
1.4946559499919287 13.06751175268262 366.1788560032161 57.465012364148826 0.40474817047363315
1.5208690395580695 13.06035401107137 328.52663867373457 60.131647256920694 0.41172638905857856
1.5468536605589065 13.051855968213975 295.0131071035129 62.93039725582058 0.41891809973526584
1.5725724434224262 13.041959622303272 265.201176361183 65.86889727027629 0.42633468814454456
1.5979865587794808 13.030611254193126 238.66602620804838 68.9553511423736 0.4339884415126361
1.6230952933270828 13.01779130525627 215.0128417980803 72.19858369373272 0.4418926233063728
1.6478375838100416 13.003423900566123 193.89499664292975 75.60809785717194 0.4500615545643451
1.6721861014588275 12.98747648921437 175.06207894932837 79.1936632628874 0.458508722748458
1.6961223336086528 12.96990832851059 158.20127703840828 82.96583853659848 0.4672489095192741
1.7196019428177918 12.950675972430831 143.132169916695 86.93720338673096 0.47630295402712963
1.7425864648260478 12.9297277492999 129.6449932676879 91.11915640199231 0.48568444877463823
1.7650624081481343 12.907049933686814 117.55295173752499 95.52618750517074 0.49541687017702324
1.786972325428597 12.882557349289186 106.71373651821274 100.17158817203592 0.5055162140831342
1.80832234869701 12.856314179754792 96.98499231920157 105.07209977037911 0.5160089849802044
1.8290345876540566 12.828166063442653 88.24082410648435 110.2442860235185 0.5269177529181899
1.849104651747808 12.798165200612113 80.38587702318638 115.70604032547766 0.5382667985242675
1.8523398906585347 12.773130378251174 77.9563470588222 124.19454122763374 2.5544356468707456
