M[M_sun], R[km], Lambda[1], P_c[MeV/fm^3], rho_c[fm^-3]
0.24162668629717493 15.618656898711224 2160425.4255784233 3.5677272577965504 0.1711233750220791
0.25364446382606115 15.277265555179811 1723246.5022046422 3.7848275189529605 0.17388827168422885
0.26604087932696696 14.98123047617827 1382945.450626924 4.0114181209291315 0.17666686216376018
0.2788166984879517 14.723479868368118 1116433.3818245453 4.247754910030072 0.17945782384521902
0.29197098738962374 14.498378743372678 905879.6339098596 4.49446315375281 0.18226772448206385
0.3055068519125831 14.30121983608106 738663.3471446027 4.751698461966559 0.18509227043057644
0.319423638054061 14.12812026540835 605078.3114748258 5.020143148021757 0.18793808106432977
0.33372288958860863 13.97589686253407 497654.8592452909 5.300021193003044 0.19080177792730676
0.3484041699634317 13.842000909327089 410990.27772312716 5.592061346833146 0.19368966030409562
0.3634671891938256 13.723964745440945 340654.21208370384 5.896430731938661 0.19659678824369786
0.3789214890352481 13.619974875241693 283286.92165941256 6.213993516198648 0.19953084424641332
0.3947540836161445 13.528421643264357 236395.3031369881 6.5450067870209185 0.20248800074464943
0.41097969367260245 13.44786861659359 197857.42391101675 6.890173637285087 0.20547198056213845
0.4275876096082564 13.377044920227089 166059.94667585636 7.250198912766666 0.20848585225486174
0.44458410597362386 13.314909373209717 139788.61356517478 7.625341211512556 0.2115251563491938
0.4619661232245224 13.260551978192472 117976.68031842042 8.016550313965793 0.21459606655771288
0.47973143300702437 13.213133438170614 99801.87978200267 8.424530945285017 0.21770022486914933
0.4978884618814746 13.171971551746052 84638.95174750593 8.849723575673465 0.2208350932455795
0.5164282048779401 13.136387850197606 71935.34730126186 9.29300233023682 0.22400409086809145
0.5353475237511763 13.105828537968163 61270.84688592656 9.755251750235816 0.2272101320503292
0.554654881101864 13.079790693229176 52300.70616215549 10.237281513631883 0.23045456787262836
0.5743378170722855 13.057829180820276 44725.722967168476 10.739561944497908 0.2337340838571077
0.5943963708752704 13.039504696563597 38322.23035194577 11.263339497808147 0.2370548897855972
0.6148334992156267 13.02449201145186 32899.329688010206 11.809551085513748 0.24041859076466474
0.6356385214603425 13.012423325756712 28289.41587902736 12.379175833707794 0.24382681996155856
0.6568094720659713 13.003021306732771 24368.902858949335 12.972901747817144 0.24727751624287614
0.6783419908625808 12.995979748926494 21026.122053694788 13.592057706846967 0.25077548797976995
0.7002298687925218 12.99105377098691 18170.934281178976 14.237840579186322 0.2543233614883956
0.7224654140290367 12.987996631819104 15727.875729599878 14.911440210386836 0.2579231216908211
0.7450542710210032 12.986641258978686 13632.366387460173 15.613883884359192 0.26157464062426733
0.7679764697415201 12.98674608533783 11834.88536464621 16.346442706103375 0.2652798619528293
0.7912214106933667 12.988144713288849 10287.589065592276 17.11073058947913 0.26904345317388334
0.8147962859882842 12.990671382755822 8955.239181602665 17.908202787525966 0.27286784727426666
0.8386810630161605 12.994131209920033 7806.668425624617 18.740218653783973 0.2767540712006089
0.8628612210436489 12.998408885840547 6813.381114062559 19.60813477136814 0.2807027135076473
0.8873432678559502 13.003366486043985 5954.777843036505 20.514031435175664 0.2847200825132042
0.9120990460723335 13.00885597017878 5210.536128311243 21.45970304125342 0.2888091920980559
0.9371200286718818 13.014739073394669 4564.637895802515 22.44662599548499 0.29296990098112974
0.9624046256616025 13.020955331950415 4004.073184792857 23.476841438716043 0.29720613404756724
0.9879262686073391 13.027349615360635 3516.0813185048514 24.55276453182588 0.30152393092015517
1.0136687056133034 13.033794727962517 3091.6892605371904 25.67632817879002 0.3059248523865173
1.0396340874267722 13.04025196835726 2721.0970695831816 26.849512820324605 0.31041029951499505
1.0657853092022287 13.046583623672197 2397.855310730412 28.075406485393284 0.3149889391870358
1.092117210255876 13.05270641016278 2115.476177752422 29.3560521145065 0.31966113296790966
1.1186165818540756 13.05854143539822 1868.3423927126655 30.694230048769263 0.32443173341144865
1.1452483655512609 13.06400200781664 1651.8786317518823 32.09331549221923 0.3293086306812358
1.172012066106816 13.069014968290388 1461.804159888313 33.555274959729644 0.33428968669666254
1.1988695326258652 13.073472643202082 1295.2510981129465 35.08463926834776 0.3393883890674307
1.2258153791361281 13.077333315926154 1148.8905309222996 36.6834169638295 0.3446014083806921
1.25281216582091 13.080499846758089 1020.0210330774021 38.35667545090649 0.3499432744544898
1.2798562460648757 13.082933395341023 906.6005506099884 40.106670115862634 0.35541065495476626
1.3068988773741186 13.08452348410853 806.6382904688364 41.93884402343614 0.3610179436942087
1.3339385086503432 13.085236656072947 718.4727605219279 43.85670851876249 0.3667672244205223
1.360945932393294 13.085030904915333 640.52588600777 45.864927640821286 0.37266611366311575
1.3878772109835578 13.08377169171005 571.7235943093544 47.96884753015174 0.378724638713089
1.4147343736683982 13.08147935043235 510.7383584811706 50.17323913405218 0.3849485217539345
1.441458114292047 13.07802679381948 456.8128527721346 52.48329629768725 0.39134459746510675
1.4680523396579768 13.073427737532125 408.9477453445904 54.905448925574795 0.39792462629476855
1.494462084963589 13.06756070422686 366.4710054860141 57.44588750121896 0.4046976702986253
1.5206746148754273 13.060414534322062 328.7841705926456 60.11124067234876 0.4116735017045679
1.5466581653269984 13.051924713403023 295.24009478154045 62.908614695645554 0.41886266138783007
1.572374113998707 13.042042672425493 265.4208513790339 65.84563665814561 0.42627652212047934
1.5977994621201594 13.030712479098598 238.88736694865122 68.93050185872653 0.43392735715406283
1.622885359092711 13.0178882514312 215.19830352375638 72.17202578075683 0.44182841476268414
1.6476374147075932 13.003547822269514 194.06375189379736 75.5797011410262 0.44999399944958873
1.6719863806705832 12.987616740680215 175.1941946908513 79.16343470628564 0.4584381998717433
1.6959238732404833 12.97006140162869 158.33975390983142 82.93348313012437 0.4671745568894308
1.7194039863486466 12.95084748711147 143.25565451935913 86.90255452656541 0.4762244914064182
1.742386134539832 12.929909436853013 129.76213459354557 91.08219966755772 0.4856022336438062
1.7648683961246858 12.907257066411313 117.65657696600412 95.48656677433878 0.4953299334466986
1.7867959342345603 12.882817345527641 106.80931342413162 100.12926894266711 0.5054248910221241
1.8081335263370424 12.856558009575021 97.07047804973955 105.02686253599808 0.5159129236181753
1.8288428115313093 12.82842053154488 88.31536174547948 110.19589135220569 0.526816572533833
1.8489218017644373 12.798451381703277 80.45011115194418 115.65402904406788 0.5381593611645883
1.8682985613935463 12.76651046645644 73.37579952203814 121.42141169311718 0.5499703453580196
1.886976662114035 12.732687767452289 66.99663206920887 127.51947783195327 0.5622793775471687
1.9048996409251342 12.696869504941347 61.24598475215624 133.9707027630552 0.575115872260016
1.9220398577472917 12.6590513366775 56.06547250693238 140.8007788657884 0.588516148063237
1.9383542761151549 12.61916001330975 51.383030744394766 148.03738036441814 0.6025184482089788
1.95384970101192 12.577314007222661 47.15709980885073 155.70897895326135 0.6171584333140874
1.9684669071576355 12.533381203204215 43.33178251845506 163.84925659038043 0.6324838131659994
1.9821788511556133 12.487378354118619 39.87369488345492 172.49203646400562 0.6485363033393242
1.9949693667131252 12.439299595812868 36.73915088311455 181.6765330825882 0.665368803064427
2.0068033486522006 12.389137090482196 33.896078409967046 191.44479874387346 0.6830358807485206
2.017649219587392 12.33685998990836 31.32257095709699 201.8428764303821 0.7015967813838265
2.027484775789108 12.282473448692112 28.986303964038004 212.92067412524898 0.7211140252630741
2.036293945764599 12.226004363096024 26.865335316663373 224.73378861203443 0.741658282192927
2.044037332753944 12.167406718485042 24.938212940415685 237.34329289237326 0.7633063635618291
2.0506971289382396 12.106697173912275 23.18437064235197 250.8161174116884 0.7861410472182563
2.0562681752937775 12.043948354604446 21.59056051586844 265.22545760158914 0.8102507718945015
2.060713341261323 11.979096721406616 20.13865157231593 280.65285084259256 0.8357345311259751
2.064018420576166 11.912198761171505 18.818660159048438 297.1882600360382 0.8627000107417971
2.066175996256609 11.843295068473648 17.615026649021257 314.93203147836897 0.8912675468107396
2.0671684509087536 11.772402333332453 16.521034844387856 333.9935173545613 0.9215627645858404
