M[M_sun], R[km], Lambda[1], P_c[MeV/fm^3], rho_c[fm^-3]
0.24162668629717493 15.618656898711224 2160425.4255784233 3.5677272577965504 0.1711233750220791
0.25364498734906765 15.277272422531626 1723121.8690490054 3.7848474913755266 0.17388852063084112
0.2660426772189899 14.981211493945535 1382933.396403308 4.011460107275693 0.17666736954397974
0.27881922789632024 14.723439001632967 1116314.623947043 4.247820331101958 0.17945858263106543
0.2919763719943291 14.498302229231092 905767.6052883746 4.494553726598063 0.18226873303171662
0.30551313994961854 14.30111483528204 738559.7436562411 4.751817262356029 0.18509355370151667
0.3194306900405909 14.128049942934458 604992.2638921894 5.020291051433948 0.18793961561931674
0.3337313211494688 13.975839867362781 497584.8200398807 5.300202093799442 0.19080359929815777
0.3484147841426634 13.841861348223473 410925.58726048423 5.592275697052588 0.19369173420143443
0.36348055132368745 13.72384748673098 340606.86335971474 5.896683347809932 0.19659916086542006
0.3789345126438192 13.61990720404163 283247.0430026244 6.214287455263848 0.19953352461676227
0.3947695001627517 13.528357820609292 236353.8359333323 6.545341744468589 0.20249093786896014
0.4109975159102257 13.44776280128876 197812.5570179426 6.890556080167395 0.20547523760621011
0.427608990556047 13.376941264584723 166037.49925235592 7.250632430512824 0.20848943863607464
0.44460604059923364 13.314846095730845 139769.38582072995 7.625824606267888 0.21152900448226805
0.4619878207396396 13.260480762520721 117942.33715040893 8.017092018230766 0.21460025707815153
0.47975748398528995 13.213070763659225 99780.13503676679 8.425135183941718 0.2177047678991376
0.4979176399164003 13.171906246179109 84617.73052306342 8.85038812108285 0.22083990483828186
0.5164593390441687 13.136323883882543 71916.90255057953 9.293737938049178 0.22400926959295026
0.5353801323672186 13.10577782351329 61253.87360204587 9.756063408966003 0.22721568909563206
0.5546908615644925 13.079758771527649 52286.247309890314 10.238169879202182 0.23046045530666434
0.5743761271572047 13.057794835113311 44713.467045874364 10.740532408472856 0.23374031453643898
0.5944358104696907 13.03948034103843 38314.196805722444 11.264402020575185 0.23706152844707337
0.6148762922158729 13.024465487368495 32888.35085108968 11.810711945108515 0.2404256507278524
0.6356835202912806 13.012418976305156 28280.761427810612 12.38044169988596 0.24383431524913052
0.6568574821751101 13.00300053410385 24359.957691393887 12.974266807444545 0.24728531836393733
0.678392259381359 12.995976752642974 21018.776453634404 13.593541346581626 0.25078374848832163
0.7002846890998256 12.991054675352895 18164.516834436112 14.2394507555632 0.25433209677382485
0.7225230340521678 12.987999457773991 15721.628004067381 14.913185391225827 0.25793234911976776
0.7451138500563306 12.986638751524888 13627.501043663804 15.615756051868095 0.2615842099027151
0.7680377222000662 12.986765826913292 11830.592442893945 16.348467216840053 0.2652899536310868
0.7912857386280238 12.988147826333643 10284.940693579816 17.112917606004952 0.2690540878946625
0.8148655586301231 12.990677050739574 8951.91288298672 17.91056314624937 0.2728790470076355
0.8387531280655972 12.994132699867603 7803.621590291166 18.742741884827115 0.27676566414169734
0.8629357161376826 12.998418129718276 6810.355746918614 19.610853687689918 0.28071491157045236
0.8874205779280142 13.003371845999666 5952.064215937011 20.51695912543279 0.2847329121058565
0.9121799759939443 13.008866146267348 5208.375263476174 21.46285349049127 0.2888226814093633
0.9372046059168186 13.014762150196226 4563.0981666228645 22.44998607886176 0.2929838568545355
0.9624910571760272 13.02097890029972 4002.183982838324 23.480453329484803 0.29722080300917647
0.9880160566248948 13.027360755604487 3514.8729938779707 24.556645234233567 0.30153934710856495
1.0137618707669742 13.03381624601372 3090.3761846651287 25.680462669544642 0.30594080818259733
1.0397295931898447 13.040283483382213 2719.7804290232307 26.853951652694022 0.3104270686243882
1.0658851016465338 13.0466034197895 2396.7549065636795 28.08017044162743 0.3150065631326729
1.0922196288239696 13.052735381791683 2114.3937859925863 29.36112430825679 0.3196793897510679
1.1187226347997452 13.058569294784283 1867.2637105793392 30.699671047247087 0.3244509268861471
1.1453572850882159 13.064019800953403 1650.878752182002 32.09910753483346 0.32932853156916503
1.1721238644304552 13.069027228297418 1461.1477137791508 33.56148599840614 0.33431061853738725
1.1989834486856397 13.073484407927372 1294.5587399297624 35.09129862392168 0.33941040975095826
1.2259329857279502 13.077347479445981 1148.3001792605999 36.69050530862738 0.34462427428375786
1.2529320986777883 13.080515492490592 1019.5024473125204 38.36422155642115 0.34996703641733634
1.2799768048732618 13.082950831296628 906.0828212961633 40.11475976754279 0.3554356816344867
1.3070308715399177 13.08454839421278 806.2352757093482 41.94745786813072 0.36104398465171217
1.3340617310673406 13.085242893716892 718.0520762967067 43.86594315055597 0.3667946745220124
1.361073101555295 13.085029855901148 640.1705085250226 45.87476370694766 0.3726947156072827
1.3880157173290997 13.083779251183287 571.3758066952261 47.9793270513578 0.3787544668133045
1.4148602582473446 13.081453008265502 510.46382260667195 50.1844770448624 0.38498001161846807
1.4415933494941604 13.07800701811743 456.5457296522583 52.49527475511538 0.39137748582126425
1.4681887842739467 13.073400528987596 408.71444849448255 54.9182209794642 0.397959006366835
1.494600454968879 13.067528429862323 366.27170991903427 57.45951049904026 0.40473364251848537
1.520813112484698 13.060370367542967 328.6099906550415 60.12577664402939 0.4117111743036965
1.5467981487773312 13.05187461107581 295.07030686931745 62.9241307768053 0.4189021510479648
1.572515399234011 13.04198462262443 265.26291765015424 65.86220555601237 0.42631795468926287
1.5979300780799874 13.030638517504437 238.73908117271245 68.94820236553194 0.4339708684326971
1.6230380912763838 13.017824241635768 215.05970611734136 72.19094333999747 0.4418741513734671
1.6477787503213264 13.003461376454238 193.93199040247234 75.59992847265053 0.4500421197921693
1.6721282741325136 12.987513295849162 175.10232983163615 79.18496685151962 0.4584884341202304
1.69606463561509 12.969952146894036 158.2429644647338 82.95653021659838 0.4672275190270241
1.71954395076564 12.950725654555104 143.16965298659107 86.92723522165558 0.47628038103766446
1.742527192168914 12.92977207079209 129.6816074707801 91.10852424340347 0.48566079613533497
1.7650065757787756 12.90710938315441 117.58379983565675 95.5147888856455 0.4953918590605968
1.786918195355763 12.882626334535178 106.740262959809 100.15941316510722 0.5054899409463798
1.8082681722216996 12.856383848897643 97.00934440820393 105.05908521727784 0.5159813485494142
1.8289721460557964 12.828228651925143 88.27032594515077 110.2303630318494 0.5268886436462336
1.8490522240114926 12.798246978711088 80.40552505253677 115.69107677332939 0.5382358889890541
1.8684242189866456 12.766291152382317 73.32644384828136 121.46110288956392 0.5500511420887844
1.887100511598548 12.732452317981211 66.95588236394433 127.5618844472426 0.5623642510301796
1.9050186907593365 12.696618137800094 61.20711074392364 134.0162141037669 0.5752057257777269
1.9221557695337264 12.658781738312344 56.0294990382982 140.8496618681244 0.5886113907410538
1.9384658433746995 12.618873205637794 51.352293977589845 148.08992783708095 0.6026195258870456
1.95395591388418 12.57700853660736 47.12755110115674 155.76533936986243 0.6172652419453036
1.9685652342658504 12.53305447819593 43.30608900855293 163.90977157660356 0.6325968556631789
1.9822757610941952 12.487036517262373 39.847792588505854 172.55726336845316 0.6486567376866244
1.9950582231933751 12.438932920213395 36.717955190711656 181.74670840900248 0.6654966283945266
2.006889494509054 12.388751256139289 33.87836317449485 191.52037832003913 0.6831717510590344
2.0177272382841784 12.336456137062857 31.302715481198636 201.9243630950675 0.7017414121756465
2.0275577139767416 12.282051792096455 28.969548679494203 213.008417615868 0.7212675272503859
2.0363584508102255 12.225558039162202 26.849982053223762 224.82860130957707 0.7418221681977996
2.0440941561681574 12.166940343688676 24.924467640963414 237.4456368108118 0.7634808693442393
2.05074489115019 12.10620731323674 23.172429051021407 250.92673216410495 0.7863271697144665
2.0563084635465096 12.043434631307093 21.578072163719835 265.34525084178887 0.8104498905247595
2.0604925748574763 11.980249279363383 20.17352410572807 281.0599140880642 1.4538931760852856
