M[M_sun], R[km], Lambda[1], P_c[MeV/fm^3], rho_c[fm^-3]
0.24162668629717493 15.618656898711224 2160425.4255784233 3.5677272577965504 0.1711233750220791
0.25364128241516726 15.27738719466675 1723184.413517322 3.7847874210848453 0.17388777188364665
0.2660363228442314 14.981343823665945 1383118.3682597592 4.01133382749772 0.17666584352738815
0.27880843191521104 14.723670905399864 1116567.276404181 4.247623569556057 0.1794563004936463
0.29196330893360334 14.498454905496324 905996.318519362 4.494281320071396 0.1822656997218199
0.3054944435769304 14.301355443925589 738763.2680447291 4.751459961343773 0.18508969416866508
0.31940881094825946 14.128285060124421 605219.9415562177 5.019846223932517 0.18793500036230174
0.3337043141953441 13.976084568018038 497775.4481560068 5.299658028687769 0.1907981214652505
0.34838303070292587 13.842172685196005 411099.57621262776 5.591631035901738 0.1936854969274598
0.3634430458404269 13.724123883327405 340733.6022095084 5.895923607391743 0.19659202522263422
0.37889388313223954 13.620127719618548 283378.59444885165 6.213403441633432 0.19952546347687458
0.39472187893282057 13.528630761788504 236471.64454384515 6.544334375425382 0.20248210460334015
0.4109440172026232 13.44803181430604 197932.65934827022 6.88940590852305 0.20546544226183608
0.4275488446112877 13.377186440016304 166141.27855856728 7.249328663215892 0.20847865290335404
0.4445413398721454 13.315058397693397 139856.10346688866 7.624370846764451 0.2115174316218564
0.4619183052948634 13.260683069428714 118025.41800074962 8.01546290952702 0.21458765460525023
0.4796820963513038 13.213238349458662 99853.81969990939 8.423318022535012 0.21769110538570421
0.4978322663260982 13.172114410437132 84680.00756193025 8.848389607101408 0.2208254347431569
0.5163666993053292 13.13650820468893 71968.06686009836 9.291525729388738 0.22399369550606563
0.5352808982122231 13.105933321467207 61305.52862684823 9.753622506338328 0.22719897738419795
0.5545835607313969 13.07990655523234 52324.18545379421 10.235489007657922 0.23044263048210065
0.5742614695801517 13.057923801774225 44752.80829974169 10.73761396500813 0.23372157722537482
0.594315938774631 13.039603538227574 38348.379218876995 11.26120675192387 0.23704156435071744
0.6147472809486091 13.024547644448596 32641.185373301203 11.807220975241375 0.24040441980650556
0.6355441726176068 13.012478887824885 28309.977231925277 12.376634975150235 0.2438117753495
0.6567115174775863 13.003054021416515 24384.26399545959 12.970161808916458 0.24726185587568464
0.6782392793955331 12.996005834396264 21040.393461648804 13.589079782607003 0.25075890769543546
0.7001227039790786 12.991080607506333 18183.355403613357 14.234608704084614 0.2543058284082371
0.722351424838172 12.988006952298985 15738.78851516346 14.907937393153592 0.257904600975712
0.7449348632738634 12.986643043699573 13642.484707721465 15.610126216651075 0.2615554339195029
0.767850195610957 12.986756639738703 11843.282004513521 16.342379305170372 0.26525960691831446
0.7910894864556439 12.988122650316182 10295.782523307926 17.10634106407457 0.269022108398259
0.8146590982581087 12.990655213442393 8962.523947383375 17.903465394577086 0.27284536868346404
0.8385365988841619 12.994113421063036 7812.641895659112 18.735154404646813 0.27673080359613655
0.8627105265310112 12.998388394056695 6819.446749866762 19.60267782406111 0.2806782316265973
0.8871819842776311 13.003319555335805 5959.938455884934 20.50815552837652 0.2846943333785366
0.9119369559099967 13.008809443591861 5214.9707692838265 21.453380115446254 0.28878211916078667
0.9369511143623909 13.014703459140025 4568.640712183277 22.439882388219758 0.2929418918757777
0.9622254314171164 13.020901451173037 4007.4084042928075 23.46959253036178 0.2971766940768801
0.9877442906222996 13.027297877755712 3519.331183905936 24.544976206314104 0.3014929916001886
1.0134808312593446 13.033757427479147 3094.417415253121 25.668030581725116 0.30589283036141685
1.0394396673615804 13.040209418131193 2723.6770954378535 26.84060452197978 0.3103766455679615
1.0655886907247165 13.046539319959496 2400.1204577161016 28.065845791270476 0.3149535700221671
1.0919112136888998 13.05266953067848 2117.4345871288233 29.345872906879816 0.31962449407051896
1.118405450665973 13.058501793735983 1870.1768568795828 30.68331081118557 0.32439321509332325
1.145031380352859 13.063959226892115 1653.38634651469 32.08169185991584 0.3292686930255231
1.1717888031454042 13.068976377925209 1463.4235386912537 33.54281060416702 0.3342476805332877
1.1986389985975894 13.07343700325172 1296.571215828502 35.07127536810446 0.3393441982722876
1.2255817108186347 13.07730620503477 1150.0431082978687 36.669192296415126 0.34455552180554455
1.2525718353781972 13.080469760442982 1021.0685778185774 38.341450843709005 0.34989511226372444
1.279610175632002 13.082917204724342 907.5425003867458 40.09043637623011 0.3553604331876853
1.3066487176562824 13.084516850713001 807.5141849995052 41.92155852593989 0.36096568701653614
1.3336816954307393 13.085234025081956 719.2262119724267 43.83817748904778 0.36671214061666735
1.360686051051587 13.085037643172726 641.247202340939 45.84518990343657 0.37260871900396997
1.3876129349100634 13.0837885614135 572.3362614289005 47.94781879019407 0.3786647841309445
1.4144657737852617 13.081510997042354 511.31516553737293 50.150688835882214 0.384885333333368
1.4411944004614523 13.078085509662586 457.3158369906994 52.45926023513328 0.3912786034428679
1.4677784733333352 13.073481829670063 409.4157359418011 54.87982068388207 0.3978556396772705
1.4941850157881231 13.067625575410256 366.884555825666 57.418552046599665 0.4046254896379191
1.5203952725970402 13.060495579884426 329.16899252639405 60.08207358036524 0.4115979099114506
1.5463773435895374 13.05202442387785 295.5844347319563 62.87748130260857 0.41878342442733646
1.5720913651433324 13.042160531367356 265.7303344045906 65.81239112695424 0.42619338757713743
1.5975143464839239 13.030849092672632 239.16127145872247 68.8949861495338 0.43384005265280945
1.6226012670195948 13.018050059012173 215.45539238876285 72.13406851566329 0.441736646229657
1.647353101625114 13.003725541792916 194.2961910564 75.53911635066865 0.44989744919511926
1.671701520216987 12.987812920468409 175.41491206216148 79.1202323273551 0.4583374092159656
1.6956402690700412 12.970285767217216 158.52702727004035 82.88724172317762 0.46706829427094404
1.7191066518707683 12.951058277060307 143.43331191920814 86.85303609175338 0.4761123565151024
1.7421094333782785 12.93017910465103 129.91822615415862 91.02938359175134 0.4854847373160357
1.764594977342921 12.907558804132977 117.79770111907585 95.42994434762342 0.4952056911993116
1.7865209184162996 12.883140038443754 106.93553037685277 100.06879086495111 0.5052943819541801
1.8078618991473918 12.856907063874878 97.18498342313855 104.96221524745388 0.5157756449654457
1.8285866148048002 12.828824136891996 88.42327901800829 110.12659941473369 0.5266714838726693
1.848660816959741 12.798861756741585 80.54842498972671 115.57970344776935 0.538005830130427
1.8680522306008718 12.76698279676029 73.4605779735703 121.34178380104565 0.549808252150129
1.8867282404099153 12.733164317015058 67.07843348431527 127.43412608145688 0.562108117063308
1.9046570881204992 12.697376146568953 61.32258072060469 133.8794009739243 0.5749356141793177
1.9218059160333216 12.659594331072649 56.13325301754094 140.70271451530445 0.5883250814165065
1.938134862530607 12.619764864801388 51.44587482961827 147.93196630512654 0.6023156790212549
1.9536297613771008 12.577922726983692 47.21592857085918 155.59591743040667 0.6169441704106597
1.968259438422684 12.534034397516079 43.384860779446505 163.72771584606934 0.6322565514714628
1.9819878171115364 12.488070983097778 39.92141244720691 172.36119245546803 0.6482947141837475
1.9947861003326601 12.440029944958374 36.78278206507482 181.5357648319369 0.6651123917440034
2.0066269199879443 12.389893698960616 33.942208653503535 191.29319229908063 0.6827633360244707
2.0174915264984885 12.337673113897008 31.359159555690738 201.679423607108 0.7013066687458065
2.027341263344792 12.283328929590208 29.020900197218236 212.7446736576502 0.7208061229747835
2.0361651961708143 12.226899372944798 26.897764652486323 224.5436118166692 0.7413295570746707
2.043923490635202 12.168349334237817 24.966921122726166 237.13801343935285 0.7629563432371376
2.050597901054815 12.107682795729517 23.21026485779483 250.5939510968755 0.7857667514209529
2.0561807996893156 12.044955580713268 21.61460694802664 264.98490567269107 0.8098504795090425
2.0606497451016663 11.980173475134688 20.16135368405828 280.3926122140675 0.835307540358924
2.0639784516805713 11.913329466507346 18.83965061281509 296.9060155395973 0.8622427240846794
2.0661511514271624 11.844458354356759 17.635329158127778 314.6254297460295 0.8907767377411836
2.067161934562358 11.773613250636785 16.5389642220138 333.6605366112609 0.9210368481001115
