M[M_sun], R[km], Lambda[1], P_c[MeV/fm^3], rho_c[fm^-3]
0.24162668629717493 15.618656898711224 2160425.4255784233 3.5677272577965504 0.1711233750220791
0.2536446957553413 15.27729128512969 1723161.1136077095 3.784842704893169 0.1738884609696476
0.26604221549603707 14.981227621412001 1382920.6840029978 4.011450045027191 0.17666724794764493
0.27881913132302333 14.723425429148405 1116318.077777193 4.247804652555323 0.17945840078355152
0.29197436727441534 14.498337108509949 905770.0894885793 4.49453202022209 0.18226849132618236
0.3055117066704517 14.301155112881979 738627.8017458081 4.751788790986731 0.18509324615638983
0.3194294802869134 14.128051817871324 605028.6155420019 5.020255605224499 0.18793924785121272
0.33372878077495566 13.975926709741229 497669.7022500198 5.300158739393961 0.19080316279123255
0.3484123480361473 13.84193156826973 410945.3659307597 5.592224326083169 0.19369123717317363
0.3634775525338214 13.723860468905974 340620.166020062 5.896622805974135 0.19659859224368623
0.37893219584837895 13.619902614724829 283254.66404469905 6.214217009744146 0.19953288223844454
0.394765851982828 13.528375077846533 236366.70750388558 6.545261468283337 0.2024902339552633
0.41099326076674736 13.447800368275162 197827.68468622462 6.890464423351863 0.20547445701830674
0.4276032897205165 13.376996662105842 166044.94239527755 7.250528532761258 0.20848857911660262
0.4446012456672087 13.314855390898336 139769.61549695223 7.6257087546303755 0.2115280822287411
0.46198231764378034 13.260485394068862 117948.31877092994 8.016962191665641 0.21459925276471
0.47975139710108256 13.213084605344305 99790.16987536853 8.424990369830644 0.21770367909946872
0.497910289559366 13.171926868196264 84617.64954796628 8.85022885328536 0.22083875167137815
0.5164518660336509 13.13633674335354 71921.01385588088 9.2935616387056 0.22400802843458048
0.5353720027077211 13.105797435279634 61258.2996887766 9.755868882420785 0.2272143572639346
0.5546810217850408 13.079763979841777 52288.86078738997 10.237957938600822 0.23045905676646802
0.5743661507317525 13.057805066094733 44715.32162893916 10.740299820759594 0.2337388212512732
0.5944268503093332 13.039484253533754 38317.380399556336 11.264147368845764 0.2370599373784597
0.6148654128994194 13.024480340916798 32890.90316400132 11.810433724616479 0.24042395868306018
0.6356729458595232 13.012408417001097 28282.1540756922 12.38013831199116 0.2438325188668931
0.65684585612875 13.002994454627043 24361.89057928362 12.973939645377623 0.24728344843972191
0.678380167316954 12.995963182089598 21019.871126557395 13.593185763732588 0.25078176869828456
0.7002714055601236 12.99105225061064 18165.517738508763 14.239064844855195 0.2543300031893995
0.7225090607904127 12.987999397058688 15724.067282801048 14.912767123028022 0.25793013757813854
0.7450989977618556 12.986647461049563 13628.72958138477 15.615307347842684 0.2615819164253743
0.7680228718839194 12.986758438303342 11831.444610426694 16.347981999428285 0.2652875349439859
0.791270828793823 12.988155715545755 10286.015257932486 17.112393439348203 0.26905153904970847
0.8148473524231614 12.990682169022419 8952.46137487484 17.909997432967316 0.2728763627385626
0.8387348338121194 12.994133457847006 7804.367929339059 18.742137134333877 0.2767628856260872
0.8629161999173623 12.998425798511734 6810.950368141048 19.61020203514314 0.2807119880164507
0.887402285747364 13.003373912677517 5952.802639575862 20.516257433584766 0.2847298371833794
0.912161020681269 13.008869619186664 5208.851373548403 21.462098407226943 0.2888194483614877
0.93718387465041 13.014757940716269 4563.1154385570535 22.449180749992554 0.2929805119768975
0.9624720269858269 13.020962820926245 4002.7528942586628 23.479587646488543 0.2972172872133092
0.9879947580064201 13.027350900869028 3514.879391363926 24.5557151212793 0.30153565221134304
1.013739005916628 13.033810271286777 3090.696782308379 25.67947172751844 0.30593698394647356
1.0397072273585217 13.040270605795284 2720.0796767059464 26.852887764338014 0.31042304944575305
1.0658609831750272 13.046600905937728 2397.007645660831 28.079028625498026 0.3150023390583105
1.0921969240011538 13.052728956342655 2114.596012744165 29.35990861184228 0.31967501399041703
1.11869717641275 13.058560112261349 1867.475880598938 30.698366952862266 0.32444632660870143
1.145330957672746 13.064011857754812 1651.2265151398356 32.09771929955004 0.32932376172946687
1.172097385173414 13.069022656737118 1461.3089434446767 33.559997334337936 0.3343056015859897
1.1989557783158444 13.07348037742329 1294.736181088771 35.08970250284102 0.3394051318112539
1.2259040828901087 13.077344882563862 1148.4365724259324 36.68880636328193 0.3446187937490645
1.252902970231246 13.08050448555358 1019.6352905451553 38.36241289029643 0.3499613411011002
1.2799475410825096 13.082941925311921 906.2093196135918 40.11282081779784 0.35542968317173707
1.3070005202493904 13.084551288900489 806.3424210159405 41.94539327367985 0.3610377430699025
1.334033680517667 13.085238816217512 718.131934077722 43.86372975753921 0.36678809517328403
1.361044450782712 13.085028136207592 640.2594135706793 45.87240615422686 0.3726878601642199
1.387983234584989 13.083781648620683 571.4552319168849 47.97681526639959 0.3787473174624916
1.4148276794639207 13.081455770575284 510.5439377731989 50.18178347722487 0.3849724639451104
1.441560827013085 13.078011864376933 456.6023797164075 52.49240368182282 0.3913696029297011
1.46815614425154 13.07340675422733 408.77020976613 54.91515968411978 0.3979507659103298
1.4945674103603037 13.067535027898783 366.3272676426574 57.45624523502496 0.4047250204224827
1.5207798641057035 13.060382092685495 328.65786723383957 60.12229254224582 0.4117021446238994
1.5467641235776617 13.051888214597277 295.11420098341114 62.92041174421368 0.4188926858143429
1.572482054232139 13.041997314378103 265.3064815109799 65.85823416393443 0.4263080237344849
1.5978956526305936 13.030655827464418 238.77365656444522 68.94395972657107 0.433960439203297
1.6230047817516557 13.017841908896415 215.09705790650517 72.18640897228491 0.44186318872185976
1.6477463015551683 13.003480529051574 193.97146655228346 75.59508014996334 0.4500305857473936
1.672094123044317 12.98753805388907 175.13036093217966 79.17980576281963 0.45847639335934
1.6960307981862324 12.969976721615156 158.26139365737527 82.95100599098224 0.4672148243726474
1.7195108614793035 12.950754422886016 143.19028114330166 86.9213194125725 0.4762669846407247
1.7424925849481823 12.929807002777212 129.697796673211 91.1022143887909 0.485646759031396
1.7649742872984688 12.90714334369316 117.60199000849971 95.5080241795984 0.495377015785044
1.7868849451447515 12.882665504515938 106.75547638401194 100.15218771675886 0.5054743487423112
1.8082359431187518 12.856424793467015 97.02617681993908 105.05136154711523 0.5159649473196345
1.8289403049717723 12.828271140519973 88.27458521061887 110.2221002581028 0.5268713683842914
1.8490216004911888 12.798293576361159 80.41660168495001 115.6821964939536 0.5382175453962125
1.8683922223433118 12.766344983322787 73.33653536357347 121.45158894346909 0.5500317751810075
1.8870688340617756 12.732511848087317 66.96282675751233 127.55171958680661 0.562343906866807
1.9049898989292637 12.69667889743654 61.216616339772564 134.00530500181688 0.5751841878232313
1.9221284542741874 12.658846047468446 56.03904381634047 140.83794453291202 0.5885885609161827
1.938438714148148 12.618938453714305 51.35988653163051 148.0773320741169 0.6025952973103059
1.9539308594790605 12.577079728418934 47.134659574609344 155.75182958679903 0.6172396395540501
1.9685428127193323 12.53313659783456 43.314551874309515 163.89526587579553 0.6325697588935187
1.9822533335149208 12.487118657681382 39.854292364268595 172.5416281347056 0.6486278689370306
1.995036155312704 12.439020270018611 36.72264524803138 181.7298869457554 0.6654659878659793
2.006868637557992 12.388843274933196 33.882979431319576 191.50226134995816 0.6831391819646394
2.017708985304228 12.33655252433933 31.308937077957157 201.904830069894 0.7017067429827376
2.027540871264365 12.282154495505168 28.97390155382258 212.9873846925926 0.7212307314094754
2.036342864893713 12.225664754005216 26.853406071277202 224.80587372782685 0.7417828830316774
2.0440806585336615 12.167052066919455 24.9271399578844 237.42110380943552 0.7634390383232529
2.050733029891815 12.106324740100908 23.173834993869697 250.90021642772146 0.7862825538297248
2.0562985057186647 12.043557599869755 21.580816700048185 265.31655565697594 0.8104022271360519
2.060738420768343 11.978688304978718 20.13120464410371 280.75146673757627 0.8358962841463969
2.0640354479954777 11.911775159134844 18.81104004727518 297.29525207713283 0.8628733570193237
2.066184631486949 11.842847546527187 17.60944420703083 315.04825903761514 0.8914536042728912
2.067171440624767 11.771942670527304 16.51425578671797 334.11974719436625 0.921762134534644
