M[M_sun], R[km], Lambda[1], P_c[MeV/fm^3], rho_c[fm^-3]
0.24162668629717493 15.618656898711224 2160425.4255784233 3.5677272577965504 0.1711233750220791
0.2536472701063434 15.277169320144782 1723024.1987177122 3.7848744986274396 0.1738888572632075
0.26604577911168825 14.98114192768531 1382799.5644029554 4.0115168828531 0.17666805564332605
0.27882390631749476 14.723373855638265 1116309.0275055096 4.24790879678254 0.17945960869964525
0.29198276426479747 14.498220049710591 905724.2384191353 4.4946762047933735 0.1822700968548471
0.3055218997162766 14.300970222598101 738437.1163663081 4.751977912930399 0.1850952890343261
0.31944222392163685 14.127883786740474 604911.751834834 5.020491058833571 0.1879416907732836
0.3337444989009563 13.975675415056845 497502.8410186985 5.3004467250343295 0.19080606232877648
0.3484294415401779 13.841787539893472 410857.89855314617 5.592565563988386 0.19369453874377793
0.36349701849109006 13.72372177087167 340499.90408718324 5.8970249643246495 0.19660236940002004
0.3789533403708144 13.619794014355707 283186.1917484498 6.214684956959232 0.19953714935360098
0.3947913483439586 13.528220187802903 236296.6064836875 6.54579471971293 0.20249490984991345
0.4110220643585755 13.447637719960035 197762.37566646966 6.89107327573712 0.20547964226071458
0.4276349033088706 13.376844949295068 165995.29176541974 7.25121870157385 0.2084942887063141
0.4446356838705753 13.31475167439416 139723.90200241067 7.626478333419977 0.21153420857074384
0.46202009382447845 13.260376644957393 117901.64434869023 8.017824606824924 0.21460592424319977
0.47979262415425805 13.212988597173144 99747.7323107378 8.425952348829608 0.21771091183671895
0.49795566183054096 13.171825723794324 84586.99368286629 8.851286850066362 0.22084641202011984
0.516499466423671 13.136267622214568 71890.26749278704 9.294732779032458 0.22401627333549365
0.5354246441116411 13.105716669860936 61235.83512699238 9.757161109913469 0.2272232045373654
0.5547370797414016 13.079693996289679 52263.753025890896 10.239365851777249 0.23046834721462892
0.5744272992967195 13.057759659031769 44696.10497963901 10.741844898457167 0.23374874112869679
0.5944898132879716 13.039429971372465 38295.96083953049 11.265839024737495 0.23707050687508396
0.6149341648947899 13.024427874571195 32872.253090070626 11.812281956034807 0.24043519901378965
0.6357451587271019 13.01237428617995 28267.854623222975 12.382153740140225 0.24384445236651447
0.6569229086535405 13.002987316854549 24349.968814686334 12.976113014839862 0.247295870528336
0.6784615003265088 12.995948237819189 21009.628641491785 13.595547945165357 0.25079492069163595
0.7003584207177421 12.991039539579631 18155.81005262085 14.241628508861766 0.25434391119175487
0.722598784520951 12.987991751502493 15714.089178490569 14.915545754529312 0.25794482925029893
0.7451950767478516 12.986641059603983 13621.074862993955 15.618288180477267 0.26159715246453785
0.7681222202135282 12.986770438337658 11823.493332253282 16.351205411566475 0.26530360284503507
0.7913764229757758 12.988151620091047 10278.53280213784 17.115875615127056 0.2690684716913574
0.8149588123558199 12.990688513904301 8946.915576508842 17.91375562978299 0.272894195113729
0.8388479830364574 12.994157600306394 7799.3859194691695 18.746154680578684 0.27678134417234784
0.8630365292890753 12.998444639418226 6806.6786292508705 19.614531184858663 0.2807314101809724
0.8875250900766907 13.003401764673134 5948.647618029278 20.52091903143249 0.2847502650279403
0.9122893398776892 13.008897716017465 5205.179207566452 21.467114725622366 0.2888409267841964
0.9373185703070254 13.014793549696094 4560.432261492934 22.45453088866843 0.2930027334070501
0.9626087670307679 13.021006683315848 3999.7840800620193 23.485338768135005 0.29724064422714025
0.9881384178223309 13.027392245938561 3512.4166868934276 24.56189430730101 0.30156019918400995
1.0138884480864383 13.033854477393945 3088.0430535736236 25.68605505364979 0.30596239026989147
1.039859067824146 13.040311698099778 2718.240547523621 26.859955741142166 0.31044975098939176
1.0660192847343586 13.046632133304366 2395.3569087344667 28.08661435214892 0.31503040195971893
1.092358915498825 13.052764243806644 2113.0842978424216 29.367985196237246 0.31970408473519085
1.1188652545731954 13.058598173618778 1865.9786793732853 30.70703085654637 0.32447688909035405
1.145504065779366 13.064052324710557 1649.8661873524525 32.106942237492696 0.32935545083581497
1.1722746493636513 13.069059818620152 1460.1856273679518 33.569887531436486 0.3343389325699338
1.1991364704535188 13.073506164767824 1293.724233512691 35.10029665394471 0.339440135304411
1.226090413335551 13.077369238093038 1147.4762253524466 36.70009369752988 0.34465520494210666
1.253094042264215 13.080521405877041 1018.7657617887824 38.37442922692886 0.34999917939319103
1.2801197858928608 13.082940998752468 905.5590669496311 40.12881966975343 0.3534740292000168
