M[M_sun], R[km], Lambda[1], P_c[MeV/fm^3], rho_c[fm^-3]
0.24162668629717493 15.618656898711224 2160425.4255784233 3.5677272577965504 0.1711233750220791
0.2536447788606156 15.277303120095699 1723066.8946816842 3.7848501132594765 0.17388855331135972
0.2660427903704605 14.981206385446637 1382925.905371777 4.011465619065465 0.1766674361507063
0.278819849785415 14.723434375132475 1116350.820404494 4.247828919338364 0.17945868224166556
0.29197739654023075 14.498272147929274 905770.8459710262 4.4945656167136745 0.1822688654309135
0.30551356029514165 14.301134487709188 738602.0664523877 4.751832858157085 0.18509372216593312
0.3194323451400715 14.128016363627323 605003.4090698982 5.020310467877111 0.18793981707240862
0.33373279309017595 13.975841758640907 497598.13814638054 5.300225842162118 0.19080383840476425
0.3484163014754606 13.841900643256375 410925.1181586731 5.59230383670458 0.1936920064603084
0.36348218114131686 13.723836964785738 340599.9969687604 5.896716511060708 0.19659947234168945
0.37893602353022443 13.619906100983682 283231.7483617525 6.2143260435447205 0.19953387649542054
0.3947722533760659 13.528319264234652 236347.2576101698 6.545385717790695 0.20249132345558996
0.41099977916024527 13.447749743664273 197809.4863385363 6.890606287580889 0.20547566519361216
0.42761007304600973 13.376955409043795 166031.09667773725 7.250689343288093 0.20848990946087892
0.4446092639664583 13.314825938106845 139758.4822301853 7.625888067173682 0.2115295096718834
0.4619910916491431 13.260466922846444 117941.90199270552 8.017163134371106 0.214600807218992
0.47976081557007555 13.213065126529104 99777.96346883841 8.425214510025352 0.21770536432039067
0.4979204402791359 13.171905533779116 84609.35425926358 8.850475364679538 0.22084053651919822
0.5164635111590555 13.136317382521023 71913.05127609911 9.2938345112876 0.22400994947456937
0.5353843449849882 13.105774626500855 61252.581637118754 9.756169966824604 0.2272164186471364
0.5546944154625817 13.07976518317451 52282.445109454304 10.238285976260062 0.23046122140056552
0.5743807013703827 13.057808912463472 44711.37222811209 10.740659815776938 0.23374113253079706
0.5944404328649131 13.039478785383785 37978.09173595806 11.264541514306801 0.23706240000643283
0.6148819029684792 13.024461492537334 32887.52513108476 11.810864349570108 0.2404265776012601
0.635689575047735 13.012410175303335 28047.600485892468 12.380607890816291 0.24383529927796085
0.6568636453829667 13.002989341194601 24359.87897791525 12.974446021652769 0.2472863426788613
0.6783993988402036 12.995967142091878 21017.87811390941 13.593736129469988 0.25078483298725857
0.7002913868919777 12.991055718836064 18163.627040127405 14.239662151836804 0.25433324360892634
0.7225304053821603 12.988002794092383 15721.076173208327 14.91341451272708 0.2579335605715129
0.7451216347675207 12.986641262120799 13626.976219634993 15.616001845927826 0.26158546623890677
0.768045838633179 12.986760291714969 11829.363707258446 16.348733012751897 0.26529127855704343
0.791296294037679 12.988146379523549 10284.410952037788 17.113204738150188 0.2690554841210537
0.8148726900981175 12.99067835137089 8951.125989463135 17.91087303749391 0.27288051741943253
0.8387612663833568 12.994147205618397 7803.367815601542 18.743073160523537 0.27676718618211577
0.8629450640219717 12.998430072448357 6810.22728872034 19.611210656235848 0.2807165130631896
0.8874309898153493 13.003375538270285 5951.849474702815 20.517343505444714 0.2847345965186678
0.9121906293444102 13.008875633895935 5208.075856315464 21.463267118295065 0.28882445244383786
0.9372154677217321 13.01477040071679 4562.791635692299 22.450427231178786 0.29298568915010637
0.962503138221715 13.020974257987685 4002.046935262144 23.480927543847855 0.29722272893460766
0.9880271971991322 13.027362966561505 3514.3048415557996 24.557154743437405 0.30154137114675644
1.013773649943512 13.03382300675887 3090.0892698485695 25.681005501007796 0.3059429030737571
1.0397417256241883 13.040285796333464 2719.599458562524 26.854534444385322 0.31042927030645484
1.0658975814012486 13.046611667886527 2396.7509240083054 28.08079592246033 0.31500887705825364
1.0922342531899638 13.052736205877626 2114.2045302749625 29.361790260985206 0.3196817867719931
1.1187363395317664 13.05856661499153 1867.1008366924962 30.700385424862404 0.32445344689947564
1.1453708670967342 13.064029777226878 1650.8515936665797 32.09986800526876 0.3293311444706774
1.1721381303595477 13.069035501934719 1461.1072643346474 33.56230148442538 0.3343133668093522
1.1989976796740003 13.073494323713646 1294.4803912915056 35.09217297572846 0.339413300995346
1.2259422859010305 13.077365516831184 1148.1272350045995 36.691435988339656 0.34462727651244357
1.2529465950451018 13.080509161864779 1019.4666295456748 38.36521234207794 0.3499701563063864
1.2799936881306377 13.08294982060007 906.0521538186259 40.11582192387934 0.35543896759134846
1.3070466765021669 13.084553400942296 806.1547687814508 41.94858885387078 0.361047403792948
1.3340810431147792 13.085237071894907 718.0202785040951 43.86715564989511 0.3667982786971068
1.3610912653545577 13.085031515742111 640.1392764314162 45.87605517862757 0.37269847103149467
1.3880326625975867 13.08377882012523 571.3479331770478 47.98070301334768 0.37875838324529787
1.414877719693114 13.081449164169966 510.4402199316984 50.18595258999025 0.3849841462585248
1.441609824380898 13.07800729241968 456.5021156289769 52.49684754032961 0.3913818041001908
1.4682064885933843 13.073398428528266 408.681422667858 54.919897971143165 0.39796352052683437
1.4946179276910014 13.067522322844784 366.24224314085745 57.46129922795923 0.40473836574833444
1.5208312023187038 13.060367579103868 328.5819958273727 60.12768525590404 0.4117161208165011
1.5468164415873906 13.051868333028866 295.0462755641122 62.92616808787877 0.4189073361666202
1.5725340486907586 13.041975539055919 265.2457859932067 65.86438111424941 0.4263233949404506
1.5979479751636996 13.030630447433609 238.7175849424436 68.95052651804897 0.43397658165033937
1.6230570370010187 13.017812286968761 215.0488275207936 72.1934273074379 0.44188015681267706
1.6477992799171037 13.003449146044584 193.92746684365645 75.60258443129761 0.45004843825484897
1.672146935541057 12.987501155707784 175.09208765576736 79.18779414994563 0.4584950301751119
1.6960836171694227 12.969937281722796 158.22512242241055 82.95955644983113 0.46723447330217915
1.719564017190547 12.950710115804776 143.1564531913645 86.93047597378721 0.4762877197467622
1.7425445283416439 12.929755501659615 129.67368544491436 91.11198086315449 0.485668485841945
1.7650250898411552 12.907088027298196 117.5715340655749 95.51849468495342 0.49539999041174315
1.7869362782727167 12.882605857940895 106.73357182618268 100.16337137112248 0.5054984825832388
1.808285723788574 12.856360437452025 97.00253318433539 105.06331636278657 0.5159903333957708
1.8289884547768835 12.828204849556315 88.2592555311459 110.23488951358665 0.5268981073154669
1.849069308515288 12.798221156136616 80.39633182078529 115.69594154353318 0.5382459379255919
1.8684410606422461 12.7662630246859 73.32092675982729 121.46631480188212 0.5500617516323114
1.8871171467102346 12.732419547679998 66.94912474033846 127.56745295046807 0.562375395948506
1.9050354439085675 12.696584844353982 61.20263007045221 134.02219032708297 0.5752175246981536
1.9221715880421841 12.658746094207393 56.0265030976482 140.8560808693421 0.5886238973964487
1.9384795814650977 12.618844138587637 51.347798083627175 148.0968280722844 0.6026327988327675
1.9539712589149851 12.576966742361764 47.12519796483511 155.77274033808087 0.6172792675209249
1.9685787074020946 12.533013083916728 43.303053097123694 163.917718145596 0.6326116999200974
1.9822892365545506 12.486990567679292 39.846656305349484 172.56582874018275 0.6486725527090047
1.9950695164131014 12.438886207661438 36.7148928781314 181.75592364469452 0.6655134140741161
2.006899447891867 12.388701474707322 33.87537542031326 191.5303032880256 0.6831895932930158
2.0177384416237825 12.336401645508667 31.301950341120097 201.9350638387453 0.7017604049401333
2.02756646923674 12.281994824819074 28.967216178893132 213.0199400689661 0.7212876850927145
2.0363672402928796 12.225499154719296 26.847574246739352 224.84105217427424 0.7418436898138417
2.044101728794774 12.166878576403391 24.921776546311108 237.45907676856677 0.7635037857068271
2.050751090611947 12.106143179873708 23.169414047546695 250.94125835972199 0.7863516117688003
2.056313976409378 12.043367458295249 21.577039357533195 265.36097104796505 0.8104760021634342
2.0607490393606773 11.97849006117123 20.125871489110615 280.7995938853614 0.83597522387026
2.0640431230522958 11.91156533639345 18.806993108442082 297.3474674074199 0.8629579552103899
2.0661896291105637 11.842632456495572 17.606288887347702 315.1049820333294 0.8915444066324751
2.067175640267944 11.771721081584388 16.51211542877332 334.1813521297523 0.9218594346091187
