M[M_sun], R[km], Lambda[1], P_c[MeV/fm^3], rho_c[fm^-3]
0.24162668629717493 15.618656898711224 2160425.4255784233 3.5677272577965504 0.1711233750220791
0.2536407195315023 15.27740200488915 1723217.374354258 3.7847771370835352 0.1738876436985315
0.26603446890072346 14.981414103887092 1383111.3704769951 4.011312208753087 0.17666558227761778
0.27881056434431156 14.723556821781377 1116505.7613453385 4.247589884959047 0.1794559098030826
0.29195926107395687 14.498563999348065 906051.5389027277 4.49423468600923 0.1822651804407145
0.3054910716409301 14.301422869637546 738810.8696048179 4.751398794718733 0.18508903345237637
0.3194039358615464 14.12836643209549 605251.2353705324 5.019770074489287 0.18793421028243723
0.33369996915868166 13.976159082395705 497824.6498086184 5.299564892029661 0.19079718373364501
0.3483760874103884 13.842244062655755 411136.3072319829 5.591520679812144 0.19368442920193504
0.3634369952061258 13.724163777276832 340755.438018201 5.895793553058272 0.19659080372481183
0.3788858082756789 13.620200712068081 283407.4597148904 6.21325211569063 0.19952408356648454
0.3947148519099111 13.528629133582644 236496.32285718436 6.544161935309283 0.20248059253647713
0.41093484829225985 13.448074233346698 197952.4303733454 6.889209025941758 0.20546376552715523
0.4275359285829932 13.377268796683415 166122.3245009781 7.249105491226917 0.20847680665868332
0.44452950127397084 13.315088889197058 139873.91832867084 7.62412200248737 0.21151545066140448
0.46190589694070316 13.260720837177583 118041.42706292483 8.015184053394398 0.2145854974276189
0.47966567863644594 13.213321295602391 99863.64804989306 8.423006980769218 0.21768876678645385
0.49781748059222414 13.172123452085291 84690.68561092661 8.848047526803805 0.2208229579356426
0.5163507450585698 13.136528884175835 71978.66066217764 9.29114707578694 0.22399102976110266
0.5352649982796011 13.105950315641955 61314.038464288016 9.753204712906763 0.22719611694921452
0.5545662782995543 13.079919995645728 52336.26374993909 10.235029351955742 0.23043956935443638
0.5742379629741389 13.057969402524503 44758.305106018415 10.737114444358868 0.23371837014807442
0.5942947772494522 13.039587886545748 38354.30040220485 11.260659855926084 0.23703814733462647
0.6147256111633923 13.024560938495027 32925.17210576501 11.806623474184411 0.24040078600317072
0.635520944560083 13.012479416080195 28315.058184498586 12.37598343787634 0.24380791754895526
0.6566871676842142 13.003073440735283 24389.12780865537 12.969459227315982 0.24725784020736347
0.6782136034729037 12.996007289882204 21043.965832384933 13.58831618224189 0.25075465617318327
0.7000949580765469 12.991086126393263 18186.796691451404 14.233779992066456 0.2543013326050933
0.7223213673104065 12.988021761174261 15742.230246445964 14.907039213677075 0.25789985196224835
0.7449042178028662 12.98665215333752 13645.208585126082 15.6091626956317 0.26155050903918065
0.7678170682114258 12.986748983615286 11845.503909864712 16.341337397879222 0.26525441327178745
0.7910562154390753 12.988120894028883 10297.979439038054 17.10521554324126 0.26901663537157994
0.8146221947680751 12.990651484650517 8964.026054798105 17.90225068644643 0.2728396049802399
0.8384981538319295 12.994111214203947 7813.868012479001 18.733855896201128 0.2767248376216949
0.8626736511202399 12.998371907359934 6820.838635272333 19.601278636240053 0.28067195435326575
0.8871401299373881 13.003324296865706 5960.946066773317 20.50664892937115 0.2846877312280932
0.9118942469421103 13.008803508387947 5215.891330581373 21.451758912572508 0.28877517763956057
0.9369078196331669 13.014694660761972 4569.761507701976 22.438153333606103 0.29293471036728697
0.9621799279744951 13.020892448989793 4008.4172394455177 23.46773393214727 0.2971691457572876
0.987698495211393 13.027278288551145 3520.2106166370745 24.54297931954654 0.3014850589170277
1.013438249562263 13.033750590143713 3095.3015801256 25.66590313446497 0.3058846201327167
1.039389430483131 13.040198086499117 2724.31782373171 26.83832051407806 0.3103680169973891
1.0655376507952021 13.046531047389356 2400.9277540049698 28.063394535517933 0.3149445017612508
1.0918591663640267 13.052649283652272 2117.9932726183565 29.343263088891 0.3196151003281956
1.1183506810292145 13.058488323733645 1870.654935025451 30.680511282962463 0.3243833395761113
1.144975496451738 13.063953461081981 1653.8381952690145 32.07871175618248 0.32925845368262363
1.1717314742459066 13.068964569530172 1463.7442826935971 33.53961498102523 0.3342369109538173
1.1985815987127988 13.073426644125602 1296.9404670105403 35.06784914912731 0.3393328686949803
1.2255206978780082 13.077296931392205 1150.3961969829322 36.665545421395066 0.34454375755125394
1.252510414883697 13.080469587863371 1021.3724688548325 38.3375413691318 0.3498827279053059
1.279546074819071 13.082916121345368 907.7949217446646 40.08627449023833 0.355347557702823
1.306584616324967 13.084509100735922 807.7734672559088 41.91712703149296 0.3609522899374546
1.333616228847881 13.085231488603158 719.4038215209479 43.83342672143022 0.3666980188783919
1.3606205846425505 13.08503825543353 641.4023892769417 45.84012981378712 0.3725940049506306
1.387546281607502 13.083794257172606 572.5026796773736 47.94242777392001 0.3786494395583706
1.4143973309900066 13.081516866928398 511.46103819555714 50.14490780350114 0.3848691342435533
1.4411248187864396 13.078097025460668 457.445625821648 52.45309836057485 0.39126168524398536
1.467707622463155 13.073496391182697 409.5350253505945 54.87325069432909 0.39783795444698067
1.4941145133229017 13.067643393834445 367.0187941233514 57.41154446065537 0.4046069857501858
1.5203233806341296 13.060518661339799 329.26320411874417 60.07459651036895 0.4115785317324877
1.546304235065815 13.052050692783611 295.6739209172152 62.869500237231065 0.4187631119814279
1.5720184595604276 13.042188104374835 265.8063198477852 65.80386869187748 0.4261720761790975
1.5974409000645593 13.030883838033837 239.23573855888205 68.88588184375443 0.4338176725034786
1.622527794427775 13.018087563155689 215.5213218596803 72.12433842065204 0.4417131219703829
1.6472798766910905 13.003770604544828 194.35863031944496 75.52871280927982 0.44987269941670166
1.6716290370856757 12.987861610125197 175.46520526953668 79.10915788402389 0.45831157266637373
1.69556733478335 12.970341289415051 158.58330527031276 82.87538838177461 0.46704105532692247
1.71903948016008 12.95114443617957 143.47491148739243 86.84034286431869 0.4760836126001496
1.7420384445548096 12.930248440397031 129.96341249423233 91.01584519369867 0.4854546193636737
1.7645242630988118 12.907633508410516 117.84067639020871 95.41543042552311 0.4951738444134222
1.7864505050961648 12.883221609344798 106.96505091163061 100.05328878318014 0.5052609291342571
1.8077923067787438 12.856996282512375 97.21756965201315 104.94564465820018 0.5157404572844322
1.828518250383409 12.828920478881889 88.45497932358667 110.10880260829977 0.5266341611500017
1.8485940344197267 12.798966101398191 80.57428854747224 115.56065252055171 0.5379664774887649
1.8679867850803602 12.76709534402796 73.4839252350857 121.3213740321137 0.5497667053399294
1.8866644385186981 12.733286201681233 67.10049431617226 127.41224294180628 0.5620641977766379
1.9045944220286974 12.697505980239299 61.340462525246004 133.85599953186204 0.5748894124666036
1.9217309630449513 12.659682989843565 56.14951223649551 140.67758007938804 0.5882761099771985
1.9380772707939102 12.619913688237112 51.463985976856534 147.90494844145795 0.6022637088162659
1.9535706552210823 12.578057605466869 47.226242400808076 155.56693984398714 0.6168892549836974
1.9682063031816024 12.53419858658973 43.39844380421553 163.69651200808147 0.6321981243433554
1.98193545544281 12.488250411152324 39.93229261217108 172.327658109241 0.6482327966800089
1.9947365240503598 12.440215896421632 36.79383379571761 181.49968745005856 0.6650466762926708
2.006583862559484 12.390091379429972 33.95099731381664 191.25433773494075 0.682693486708526
2.0174511276813325 12.337881482502567 31.370516354121836 201.6375335782855 0.7012323180767572
2.027303931340577 12.283545301154618 29.031244830547845 212.69956849964035 0.7207272141994012
2.0361310885188186 12.227130112168656 26.904734364785178 224.49487431168146 0.741245313137024
2.043894297413168 12.168590506087327 24.974078980963863 237.0854062751765 0.7628666431896405
2.050573582534331 12.107936108161027 23.21751795283512 250.53698030899616 0.7856707115502026
2.0561599557873818 12.045218768376499 21.620866238700035 264.9232611849131 0.8097478994999108
2.0606335659291326 11.980445422820324 20.167206946539174 280.32582554457315 0.8351977994233927
2.0639677850819274 11.913617361073772 18.844961451250246 296.83368916508084 0.8621255423984423
2.0661441315226385 11.844757770452942 17.640120297520294 314.5468631295614 0.8906509680410823
2.067161381694722 11.77392399988433 16.543849270048224 333.5752118838215 0.9209020845088122
