M[M_sun], R[km], Lambda[1], P_c[MeV/fm^3], rho_c[fm^-3]
0.24162668629717493 15.618656898711224 2160425.4255784233 3.5677272577965504 0.1711233750220791
0.2536441937078435 15.277288902006 1723142.1298296251 3.784823829496218 0.1738882256969304
0.26604036029601935 14.981253774215036 1382945.6885808918 4.011410364928469 0.17666676843706947
0.27881585782408796 14.723513943668724 1116408.5519100642 4.247742825060937 0.1794576836777887
0.29197052534695817 14.498396638306945 905850.2813862342 4.494446422668482 0.18226753817755678
0.30550471467518125 14.301257868289344 738628.981544653 4.751676516637205 0.18509203337913613
0.3194220014230928 14.128147152969088 605101.3825475152 5.020115826763683 0.18793779759573223
0.3337209212724465 13.975949949644242 497676.5252805219 5.2999877764856524 0.19080144147842465
0.34840218648820864 13.842017644660455 411000.70409364766 5.592021751594133 0.19368927720926588
0.36346562433221113 13.723959025039397 340638.8576931545 5.896384068373359 0.19659634996961747
0.37891862866369636 13.620022106921809 283301.1330790758 6.213939219571185 0.19953034912654827
0.3947512675331707 13.528448588967178 236418.3524511445 6.544944913675669 0.20248745819899838
0.4109771909356387 13.447847320465781 197865.3804405652 6.890102992706838 0.20547137892326525
0.42758457817132267 13.377047371045945 166073.75569450526 7.2501188339881555 0.20848518978364955
0.44458061975091506 13.31490761175834 139793.74943939227 7.6252519198360735 0.21152444553003463
0.4619617324550138 13.26056433452508 117981.44390685584 8.016450251861587 0.2145952924964401
0.47972752217983716 13.213136095574164 99805.21764364037 8.42441933242832 0.21769938569649888
0.49788387904772147 13.17200321391384 84640.97299462036 8.849600823575798 0.22083420446794447
0.5164224809403676 13.136396667513571 71936.19577706791 9.29286645229612 0.2240031342789179
0.5353405827292917 13.105852388154746 61275.09519618588 9.755101825098244 0.22720910558347737
0.5546485464393075 13.079797589899687 52296.98169703181 10.237116563955286 0.23045346937212932
0.574330348117867 13.057846438392573 44727.45452139509 10.739382686977022 0.2337329329682966
0.5943880151374292 13.039538665770147 38326.98944304683 11.263143236540545 0.23705366354164562
0.6148250931232299 13.024501092979996 32900.04385630371 11.809336660997234 0.24041728670584495
0.6356301491271338 13.012428710330855 28291.463430376058 12.3789420140982 0.24382543549830005
0.6568003933665781 13.00301251285741 24176.34659502584 12.97264960685666 0.24727607510854127
0.6783323959513914 12.995976521091434 21027.07830211233 13.591783663896695 0.25077396218204334
0.7002198429168686 12.991068340640437 18171.726992287895 14.237543164763457 0.2543217480006362
0.7224548870443627 12.988007685665448 15728.995790527602 14.911117860586984 0.2579214173059186
0.745042625185641 12.9866544967664 13633.51829813858 15.613538080095294 0.2615728731022513
0.7679636658230046 12.986759530822978 11835.643135819791 16.346068764213783 0.2652779979462976
0.7912087937031036 12.98814383052918 10288.52704234042 17.110326633084284 0.2690414888707263
0.8147850346387036 12.990658037011816 8956.265289479572 17.907766815305624 0.27286577861725464
0.8386664051711433 12.994133950820848 7807.242642168439 18.739752599500658 0.27675192992232006
0.8628485074312312 12.998395390843953 6814.324806706567 19.607632574845393 0.2807004604685685
0.8873279044984517 13.003360915188466 5955.202538404906 20.5134906791679 0.28471771283653263
0.912085097655576 13.008841187389251 5210.937236415755 21.459121142979953 0.2888067005781591
0.9371057426160805 13.014730124809638 4564.940536567337 22.44600537900568 0.2929673232936001
0.9623885726575389 13.020952836875134 4004.2677706199843 23.47617431528146 0.29720342466107774
0.987909456364412 13.027334734560336 3516.408896108998 24.552047761106248 0.3015210835303531
1.013650961121455 13.03379179647513 3091.743857618623 25.675564535418363 0.30592190533967667
1.0396161522521021 13.040246541088287 2721.367800075161 26.848692968044457 0.31040720226071106
1.0657667607326173 13.046577881301726 2398.241772904696 28.074526586210244 0.3149856840573483
1.0920991906936828 13.052706888011905 2115.6970788345757 29.355115287076522 0.3196577609643767
1.1185970720132925 13.05853983066505 1868.5272147497858 30.693225107633133 0.3244281884164724
1.1452284376364597 13.063994089528027 1652.0369024618979 32.09224571744918 0.32930495504049445
1.1719917883273459 13.069010177129996 1462.0292063245442 33.554127802210836 0.3342858206575473
1.1988480529077958 13.073466440519974 1295.4224213444436 35.08340931334192 0.33938432193966794
1.2257938809823359 13.077332381612505 1149.006566144469 36.6821077807507 0.34459718515873705
1.2527902495258927 13.080491284614222 1020.1394669048184 38.35528172642234 0.3499388857497007
1.2798322182976203 13.082938893215946 906.694557177939 40.10517600779936 0.35540603268356774
1.3068755097867066 13.08452263690034 806.7134843181069 41.93725310584148 0.3610131341092971
1.3339136118032964 13.08523430941895 718.5670066751874 43.855002953626894 0.36676215459888595
1.3609215543429634 13.085030887423528 640.593391533757 45.86311100207328 0.3726608311244083
1.3878525017493193 13.083774775811413 571.7768277609198 47.96691205788655 0.3787191297342382
1.4147094121928436 13.081482819284581 510.79066842936504 50.1711636037303 0.3849427058892444
1.441433142046982 13.078030886369637 456.86091061008676 52.4810840043541 0.3913385233364886
1.4680272184065046 13.073434365407053 408.99693468817617 54.90309007277569 0.39791827668726376
1.494436626463546 13.06756610739257 366.50310350324395 57.44337149894147 0.4046910266664173
1.520648628856993 13.060422046113876 328.81422050425726 60.108556065968834 0.41166654406168096
1.5466322906475758 13.051934780765446 295.2791856399845 62.90574908778504 0.4188553681879992
1.5723484271475237 13.042052730199993 265.4507283422785 65.84257662264996 0.42626887012502535
1.597772661827156 13.030726312748605 238.90595914251776 68.92723284587694 0.43391932128647326
1.622859715375962 13.017902727764364 215.22322994457662 72.16853201272208 0.44181996794844464
1.647611953969559 13.003564065488996 194.08622505730182 75.57596549643762 0.44998511243964096
1.6719603430510872 12.98762879252065 175.22062211829052 79.15945810048194 0.45842892249589856
1.6958976833833759 12.970078433098648 158.34881353084762 82.92922676218012 0.4671647757682915
1.7193782567014118 12.950870939343133 143.26977833982247 86.8979964841977 0.47621416968305486
1.7423589199200478 12.929925075722197 129.7747308689225 91.07733805357674 0.4855914183421943
1.7648427148538481 12.907281797347714 117.67168555996214 95.48135475141812 0.49531849710462256
1.7867699310169043 12.882847061873594 106.81280961817994 100.12370197243746 0.5054128777418847
1.8081083732615224 12.856590350913798 97.08078286055839 105.02091174882204 0.5159002871091336
1.8288182793933774 12.82845490669633 88.32641473531105 110.18952525817423 0.5268032627246436
1.8488988227143788 12.798489825210954 80.46181754065616 115.64718725508042 0.5381452283894601
1.8682751547515726 12.766551661831313 73.38463134994278 121.41408176028874 0.5499554243009016
1.8869537403252326 12.732732103510505 67.00494553455354 127.51164402120925 0.5622636949498645
1.9048774689327195 12.696916733323695 61.25460217600106 133.9622980874853 0.5750992788208125
1.9220188735936004 12.65909984311829 56.07060009832681 140.7917515905378 0.5884985594981496
1.9383326732029487 12.619212855172668 51.38829671269297 148.02767642552124 0.6024997821997096
1.9538295075000185 12.577370191207121 47.15861072441034 155.6985709355191 0.6171387090786085
1.968446341686617 12.53344346845923 43.339050787254735 163.8380814167207 0.632462937848731
1.9821609645473293 12.48744257441838 39.877105493154374 172.47999122968088 0.6485140631311422
1.9949513135454204 12.43936745113476 36.74322560082748 181.66357411968025 0.665345198133804
2.0067872520743077 12.389208480134256 33.901237255126766 191.43084189180234 0.6830107903481651
2.0176348947048095 12.33693562047418 31.325665522536152 201.8278288497791 0.7015700734125777
2.027470875632377 12.282551299858316 28.98899579489906 212.90447124220174 0.7210856792885707
2.0362818666630713 12.226087272079122 26.868528842238074 224.71628044090193 0.741628018902314
2.044027193817519 12.167492874309517 24.941000784504887 237.32439413133872 0.7632741394381954
2.050687613135051 12.106788225899528 23.18715030329634 250.79569151034755 0.7861066782063312
2.056260050407707 12.044043554067908 21.591852358989264 265.2033110142116 0.8102139186864156
2.0607077862429963 11.979195377484615 20.14039031295031 280.6288993846428 0.8356952451602845
2.0640142312302 11.912299512684427 18.820319595514096 297.1622743788013 0.8626579093209344
2.066175514268748 11.84340190350765 17.617864011751113 314.9038029368749 0.8912223584679344
2.0671679644722074 11.772511847525498 16.52254437224872 333.9628597312184 0.921514343318684
