M[M_sun], R[km], Lambda[1], P_c[MeV/fm^3], rho_c[fm^-3]
0.24162668629717493 15.618656898711224 2160425.4255784233 3.5677272577965504 0.1711233750220791
0.2536443226500519 15.2772786344971 1723186.1703776568 3.7848255741186945 0.17388824744280795
0.2660405740290074 14.981262535724692 1382938.7282892966 4.011414032484186 0.17666681275731586
0.27881579860200956 14.723489833956432 1116381.7160917118 4.247748539640397 0.17945774995829875
0.29197084449073274 14.498369850107919 905852.2262267071 4.4944543342383865 0.18226762627472384
0.3055062698616022 14.301208608241371 738611.7358976096 4.751686893845481 0.1850921454727907
0.31942314962906376 14.128120799741945 605085.3400522965 5.020128746063618 0.18793793163845543
0.33372140310416937 13.975929278446571 497663.5250646914 5.300003578022433 0.19080160057368054
0.34840312439496174 13.842009731420664 410995.7732716171 5.5920404748327055 0.19368945836174967
0.36346662504158067 13.723950366155453 340619.69392127334 5.896406133975141 0.196596557214419
0.37891949291900884 13.619987489236342 283286.07111604256 6.213964894578179 0.19953058325169734
0.3947515940235199 13.528452241657948 236393.8140629385 6.544974171443026 0.2024877147500928
0.4109779941809085 13.447876024820934 197860.56875412242 6.890136398076481 0.20547166341741113
0.4275865599116021 13.377036948350485 166067.89191687226 7.250156700451571 0.20848550304319705
0.4445821835748557 13.314910390107027 139790.61127085576 7.625294142745724 0.2115247816515447
0.46196373209565156 13.260554910911686 117977.11910568894 8.01649756771477 0.2145956585228177
0.47972901043656263 13.213135265549969 99806.76043555354 8.424472110209924 0.21769978251163458
0.49788631619170903 13.171981098846583 84638.99654093679 8.849658868695371 0.22083462473941096
0.5164251724287479 13.136389575898352 71935.45309551021 9.292930704142139 0.22400358661591951
0.5353441495611246 13.10583601097477 61273.39697114419 9.755172719342204 0.22720959096299803
0.5546514242498854 13.079815384760128 52304.26678080849 10.237194562743237 0.23045398881362963
0.5743341268255455 13.057833414964225 44325.84739902798 10.739467451409105 0.2337334771822073
0.5943913693393469 13.039519981305641 38324.11409049539 11.263236041404346 0.23705424338811407
0.6148290756382495 13.024498226811886 32899.550504908664 11.809438054574418 0.24041790334796567
0.6356339822875404 13.012428088582253 28290.841647628593 12.379052578877806 0.2438260901605643
0.6568047612449103 13.003024118069737 24369.356543177637 12.972768835105434 0.24727675656831943
0.6783371107085856 12.995985311106647 21026.79833721698 13.591913248757024 0.2507746836758278
0.700225523018081 12.991054894974733 18171.348782554636 14.237683801093308 0.25432251095958947
0.7224555109780251 12.988019837934448 15728.126850133074 14.911270287892181 0.25792222324653913
0.7450476066446174 12.986649994981914 13632.77669731689 15.613701598108467 0.26157370889786885
0.7679691457391716 12.986761880107048 11835.265636278578 16.34624558741296 0.2652788793655967
0.7912141372495589 12.988146995178317 10288.087226521253 17.110517648967427 0.2690424177162827
0.8147897760290462 12.990665835825677 8955.487787748581 17.90797297021315 0.27286675680755007
0.8386726139517241 12.994124941260063 7806.881785696249 18.73997297903213 0.27675294245223975
0.8628520648925935 12.998415883845379 6813.64789239017 19.607870044608685 0.28070152584563207
0.8873343844992206 13.003363225348513 5954.741007518938 20.513746382175892 0.284718833366761
0.9120906056272648 13.00885064995601 5210.602643415774 21.4593963005195 0.2888078787230614
0.9371114065908066 13.01474616950947 4564.9238872983115 22.446298844836658 0.29296854218358787
0.962396111572061 13.020956063714353 4004.2062745334674 23.47648977237635 0.2972047058260715
0.987917371889808 13.027333254781679 3516.3015092815676 24.5523866943914 0.30152242995139583
1.013659412870554 13.033791570083762 3091.644798475815 25.675925632884052 0.30592329888434017
1.0396258540992234 13.04024809703953 2721.202018333244 26.84908064440815 0.31040866683220436
1.0657754562979322 13.046580071986 2397.9890425880017 28.074942656291874 0.31498722328150136
1.0921081266304156 13.052701023745206 2115.5839613880794 29.355558276194394 0.31965935545320434
1.1186054235920124 13.05854124195829 1868.392426595976 30.693700304906656 0.3244298647056468
1.1452389973587538 13.063998461802917 1651.9899967461533 32.09275157187128 0.32930669310646415
1.1720014573417228 13.069011200650381 1461.9500938219774 33.554670247709254 0.33428764875480543
1.1988578303122157 13.073463257861203 1295.4125669319253 35.08399091030447 0.3393862451231518
1.2258040421532508 13.077337907583615 1148.9616366362952 36.6827268413557 0.3445991821524203
1.2527995930145295 13.080493882466909 1020.0290406719446 38.3559407631091 0.3499409609930478
1.2798442593452393 13.08293155493098 906.6318396476142 40.10588251162467 0.3554082183703756
1.3068863860298283 13.084527504501537 806.684466234498 41.93800538679534 0.36101540836859064
1.3339246784287264 13.085238018571236 718.5177584954927 43.85580944649918 0.3667645519127898
1.3609337824933747 13.085034415349954 640.5567975727565 45.86397001691216 0.3726633290228714
1.3878643351607405 13.083771003530343 571.7531968202509 47.96782726399878 0.3787217347062686
1.4147207617878672 13.081482265378108 510.7639781962958 50.17214503722753 0.3849454559740599
1.4414443128700827 13.078027668737393 456.8193191949658 52.48213010715856 0.3913413955428488
1.4680399031122826 13.073428199830916 408.9822007825634 54.90420547717928 0.3979212791553171
1.4944487218057336 13.067564626782357 366.49397384431796 57.44456121247051 0.40469416816560855
1.5206608499407848 13.060415684020208 328.8079830382493 60.10982550498125 0.4116698340424324
1.5466442808615166 13.05192892422664 295.2590268374926 62.90710411442049 0.4188588168385158
1.5723605528928986 13.042048605665668 265.43454446919725 65.84402358550517 0.42627248843376914
1.5977848930488836 13.030719513787849 238.8939234497735 68.92877862482555 0.4339231211109234
1.622872088632465 13.017894858823581 215.21095140227726 72.17018406834929 0.4418239620908312
1.6476239019672736 13.00355721412537 194.07927526194837 75.57773192461971 0.4499893147304248
1.671973020010931 12.987623920291448 175.20686991428028 79.16133846841205 0.4584333093727667
1.6959097001307328 12.970069187116334 158.34698173336668 82.93123941693682 0.4671694008430606
1.7193904793328243 12.950859213500843 143.26515551346685 86.9001517870335 0.4762190503835488
1.742371946721009 12.929912311164815 129.76738931238668 91.0796369015961 0.4855965324328619
1.7648549411601469 12.907269704997654 117.66527618566397 95.48381929168421 0.4953239048562714
1.7867820351557682 12.882831173342291 106.81398644230899 100.1263343509395 0.5054185583004895
1.8081202837305002 12.856575188216109 97.0739666463152 105.0237256165904 0.5159062623632379
1.8288299491430375 12.828439388719824 88.32015226232775 110.19253550522654 0.5268095563504809
1.8489097625083981 12.798471864400447 80.45456600547126 115.65042243589903 0.5381519111566563
1.8682850589476228 12.766533149314435 73.3783242866062 121.417547761347 0.5499624798089086
1.886964216623219 12.732710770164788 67.00119823024356 127.5153495726092 0.5622711151629414
1.904888280703957 12.696894566912883 61.251913547311716 133.96627228348467 0.5751071251176921
1.9220292305626991 12.659077397852297 56.06891203694663 140.79602018411268 0.5885068763416975
1.9383422723223387 12.619189500039841 51.38668760298876 148.0322649807337 0.6025086085139556
1.9538425922663438 12.577341785040733 47.141544808007595 155.70349241564796 0.6171480357760998
1.9684551053318193 12.533412139033898 43.33417837276619 163.84336564764538 0.6324728088360133
1.9821696391773458 12.487412229423114 39.87523836782192 172.485686869609 0.6485245795075211
1.9949592994693028 12.439335499583779 36.74114967004271 181.6697018169214 0.6653563598192941
2.006795286194299 12.389174101183816 33.89979701233491 191.4374414414357 0.6830226544376907
2.0176408639667245 12.336900640801794 31.324878858085235 201.83494415058556 0.7015827023696426
2.027476425436175 12.282515057057852 28.989241232125924 212.91213282780382 0.7210990827742034
2.0362867542356766 12.226048534681759 26.866127035675515 224.72455923132117 0.7416423289886437
2.0440323320532086 12.167452508431982 24.93935663618865 237.3333304612482 0.7632893767015965
2.0506917854786213 12.106745165890468 23.185686188606105 250.80534994695944 0.7861229296763423
2.056263981209194 12.043998272241884 21.590913051513418 265.2137830744906 0.8102313448031337
2.060710427601939 11.979148533876968 20.140353160362107 280.64022487499363 0.8357138216004446
2.0640158660923795 11.912251840456763 18.820325856425036 297.17456173581166 0.8626778170409535
2.0661771422587853 11.843350857129922 17.61720487736247 314.91715083585376 0.8912437258288698
2.0671687256275524 11.772456739537393 16.52194532630102 333.9773562145352 0.9215372393561119
