M[M_sun], R[km], Lambda[1], P_c[MeV/fm^3], rho_c[fm^-3]
0.24162668629717493 15.618656898711224 2160425.4255784233 3.5677272577965504 0.1711233750220791
0.25364962336301206 15.277144305453112 1723087.2409962723 3.784913640980487 0.17388934515375534
0.26604993295247353 14.98106074393124 1382773.123537246 4.011599170279409 0.17666905003831027
0.27883195885775147 14.723195809262965 1116166.6527344151 4.248037015652156 0.17946109584531109
0.2919922165853682 14.4980435998647 905590.8803505345 4.494853722209743 0.18227207355247801
0.30553476284466047 14.300814727921525 738344.0585847344 4.75221075937599 0.1850978042203326
0.3194576071851724 14.127720071673332 604789.2415284632 5.020780952184162 0.18794469852868453
0.3337596174658194 13.975541249780402 497426.685168975 5.30080130084888 0.19080963231888132
0.34845050367727515 13.841609848881058 410747.72349719686 5.592985710298445 0.19369860377490603
0.3635206726806111 13.72355410403107 340392.7987336688 5.897520124409212 0.1966070200483213
0.37898112259576916 13.619621836324834 283090.416431302 6.215261126926151 0.1995424033299455
0.39482254942730294 13.528072329816696 236214.90405647337 6.546451304080737 0.20250066720781706
0.41105573590236477 13.447521418488813 197689.1342474254 6.891822955231644 0.20548602684588074
0.42767342659726415 13.376692274278543 165928.72724160142 7.252068515864872 0.208501319002155
0.4446777767224493 13.314586320007724 138044.66433266996 7.627425936224439 0.21154175209837398
0.4620661790423174 13.260254725107773 117851.53749679223 8.018886533733168 0.21461413910636606
0.4798430605530359 13.21287001092221 99699.24426996069 8.427136886312747 0.2177198179026391
0.4980106013134458 13.171713237442532 84546.32733889567 8.852589632618074 0.2208558447224304
0.5165601126560226 13.136153646654076 71855.61854574918 9.296174899132328 0.22402642595090244
0.5354890513697691 13.105607147105665 61200.933756786646 9.758752352388287 0.2272340990256417
0.5548060443757965 13.079627076193953 52231.448971288446 10.24109956588921 0.23047978753733678
0.5745006469008088 13.057663471673711 44668.55223911738 10.743747539134613 0.2337609566712103
0.5945697783604382 13.039366270017348 38275.45672458844 11.2679221880307 0.23708352251703746
0.6150174980652727 13.024392656928045 32853.50191468449 11.814557957129578 0.24044904089786984
0.6358353587082278 13.012317786914394 28249.51748612721 12.384635662912965 0.24385914801541791
0.6570172060101044 13.002945190791255 24334.00540140225 12.978789461326675 0.24731116799892608
0.6785616042880996 12.99590828207731 20994.337942415626 13.598456940733032 0.2508111171995902
0.7004635072218579 12.991019987995806 18143.291051712033 14.244785662540528 0.2543610389045471
0.7227101093375291 12.987976114967571 15703.970632363307 14.918967678737884 0.25796292225349376
0.7453117521510408 12.986644550874203 13611.058631848207 15.621959151932726 0.26161591603556655
0.7682450814148238 12.986758942934802 11815.530789647715 16.355175169891165 0.2653233910946339
0.7915034615734396 12.988155380831769 10270.609037305701 17.12016409871226 0.2690893251348298
0.8150926862496035 12.99069679785512 8939.850878249932 17.918384099535434 0.2729161568717529
0.8389891951294081 12.994181572679357 7792.300889599248 18.751102601573127 0.2768040773091942
0.8631820759842956 12.998476170025898 6801.000255697606 19.619862929611582 0.2807553303571233
0.8876782913546758 13.003435643922403 5943.924855152633 20.526660281300092 0.284775424075055
0.9124483127669999 13.008927899977435 5200.949324889047 21.473292921393632 0.28886738002936385
0.9374817350455696 13.01483023082279 4556.24185210374 22.461120284667732 0.293030102006598
0.9627797519454382 13.021048957895562 3996.063791307911 23.492422108342634 0.2972694117763889
0.9883151539136822 13.027440098096038 3509.333392334457 24.569504958770132 0.3015904326893509
1.0140719371263647 13.033897734665915 3085.505992859632 25.69416354384253 0.3059936824951523
1.0400483053162766 13.040355565187783 2715.72206019811 26.868661263385427 0.31048263888482736
1.0662146417337923 13.046679872315305 2393.0466773527323 28.09595768970814 0.315064967028145
1.09256009631096 13.052809768344156 2111.120825782361 29.377933218478635 0.31973989150714305
1.1190720416325812 13.058645902208088 1864.2177118413663 30.717702415245217 0.32451453370516403
1.145716691300891 13.064101229306306 1648.1565983254848 32.11830248457097 0.3293944835258366
1.162845857391185 13.063534050745249 1520.0911724661207 33.93779419434116 1.9950836618789023
