M[M_sun], R[km], Lambda[1], P_c[MeV/fm^3], rho_c[fm^-3]
0.24162668629717493 15.618656898711224 2160425.4255784233 3.5677272577965504 0.1711233750220791
0.25363915693448175 15.277436606667237 1723286.9250108374 3.784751000212838 0.1738873179150471
0.26603170060173154 14.981450659041066 1383147.209640928 4.01125726491755 0.17666491831379094
0.27880283536171013 14.72374212982021 1116642.2730506405 4.247504276438033 0.1794549168732481
0.29195331831031024 14.498674995989633 906177.5081620335 4.494116167523309 0.18226386070986705
0.3054832271167134 14.301525679797892 738909.1872406157 4.751243343355221 0.18508735428096706
0.3193948578390348 14.12842867326901 605302.9896515671 5.019576546371025 0.1879322023535153
0.3336871498565891 13.976268938743527 497884.57695457526 5.2993281936781065 0.19079480057399845
0.34836316441210297 13.842342633716978 411190.5741662568 5.591240221501658 0.19368171569062967
0.3634200180516035 13.724304781271348 340831.9509816484 5.8954630357994615 0.19658769943677218
0.37886673229997664 13.620325168203676 283468.55099946115 6.212867541595265 0.19952057671379217
0.39469365411334684 13.528755618784443 236547.07576770167 6.543723704908959 0.20247674984788655
0.4109115509210284 13.448182092662673 198002.5308956943 6.888708681745593 0.2054595043860194
0.4275130064406515 13.37732571017783 166212.60068239446 7.248538340297303 0.20847211476439095
0.4445008019274319 13.315202856690972 139909.60807952358 7.623489613516723 0.21151041643857335
0.4618754212306923 13.260799492909575 116759.96097287431 8.014475399358178 0.21458001541572655
0.47963263937582795 13.213385073614067 99897.34835542487 8.422216538382141 0.21768282376472123
0.4977821132672339 13.172201818896237 84717.56090174972 8.847178211489549 0.22081666372133754
0.5163114303859777 13.136589708235425 72009.76999493419 9.290184823742557 0.2239842554467208
0.535222218994336 13.106004773188507 61334.491126750276 9.752143003055457 0.2271888479215767
0.5545202627305609 13.079976054075036 52357.40787742993 10.233861267116806 0.23043179036508044
0.5741914236157856 13.057967952365136 44775.169011811435 10.735845060326556 0.23371022030938102
0.59424372234001 13.03965563326338 38369.070343724816 11.25927008939474 0.237029464048189
0.6146685581725085 13.024619999084592 32939.10300881607 11.805105119258542 0.2403915518719022
0.6354619757288027 13.012506533645551 28326.9745732393 12.37432777689349 0.24379811425742084
0.656623748043904 13.003089337194442 24401.538577446412 12.967673863057188 0.24724763579738326
0.6781462550090593 12.9960299663155 21053.273828235877 13.586375771250225 0.2507438524846489
0.7000251905575028 12.991095412670402 18059.254103062747 14.231674135593229 0.2542899082309497
0.722247685288945 12.988017078323043 15748.900469266697 14.904756845060266 0.2578877842190259
0.744825786299436 12.986670005530698 13652.058877716026 15.60671429880144 0.26153799445867015
0.7677376222975264 12.98674744739147 11851.86477580358 16.338689829284093 0.26524121580637383
0.7909708050509496 12.988122811475527 10303.530454980493 17.102355522366835 0.26900272805855197
0.8145330255448364 12.990630128735244 8969.461369359822 17.89916405259131 0.27282495912330224
0.8384047111822354 12.994094417049453 7818.177532388056 18.73055633702008 0.2767096778544958
0.8625758360371724 12.998353010579116 6824.546085576977 19.597723267421404 0.28065600365563026
0.8870397230502421 13.003288470103355 5964.410524112157 20.50282064839356 0.28467095510726503
0.911789092458835 13.008788250421812 5219.093929874845 21.44763944616975 0.2887575392773678
0.9367981658748328 13.014677257159102 4572.372215583207 22.43375983735309 0.29291646228512935
0.9620629016864659 13.020868023508298 4010.8757215357687 23.463011295746313 0.2971499657276313
0.9875797407210136 13.027250128128378 3522.2365981153534 24.53790532659603 0.30146490235177287
1.0133155092561146 13.0337177898988 3097.107884721449 25.660497419540064 0.3058637584377396
1.0392628369765082 13.0401632499555 2725.9863446200106 26.832517022913194 0.31034609245280026
1.065406765782458 13.046495268080488 2402.2485638397184 28.057166118023808 0.3149214601366165
1.091724771313892 13.052617718065395 2119.332434729303 29.33663181180641 0.31959123180231597
1.1182123081378248 13.058456644352843 1871.778254663115 30.673398015781085 0.3243582470652008
1.1448335298369268 13.063927379142324 1654.9634512278922 32.071093302260394 0.3292321366801408
1.171585670436928 13.068940516849816 1464.6620512795457 33.53149537588295 0.3342095470473215
1.1984359582891297 13.07341340572433 1297.772212601405 35.05914368970468 0.33930408210072505
1.2253683910713913 13.077279955741082 1151.1949295599609 36.65627935951845 0.3445138666699955
1.2523545590986163 13.080446240423639 1022.0664691607434 38.32760815338743 0.3498512616554051
1.2793866483480374 13.082897973001268 908.4311929550666 40.07570000285174 0.35531484377155687
1.3064224492054375 13.084508659488153 808.2865900863342 41.905867586452864 0.36091825092929997
1.3334504774396434 13.085228915021526 719.9392391967688 43.821356156205766 0.36666213891610816
1.36045133293907 13.085041503849029 641.9436485841077 45.82727340772367 0.37255662026820885
1.387375472624909 13.0838032285389 572.9408716762238 47.92873064582255 0.3786104531102761
1.4142230684666013 13.081535486963988 511.8308850399519 50.13021985354393 0.3848279769891277
1.440948566374347 13.078124131564078 457.7779894674673 52.43744289298091 0.39121870119556923
1.467528666402052 13.073532565338871 409.8248351339318 54.856558431077126 0.3977930218763445
1.4939343162254035 13.067688097505862 367.2759424494358 57.39374051421112 0.4045599735224609
1.5201415010569381 13.060572474199184 329.5005663227712 60.05559988165887 0.41152929853405334
1.5461206422498912 13.052115269861073 295.9007180727346 62.84922326354472 0.41871150547130526
1.5718346137308898 13.042266656424667 266.02043736982336 65.78221643912434 0.4261179320556484
1.59725093019794 13.030962595810161 239.41056149410937 68.86275143682272 0.43376081347723744
1.6223419907687364 13.01818910559683 215.6864992581121 72.09961830485136 0.4416533566327671
1.6470945106587382 13.0038812587907 194.50691215506217 75.50228193497465 0.4498098209930968
1.671448041643072 12.987991855590334 175.60636831510823 79.08094448290369 0.45824560688400295
1.6953814216671614 12.97048682573217 158.7032858600905 82.84527460392738 0.46697185395313506
1.718845708589125 12.951275235114943 143.5889996227012 86.80809557708368 0.47601058836052945
1.7418632464849773 12.93044030196504 130.0647346802137 90.98145097013506 0.48537810487630323
1.7643428092770055 12.907829252925138 117.93446777922452 95.37855818553024 0.49509293848570674
1.7862715150304094 12.883433299281656 107.05670508639444 100.01390642880907 0.5051759437220794
1.8076151616539504 12.857219154147698 97.2967478608396 104.90354811638747 0.5156510651896551
1.828344755570597 12.829171734211425 88.52204336359942 110.06359133212709 0.526539345940975
1.8484230513791116 12.79923176988823 80.63845235808391 115.51225563482633 0.5378665062233376
1.8678215188306984 12.767383792648388 73.54263103300745 121.26952556942351 0.5496611608702341
1.8865020446350271 12.733596178017297 67.15325992161456 127.35665202826087 0.5619526272567199
1.90443703398602 12.697835764314894 61.389614339480616 133.79655204133198 0.5747720446620153
1.921576447108759 12.660023314861819 56.19405890570793 140.61373077269295 0.5881517072470922
1.937930278285645 12.62029042279656 51.505511422254195 147.83631527096358 0.6021316894981068
1.9534339681832 12.578478383647425 47.26537446299311 155.49332903547958 0.6167497551330298
1.9680722304940765 12.534627088500232 43.435880446394506 163.61724670227883 0.6320497052873918
1.981809641417489 12.488698710850299 39.96528562337476 172.2424735260737 0.64807551266108
1.9946166421050289 12.440691117104672 36.82394928669691 181.40804386901704 0.6648797462390934
2.0064721909986267 12.390592976971195 33.9760510185054 191.155640542097 0.682516057581256
2.017355497714728 12.33842785357901 31.396987017641205 201.53112687741057 0.7010434566788597
2.0272095383372717 12.284102129601562 29.052820117563197 212.5849960222763 0.7205267765049064
2.0360343614783822 12.22767955808029 26.92556680156064 224.37107660332896 0.7410313258509312
2.043820609179058 12.169203357013304 24.993312647564046 236.95178069293928 0.762638799296871
2.050510057244981 12.108580991626058 23.23589983107704 250.39227255447983 0.78542676698567
2.0558877708904473 12.046582793417565 21.665930285987372 264.8811829893016 0.9464799192987515
2.058413530331852 11.984912590944756 20.3954215149024 281.1127811519047 1.2312306383015037
