M[M_sun], R[km], Lambda[1], P_c[MeV/fm^3], rho_c[fm^-3]
0.24162668629717493 15.618656898711224 2160425.4255784233 3.5677272577965504 0.1711233750220791
0.2536418991337613 15.277371435227039 1723222.2362829924 3.78480112721695 0.1738879427239713
0.26603773424127347 14.981303481686023 1383088.3350354019 4.011362640281187 0.17666619171287223
0.2788111252773245 14.723616094252185 1116501.845082256 4.247668463523387 0.17945682119601356
0.2919648961469784 14.498481180986246 905996.3551929155 4.4943434730170155 0.18226639180929433
0.3054990729436234 14.301295856583144 738681.4752644815 4.751541483348518 0.1850905747619034
0.3194138590800333 14.128231707706266 605147.6583354538 5.019947715235362 0.1879360533737408
0.3337100897269678 13.976038836827064 497722.3936791803 5.299782160919436 0.19079937127085078
0.34838997340442923 13.842115722799349 411065.9573679353 5.591778118708908 0.19368691999408025
0.36345169795554966 13.724061649612757 340701.0248239409 5.896096944764736 0.19659365324392347
0.3789032057642006 13.620082535186322 283349.4310559116 6.213605130782458 0.19952730263906415
0.39473309626643305 13.52854593211061 236445.53977382573 6.544564206666145 0.20248411991283483
0.4109561473063859 13.447951769321705 197902.77036486924 6.889668318158391 0.20546767705240657
0.42756309639728657 13.377121225701512 166112.59592465695 7.249626113155163 0.20848111363047173
0.44455554917605883 13.314997721615821 139831.91706665073 7.624702514629908 0.21152007191132716
0.4619354857279242 13.260630243941607 118013.54465118244 8.015834579629823 0.21459052977397777
0.4796963883401483 13.213230704531448 99843.43846778145 8.423732592484054 0.21769422237216285
0.4978517955731064 13.172051679984921 84666.55552069547 8.848845548102446 0.22082873595081304
0.5163877440076848 13.136462790541978 71957.85957923005 9.292030418969125 0.22399724855217526
0.5353036494218296 13.105896874799104 61295.24806094297 9.754179365678175 0.22720278993800136
0.5546083381908886 13.07987053846318 52315.660355516375 10.23610166578942 0.2304467105462577
0.5742885535190682 13.057876698858797 44744.11125524268 10.738279759828284 0.23372585183435762
0.5943427484665523 13.039552333012104 38340.25116923698 11.261935694548425 0.23704611879742682
0.6147769088218561 13.024528776626118 32912.43345251428 11.80801737095085 0.2404092632211761
0.635575216036101 13.012461846291194 28303.24929206284 12.377503397779527 0.2438169173443276
0.6567454524015809 13.003048958310746 24379.56219083447 12.9710982705951 0.24726720830662557
0.6782744525394894 12.99598974033302 21035.055864100304 13.59009757919256 0.2507645745141398
0.7001597923841916 12.991073337658023 18179.022073282387 14.235713291586377 0.2543118208493436
0.7223911433206757 12.988002766945376 15734.918090849402 14.90913457808754 0.25791093094374007
0.7449758287230276 12.98665509038699 13639.443374638357 15.611410499420373 0.26156199832112115
0.7678912735228555 12.986752759083021 11840.206515292706 16.34376807466333 0.26526652958592145
0.7911349750539223 12.988131105461099 10293.097179428136 17.10784128860314 0.2690294034821228
0.8147058172029105 12.990648716920683 8960.202439241502 17.90508450437567 0.2728530512436864
0.8385842287604507 12.994123923161082 7810.349251013626 18.73688521897097 0.27673875579240864
0.8627632250093242 12.99838287353614 6817.424261689282 19.60454284351233 0.28068659879266866
0.8872330771451786 13.003338663336535 5957.700461500186 20.510163727077643 0.28470313361662103
0.9119926588255141 13.008821451614313 5213.51943120828 21.45554108195537 0.28879137179359093
0.937009463102402 13.014711162462612 4567.236580228567 22.442187121820837 0.29295146442704023
0.9622841829239275 13.020915377090045 4006.4662578178786 23.472069947975676 0.29718675560592256
0.9878061612338017 13.027307710844182 3518.210707671209 24.547637965983448 0.30150356550775825
1.013545643212928 13.033768683451429 3093.5613878309914 25.670866381585363 0.3059037742592218
1.0395059404390254 13.04022219826985 2722.793018604718 26.8436490228055 0.3103881471438592
1.0656563961723091 13.046560976361711 2399.335868421934 28.069113240561126 0.3149656577378891
1.091982734546681 13.05267711984312 2116.936442391575 29.349351726071824 0.3196370156836043
1.1184777665020353 13.058514828483982 1869.529094420208 30.687042524352904 0.32440637895332997
1.1451060256245822 13.063969203639704 1652.9215806368588 32.08566428963558 0.3292823419027715
1.1718648147604955 13.068988421577869 1462.8806243719266 33.547070335446094 0.3342620362668948
1.1987177768622448 13.07344124252498 1296.087495150256 35.075842500363684 0.33935930054051655
1.2256614040603615 13.077318312741161 1149.651221132066 36.674053578734956 0.344571203549798
1.2526537348927216 13.080482701819356 1020.7459355397873 38.34666219354712 0.3499116206775701
1.279691632946186 13.082929190597222 907.1167544896248 40.095984211404065 0.3553775963363015
1.306734396588283 13.084517442160921 807.2020942777583 41.92746577307273 0.36098354551956274
1.3337688322329513 13.085232721083708 718.9338907418329 43.84451036040291 0.36673096518545467
1.3607737672486744 13.08503709201502 640.9669076057841 45.851935132516985 0.37262833321386574
1.3877036605146211 13.083782815464087 572.1307789546095 47.95500518014002 0.3786852389165478
1.4145583479009387 13.081499336083118 511.1235746325234 50.15839516540386 0.38490692731794274
1.4412800546606401 13.078053968233762 457.1266531956501 52.46747427362412 0.3913011561150295
1.4678728737119175 13.073461419301115 409.26030192003867 54.88857879199482 0.3978792149291986
1.4942799948929213 13.067603443076582 366.74510032058384 57.42789352974602 0.4046501563001301
1.5204904009187157 13.060468788309066 329.0341159206836 60.09204095231824 0.4116237421582519
1.5464734415850188 13.051991556206575 295.4764223326979 62.88812057540286 0.41881050222245764
1.5721888167060738 13.042118673659708 265.625480426529 65.82375213001123 0.42622179716384584
1.5976097514648857 13.030803263835207 239.05239593579674 68.90712288129737 0.43386988709333024
1.6226920014723418 13.017963436582807 215.37416840470237 72.14703953143267 0.4417680059992847
1.6474496018121658 13.003665364635063 194.21891167263504 75.55298519077395 0.44993044283706163
1.6717985206928228 12.987743553048523 175.3424018976576 79.13499559809667 0.4583718517577029
1.6957374080884287 12.970206961816949 158.461869715112 82.9030434158089 0.46710460651458874
1.7192007144393315 12.950969782287304 143.37936155185395 86.86995752202711 0.4761506752291703
1.742205376523419 12.93008518105731 129.86510191880456 91.04743180410753 0.48552488794522003
1.7646861267479466 12.907449650741174 117.75165096638838 95.44929314626069 0.49524814678389856
1.786614089937843 12.883029864703413 106.88839272893942 100.08945709554365 0.5053389787832198
1.8079550542425034 12.856788040544858 97.14587302661508 104.9843060400251 0.5158225548097748
1.8286678609341869 12.828671213624508 88.38655246035277 110.150325053409 0.5267212402958612
1.8487501945050187 12.798720027854653 80.51471496305841 115.60510113596072 0.538058292990162
1.8681400293847763 12.766834354456861 73.42824196742548 121.3689931696833 0.5498636404535541
1.886813388016672 12.733001412374504 67.05265232625617 127.46329984050169 0.5621666685649295
1.9047401622699554 12.69720286978604 61.297597982345806 133.9105990302047 0.5749972088293258
1.9218859653187765 12.659409685663698 56.10925110597253 140.73622314009125 0.5883903689602772
1.9382047191502776 12.61953719013184 51.4249027346989 147.96798608833186 0.6023849648663464
1.9537081652761787 12.577725453949448 47.19716791513431 155.63455010013442 0.6170173831869785
1.9683293729655145 12.533812037438619 43.36629024690043 163.76931680371789 0.6323344465202342
1.9820536796324024 12.487837615177796 39.90239179270753 172.40590071579405 0.6483772630981394
1.9948480590538293 12.439781570871581 36.768768674743974 181.58386378857156 0.6652000046604433
2.0066872845406185 12.389630182500198 33.927133969892324 191.3449941768722 0.6828564608814467
2.017545547472703 12.337395238385369 31.346836195600442 201.73527281862678 0.701405795587182
2.0273901431358463 12.283035280664969 29.008794406578364 212.8048097741287 0.7209113275127331
2.0362091635463426 12.22659275867134 26.88625194631061 224.60859120420818 0.7414418754929717
2.0439623242417544 12.168024528794788 24.957092068430757 237.2081525474859 0.7630759368595926
2.050631979613276 12.107345475715263 23.20166632472983 250.6699086489605 0.7858947986844066
2.0562083070063863 12.044603981819169 21.605604868428454 265.0670951584377 0.8099872475884334
2.0606730005796257 11.97980211341851 20.1536925673542 280.48158359936826 0.8354536129849855
2.0639943769090596 11.91294741359524 18.832595576546204 297.0024484926414 0.8623989627475749
2.0661599945526974 11.84406000516518 17.62858549346364 314.73018372265057 0.8909444282542325
2.0671647185898436 11.773197226544994 16.532510498080626 333.77430222700536 0.9212165318026466
