M[M_sun], R[km], Lambda[1], P_c[MeV/fm^3], rho_c[fm^-3]
0.24162668629717493 15.618656898711224 2160425.4255784233 3.5677272577965504 0.1711233750220791
0.25364164883535095 15.277364938982762 1723151.607731795 3.784797475908061 0.17388789721216744
0.26603773288685506 14.981297243218139 1383079.5599264218 4.011354964551098 0.176666098956204
0.2788110270747682 14.723596130571991 1116474.6724293462 4.2476565037416 0.17945668248056784
0.2919637827350194 14.498508536438415 905974.478800856 4.494326915402936 0.18226620743641872
0.30549828897322623 14.301295990602929 738766.7752787592 4.751519765756397 0.18509034017045986
0.31941244051834106 14.12824678716107 605170.8834829661 5.019920677744369 0.18793577284933624
0.3337090206657915 13.976040960157368 497727.7305642777 5.29974909178064 0.1907990383194947
0.3483878528152032 13.842090844744508 411059.413227813 5.591738935414978 0.1936865408849325
0.36344842326297483 13.72409227086987 340704.4515475451 5.89605076709787 0.19659321953350403
0.3789007575843447 13.62009360514331 283357.53613346594 6.213551400014421 0.19952681267915573
0.3947302106036965 13.52856000398932 236452.61701207052 6.544502978641096 0.20248358302577016
0.41095298375752204 13.44799099663423 197914.62799436838 6.889598410993175 0.2054670816936522
0.4275591179174587 13.377164899266873 166128.88484486038 7.2495468709562765 0.20848045808006838
0.4445519674002922 13.315025090107286 139843.39047073128 7.624614156467762 0.21151936852354236
0.4619297622509371 13.260658128802442 118009.3191903835 8.01573556448796 0.21458976381180517
0.47969212487349433 13.213238240138878 98776.12848759165 8.423622148386917 0.2176933919869504
0.4978466942934845 13.172056106561044 84668.14965231923 8.848724082318139 0.2208278564866363
0.5163820180494928 13.136477162048601 71959.73714548955 9.291895966016353 0.2239963019950056
0.5352977503360367 13.105901697486692 61296.084128157156 9.754031014087534 0.22720177424448476
0.5546012328085144 13.079885707527838 52317.2267133475 10.235938448713718 0.2304456235842047
0.5742796192969584 13.057918697036541 44343.73859373025 10.738102386467029 0.23372471304243497
0.5943347995147981 13.039579964692521 38344.088466098976 11.26174149777259 0.23704490545245716
0.6147686191503854 13.024535357753983 32914.31655463372 11.807805203740998 0.240407972890547
0.6355670885154604 13.01245575406907 28304.694579501946 12.377272041565323 0.24381554746701595
0.6567357785579949 13.003043414288415 24380.38456477928 12.970848787787537 0.2472657823652028
0.6782648766446464 12.996005817484361 21036.989720932514 13.589826427522933 0.2507630648142892
0.7001497586947397 12.991076215504288 18180.248443635566 14.235419017446064 0.25431022439777035
0.7223805296529013 12.988008237800198 15735.75000722097 14.908815634481781 0.2579092445686697
0.7449650582917324 12.98665508039673 13640.461989224366 15.61106835152151 0.2615602494880178
0.7678816802716361 12.986759697216439 11841.107376352971 16.343398089702077 0.265264685303685
0.7911232006419957 12.988124512521718 10293.911399616856 17.10744161004478 0.269027459980636
0.8146922137097903 12.99065859249937 8960.67677743717 17.90465315261377 0.2728510045104193
0.8385720126340288 12.994115092856875 7761.0666115693475 18.736424107084716 0.276736637221877
0.8627498657763695 12.99838319449529 6818.011019149595 19.604045976810763 0.28068436966513616
0.8872220819974669 13.003324912812346 5958.189974810006 20.50962871460969 0.2847007891090315
0.9119777946334598 13.00882143658433 5213.915092162677 21.454965369062386 0.28878890675770214
0.9369933884720243 13.014717056523788 4567.5938189330245 22.441573106483865 0.2929489141568978
0.962268666372973 13.020911455998641 4006.747674187318 23.471409925975397 0.2971840750604678
0.9877897291904333 13.02731104659195 3518.4105902328843 24.546928831275306 0.30150074845220487
1.0135281938179794 13.033760517415503 3093.826236627405 25.670110878827654 0.30590085862857813
1.0394876929426535 13.040221152465937 2723.0304484670764 26.84283791740284 0.3103850829337033
1.065638939375124 13.046553118415977 2399.565137046996 28.068242736539254 0.314962437364988
1.09196322353844 13.052670612492276 2116.9827610784096 29.348424908257773 0.3196336797085428
1.118458477788414 13.058510848414572 1869.6991441999387 30.68604832949824 0.324402871866558
1.1450854660063974 13.063973002532748 1652.9415617085158 32.084605962137175 0.32927870559372807
1.171845665624807 13.0689834446914 1463.0287153659744 33.54593546361263 0.33425821163180586
1.1986968061328618 13.073439886054985 1296.2440010235175 35.074625729032604 0.3393552770075921
1.2256407363140993 13.077309708536976 1149.7461586877287 36.67275843834144 0.3445670256273719
1.2526322243720527 13.080483405995235 1020.8011771598626 38.34527378583344 0.3499072225063024
1.2796702955378305 13.082926191958896 907.2936127638903 40.09450615508417 0.35537302372383445
1.306712078608395 13.084512389879109 807.2876048616696 41.92589195971467 0.3609787876433496
1.3337454682578913 13.085226936280037 719.0096411186927 43.84282314873857 0.3667259499198266
1.3607509651691123 13.08503551714028 641.0580695352356 45.850138057182306 0.3726231075629067
1.3876798704172852 13.083788601262315 572.1867218292559 47.95309056694441 0.37867978930934254
1.4145337404636114 13.08150189637291 511.1770888354126 50.15634202477115 0.3849011741916291
1.4412546498567973 13.078059189920875 457.1649441135209 52.465285864223254 0.39129514756274086
1.4678486147475376 13.073465396464142 409.29728396567975 54.886245425968724 0.39787293392750306
1.494254849300925 13.067608912874269 366.78804925245964 57.425404734615405 0.4046435845097798
1.5204664048482868 13.060474641972643 329.07351743300364 60.08938540074297 0.41161685981614515
1.5464480371295755 13.0519989490236 295.50284719487104 62.88528600793611 0.4188032880228966
1.5721621510856834 13.042132229237732 265.6543020655999 65.82072527006513 0.4262142281279375
1.5975849641048692 13.030814647820506 239.08804579562664 68.9038893414467 0.4338619384252518
1.6226666148701014 13.017985058620386 215.38839698521136 72.14358371007242 0.4417596509279735
1.6474241542638215 13.00368064587136 194.24333096796641 75.54929015802664 0.44992165244172183
1.6717732419625848 12.987761627074471 175.35097288314967 79.13106225833005 0.4583626753210277
1.6957114725915319 12.970227258056925 158.47707129965974 82.89883340331905 0.4670949319181486
1.7191746618410726 12.95099221079608 143.3893458891637 86.86544917060851 0.4761404660313583
1.7421795267531857 12.930110844390999 129.88121503500804 91.04262323697382 0.48551419065331747
1.7646604345971324 12.907476567199271 117.7639034179592 95.44413805376583 0.4952368353598886
1.7865901597148417 12.883057083035517 106.90037795439089 100.08395098940379 0.5053270968450456
1.8079306710586505 12.85681954203364 97.1565572854633 104.97842037576088 0.5158100565893728
1.8286439237833647 12.828705019520303 88.39604060788872 110.1440038008431 0.5267079836277446
1.8487262285919603 12.79875767773898 80.5228720732903 115.59833438249383 0.5380443152125265
1.868115648119198 12.76687257607568 73.43588458745677 121.36174371067015 0.5498488832116336
1.886791384144415 12.733043839019308 67.05747496560119 127.45552698624452 0.562151068508456
1.9047180182824974 12.697249433630292 61.30158192306696 133.90228681891483 0.5749807979433209
1.921865513072163 12.659458705405594 56.11493914567151 140.72729529372612 0.5883729741204695
1.9381844626521607 12.61958983009446 51.42957095061542 147.9583891589473 0.6023665046951981
1.9536890222542544 12.577779116201837 47.20333578168729 155.62425698237394 0.6169978766984668
1.9683108996961747 12.533871231355912 43.371478536934774 163.7582327984704 0.6323136924516228
1.982034926118239 12.487902009603784 39.90866424065982 172.39398878227502 0.6483552690153204
1.994830529671397 12.4398473339954 36.771815641213614 181.57104841461452 0.6651766612790853
2.0066695769855287 12.389701072035548 33.92713530733694 191.3311921676783 0.6828316488439886
2.0175309703670603 12.337469972646167 31.35082048387954 201.72039240231885 0.7013793843160674
2.027376954411687 12.283115320432955 29.012356415829707 212.78878711548634 0.7208832968300436
2.0361965035480285 12.226675556775616 26.88938767161954 224.59127805243918 0.7414119492979713
2.0439519949590443 12.168110358690047 24.959465429788505 237.1894645817013 0.763044072161224
2.050623330338176 12.107434874650671 23.204360636984635 250.64967034237674 0.785860681474151
2.056201024420931 12.044697993357296 21.60838720682309 265.04519633165205 0.809950806668367
2.0606679256649256 11.979899986617829 20.156695638073057 280.4579004771161 0.8354147671522936
2.0637716597462257 11.914163149335218 18.865757689862328 297.17363020767164 1.0939553073277044
