M[M_sun], R[km], Lambda[1], P_c[MeV/fm^3], rho_c[fm^-3]
0.24162668629717493 15.618656898711224 2160425.4255784233 3.5677272577965504 0.1711233750220791
0.25364440882942557 15.27729093902454 1723203.8508057336 3.7848459023205088 0.17388850082403692
0.26604250424536907 14.981225180775413 1382928.2262207035 4.011456766727265 0.17666732917542344
0.2788198025863685 14.723419580982911 1116305.8864064722 4.2478151260054355 0.17945852225978967
0.29197551942697225 14.49833868302286 905846.1253202565 4.494546520327723 0.18226865278822388
0.30551433721096843 14.301095357987288 738627.0949360966 4.75180781017931 0.18509345159996834
0.3194305777874621 14.12804145011811 605021.6171177628 5.0202792836818215 0.1879394935243465
0.3337317143344452 13.975843367877806 497607.43307340576 5.300187700605068 0.19080345438257307
0.3484140645428456 13.841917191167099 410936.4173727115 5.592258642436703 0.1936915691933342
0.3634795645425273 13.723854580409105 340610.82842151244 5.896663248552926 0.1965989720889448
0.378934192606827 13.619920454338121 283245.2792897959 6.214264068074592 0.19953331135375627
0.3947690545882999 13.528348804412827 236365.25803376056 6.545315093586149 0.20249070417672474
0.4109961403980177 13.447775312908684 197824.6174399613 6.890525651014548 0.20547497845877538
0.4276066836744474 13.376958294449782 166035.7231870999 7.250597937472555 0.20848915328399228
0.44460473815864493 13.314828570366096 139772.28313413306 7.6257861446359065 0.2115286983029467
0.4619861970383649 13.260476495426614 117945.10268266137 8.01704891703457 0.21459992365555314
0.4797551385882193 13.213089882470035 99776.35102507833 8.425087106996672 0.21770440642772118
0.49791553637101726 13.171904840642338 84615.35514157823 8.850335245623668 0.22083952199736545
0.516457218293845 13.13633081722301 71919.27607266128 9.293679408241896 0.22400885753945807
0.5353766709924648 13.105797570273337 61256.29099727016 9.755998827857818 0.22721524693918066
0.5546877514249923 13.079759979868465 52287.33716180447 10.23809951674915 0.23045999100337253
0.5743731712085084 13.057789539694605 44713.83832759734 10.740455191317771 0.23373981877838448
0.5944320206049403 13.039490422044512 38313.53499819607 11.264317478310812 0.23706100022547566
0.6148729278577667 13.024467127076784 32890.16636969642 11.810619578163926 0.24042508898271844
0.6356818606871311 13.01241818247659 28281.664178924464 12.380340977517523 0.2438337188645131
0.6568536606114533 13.002992095742245 24360.64457313715 12.974158192194249 0.2472846975637064
0.6783884553028005 12.995960544537423 21018.820956857155 13.593423295794855 0.2507830912131686
0.7002803647988982 12.991041777209587 18165.061212552497 14.239322636095258 0.2543314017194584
0.7225182533981396 12.98799844850571 15722.514460719582 14.913046529243926 0.25793161490412503
0.7451091122962731 12.986651089245806 13628.008058545141 15.615607085352492 0.26158344848470066
0.7680327114907413 12.986765112103202 11831.082635083043 16.348306128061783 0.2652891506439296
0.7912823951287945 12.988147466405396 10285.03006720793 17.112743586263257 0.26905324169558664
0.8148583287172424 12.990676713472995 8951.970447903868 17.910375333218006 0.27287815584823094
0.8387454721017672 12.994139495443711 7803.8521315954295 18.74254111161978 0.2767647416926925
0.8629290493859031 12.99841574735276 6768.45011214167 19.6106373431983 0.2807139409691598
0.8874148780004388 13.003382001936409 5952.58155229649 20.516726168093687 0.28473189125067594
0.9121737020909674 13.008874845537179 5208.5855022817805 21.46260280740511 0.28882160805698287
0.9371960728874464 13.014763647406914 4562.7893806344355 22.449718714427135 0.29298274637488825
0.9624844934740348 13.020978345034647 3979.8582784437644 23.480165927687484 0.2972196357850822
0.987992410131164 13.027356955432337 3514.959179865624 24.576130526430237 0.30131912771317937
1.0048029857815555 13.025283903166962 3216.91128327069 25.86425171044864 0.6683045639595332
1.0097929257742262 13.00454506907381 3091.4411524884204 27.56152979126283 0.9809468746867005
