M[M_sun], R[km], Lambda[1], P_c[MeV/fm^3], rho_c[fm^-3]
0.24162668629717493 15.618656898711224 2160425.4255784233 3.5677272577965504 0.1711233750220791
0.25364417665929134 15.277289867123486 1723228.6980786433 3.7848231348364623 0.17388821703833168
0.26604065720663567 14.981245716518261 1383024.3071344423 4.011408904611308 0.17666675078999838
0.27881578992988704 14.72348742192084 1116382.7211322659 4.247740549677701 0.1794576572867721
0.2919702726092437 14.498387996382235 905829.1697248662 4.4944432725074135 0.18226750309978218
0.30550568501160347 14.301226598502351 738660.107144996 4.75167238473119 0.1850919887466653
0.3194219597873371 14.128138328398267 605088.4910361603 5.0201106826719775 0.18793774422379533
0.3337210182830871 13.975914269403823 497674.6561625618 5.299981484773235 0.19080137813132045
0.3484018130462654 13.842020795328098 411002.6676325558 5.592014296547985 0.1936892050796436
0.36346504098224763 13.723966826316033 340635.7180697904 5.896375282499566 0.19659626745083153
0.3789178615531039 13.61999894148157 283295.8542962468 6.213928996542586 0.19953025590483678
0.3947509587135382 13.528442722188219 236404.10804989756 6.544933264102227 0.2024873560479771
0.4109760502616232 13.447857307242 197859.5847576623 6.890089691686802 0.20547126564619705
0.4275841142029469 13.377071840744259 166079.90097540867 7.250103756699929 0.20848506505310804
0.4445790634798262 13.314920739337627 139796.24396508306 7.625235107947881 0.2115243116965946
0.46196081398940164 13.260570173994081 117978.9949646438 8.01643141212447 0.21459514675584224
0.47972554998693895 13.213148301100226 99804.50535111145 8.424398317925274 0.2176992276968137
0.49788284192956767 13.171980209626327 84640.52702449982 8.849577711787381 0.22083403712872143
0.5164210709044574 13.136405028165193 71935.47475304171 9.292840869189387 0.2240029541722516
0.5353400717181921 13.105839927105546 61275.04043452724 9.755073597204067 0.22720891232037194
0.554646215347884 13.079821478617788 52299.93230319757 10.237085507263586 0.23045326254667783
0.5743290908963968 13.057853679009032 44729.01124819963 10.739348936427362 0.23373271627931316
0.5943870024125454 13.03953973511488 38326.96107782187 11.263106284556242 0.237053432664979
0.6148235978192861 13.0245013896434 32623.326739707387 11.809296289272226 0.24041704117839816
0.6356285599310656 13.012429307720163 28290.588491577342 12.378897990706418 0.24382517483253063
0.6567986977548999 13.003029538947995 24369.98693384957 12.972602133961242 0.24727580377293826
0.6783304896736356 12.995989354694728 21027.230515569987 13.591732067347666 0.2507736749062819
0.700219024121338 12.991051992758297 18172.135894683754 14.23748716789387 0.2543214442148858
0.7224526336742855 12.988008840638516 15729.056248427354 14.911057168952869 0.2579210964063712
0.7450413813180357 12.986649406350752 13634.036262405383 15.613472972519686 0.26157254031551236
0.7679606309622768 12.986758434931382 11836.278713422184 16.345998358970927 0.26527764699382017
0.7912066543780534 12.988145101917548 10288.786135602086 17.11025057680567 0.26904111903479827
0.8147804990413197 12.990672260387411 8955.839714506019 17.90768473119409 0.2728653891340147
0.8386625747339449 12.994136617829684 7807.001688238957 18.739664851638736 0.2767515267662965
0.8628450850354807 12.998402842740175 6814.493835243559 19.607538022253145 0.2807000362707183
0.887325075683589 13.003361955476729 5955.256589838707 20.513388866741142 0.2847172666786923
0.9120821054551657 13.008841974561044 5211.123089590127 21.459011584449094 0.2888062314802567
0.9371023115539463 13.014731884951878 4565.144320357345 22.44588853076234 0.2929668379725206
0.9623854287012193 13.020952200701247 4004.427499461311 23.476048710904497 0.2972029145443822
0.9879065669031575 13.027344565542526 3516.538544230546 24.551912809355596 0.30152054743111234
1.0136477924731773 13.0337888322549 3091.933634886907 25.675420758688308 0.3059213504775855
1.0396127853335453 13.04024245258196 2721.341096718475 26.848538608563242 0.31040661911838646
1.0657631876272482 13.046573469952156 2398.232462617931 28.074360921388084 0.3149850711911345
1.092095254197699 13.052704113524342 2115.6602952779863 29.354938904076413 0.31965712609387603
1.1185934920809382 13.05853935293141 1868.5457622544552 30.693035900533687 0.3244275209761688
1.145224681322466 13.063993293250283 1652.0653410291766 32.09204430380247 0.32930426300304283
1.1719882394368226 13.069008794464406 1461.9984282688713 33.553911819360906 0.3342850927730743
1.1988443486799718 13.073465834152271 1295.480689671668 35.083177741845425 0.3393835561955082
1.2257892324106137 13.077332310422966 1149.001354422715 36.68186129263298 0.3445963900262249
1.252785785859177 13.080491450991259 1020.163508995395 38.35501932133032 0.3499380594612218
1.2798283875466954 13.082938692280775 906.6553271581416 40.10489470309708 0.3554051624207967
1.3068718931641887 13.084526595710559 806.7150646514814 41.93695357442375 0.36101222858044246
1.3339087580380842 13.085238748199366 718.5440613885236 43.8546818371053 0.36676120007451457
1.3609176565936878 13.085032302851934 640.6040525884597 45.862768973318516 0.3726598365512505
1.3878480002451348 13.083775186301843 571.7789575826918 47.96654765593182 0.3787180925286435
1.414705113516136 13.081483451067406 510.80430427252554 50.17077283261389 0.3849416109055124
1.4414288620404907 13.078031138649242 456.8671924629241 52.48066748443853 0.39133737972885696
1.468022878228524 13.073431984576178 408.9973087015506 54.90264595967678 0.3979170812146735
1.4944318149995828 13.067567334089697 366.5092184325726 57.442897798873254 0.40468977583725146
1.5206439876700595 13.060420750152915 328.82801677977216 60.10805062236712 0.4116652341131885
1.546627392920485 13.05193534622892 295.279309720333 62.905209566596106 0.4188539950636795
1.5723442566973072 13.042054434055032 265.45271799691716 65.8420004961354 0.42626742944975327
1.59776771323219 13.030728029703452 238.9134294938213 68.9266173747684 0.4339178083391215
1.6228549846857738 13.01790611901812 215.23050325771425 72.1678742265385 0.4418183776317302
1.6476066305877477 13.003567081394648 194.0954980333981 75.57526217175575 0.44998343924689044
1.6719564818065669 12.987632722224278 175.23169772987956 79.15870940962016 0.4584271758086836
1.6958922101892677 12.970083962795915 158.35309200709125 82.92842540014557 0.46716293424067007
1.7193731790060782 12.950873530626968 143.27496386748237 86.89713832560217 0.47621222637605803
1.742354821579359 12.92993306877251 129.77607692891544 91.07642274122522 0.48558938210912655
1.764837958526262 12.907288004692566 117.67290027415173 95.48037346735327 0.4953163439482742
1.7867645635465168 12.882853412590281 106.81514608559667 100.12265386221388 0.5054106159654932
1.8081037980353463 12.85659660581276 97.0833196809291 105.0197913772175 0.515897907997683
1.8288137900882704 12.828462704964622 88.3272501483346 110.1883266966618 0.5268007568513478
1.8488937447317326 12.798497326286885 80.46311631545225 115.64589913459533 0.538142567577034
1.8682705998843627 12.766558460252002 73.38238693816623 121.41270173709935 0.5499526150794101
1.8869493224464813 12.732740317979747 67.00574211470557 127.51016434696258 0.562260725255458
1.9048736846663061 12.696924999235506 61.25404969777614 133.96071572304982 0.5750961547420971
1.9220149121427175 12.659110175824457 56.07274235447552 140.79005200988396 0.588495248068718
1.9383283449591753 12.61922294103307 51.390991477190624 148.02584945025805 0.6024962679218931
1.9538256714617492 12.577380141351199 47.16066678469276 155.6966114042648 0.6171349955707297
1.9684425150428768 12.533451664732791 43.33768206886618 163.83597745424026 0.6324590076293324
1.9821575509147162 12.487454830185573 39.87866561475306 172.47772346266675 0.6485098759473031
1.9949476639756745 12.439380134082565 36.743377412657395 181.66113432695926 0.6653407540175331
2.0067841625468192 12.389221306865213 33.900925251847106 191.4282142289313 0.6830060665671077
2.017632575129969 12.336949328322442 31.327882770418668 201.82499583844108 0.7015650450969062
2.0274688836730266 12.282565693904948 28.991359277850734 212.90142072538993 0.721080342591915
2.0362796924842894 12.226102338361898 26.8681385794915 224.71298418187382 0.7416223212401111
2.044025128357387 12.167509144796675 24.941824011976454 237.3208360708286 0.7632680726181768
2.050685013446751 12.106805409604322 23.186750835359188 250.79184594098672 0.7861002075778377
2.0562584554321957 12.044061586685697 21.592979709552097 265.1991414987245 0.8102069803704013
2.0607074578926152 11.979213987082735 20.14216062437171 280.62439007407795 0.8356878488414253
2.0640123709400493 11.912319566849508 18.81991596209875 297.1573820994487 0.8626499829517791
2.066175223128174 11.843422040544528 17.618369166652514 314.8984884014574 0.8912138509420197
2.0671697492847523 11.772533130779358 16.523079194130254 333.95708788589815 0.9215052271500525
