M[M_sun], R[km], Lambda[1], P_c[MeV/fm^3], rho_c[fm^-3]
0.24162668629717493 15.618656898711224 2160425.4255784233 3.5677272577965504 0.1711233750220791
0.2536442097678702 15.277282803582096 1723167.4773555663 3.784823583136728 0.17388822262617823
0.2660402696511338 14.981274264198314 1383016.8157863773 4.011409847030293 0.17666676217857563
0.27881563583660546 14.723478249812988 1116465.4657056688 4.247742018101348 0.17945767431827353
0.29197032470460194 14.49839796051777 905873.543533184 4.494445305470797 0.18226752573730126
0.3055056097579583 14.301223373787202 738629.5008133597 4.751675051265717 0.18509201755032734
0.31942179973074447 14.128124823849404 605095.6728610786 5.020114002422606 0.18793777866748942
0.3337217516095748 13.975900676267779 497679.9135035762 5.2999855451431825 0.19080141901250844
0.3484020540474883 13.842018762047708 411001.40049624164 5.5920191076776256 0.19368925162864636
0.36346549548254303 13.723961229213357 340633.97197203006 5.896380952481375 0.1965963207045006
0.3789185783276437 13.619994013290015 283305.59521786077 6.213935593994936 0.19953031606565835
0.39475123336983436 13.528433757492252 236391.8425441082 6.544940782177928 0.20248742197134456
0.4109764546158145 13.447855413334826 197862.13621660357 6.890098275526539 0.20547133874977833
0.4275845179225336 13.377046122095694 166079.40015430673 7.25011348685747 0.20848514554820774
0.4445796829723982 13.314939050783225 139798.49598213486 7.625245957532531 0.2115243980662647
0.46196138069135545 13.260588573970423 117981.15043929873 8.016443570384874 0.21459524080981598
0.47972612970766526 13.213147717050608 99810.62290550627 8.424411879674482 0.21769932966220878
0.497883544063647 13.172003964847951 84642.67324160793 8.84959262702314 0.22083414512140112
0.5164216822997256 13.13640076491756 71934.83213122685 9.292857379294396 0.22400307040442013
0.5353412646183671 13.105861692650539 61276.82749333408 9.755091814126805 0.2272090370430678
0.5546483431649348 13.079812500222566 52300.39213928585 10.237105549755157 0.2304533960218531
0.5743299833266376 13.05783957044032 44325.470489431216 10.739370717404233 0.23373285611993158
0.5943877546459061 13.039517700613077 38327.816899058955 11.263130131583681 0.23705358166163798
0.6148247399992818 13.024514796496659 32899.74505086407 11.80932234323431 0.2404171996299577
0.6356296194331502 13.012428734822898 28291.029416647212 12.378926401276823 0.24382534305362616
0.6567997655100661 13.003026353639191 24369.57579837046 12.972632770673691 0.24727597887982344
0.6783318364017319 12.995980429589896 21027.793858979145 13.591765365265564 0.2507738603001677
0.7002202457892157 12.991051608187835 18171.96147102333 14.237523305564517 0.2543216402635128
0.7224519752300516 12.988007746827266 15728.68821782705 14.911096336395905 0.2579213034994068
0.745041804391903 12.986652353668243 13633.504290798477 15.61351498979629 0.2615727550799592
0.7679640089814657 12.986759669568382 11836.005453193447 16.346043795103686 0.2652778734815462
0.7912079034212501 12.98813901907281 10288.553319273686 17.11029965984124 0.2690413577089793
0.8147837575861219 12.99065615398531 8955.96420055707 17.90773770429875 0.2728656404876086
0.8386650728130659 12.994132592470057 7807.180970520438 18.739721479851447 0.27675178694363367
0.8628478218977497 12.99840600538653 6814.474040217107 19.60759904190625 0.2807003100274187
0.8873268107186256 13.003356754223168 5955.062273214213 20.513454571536457 0.2847175546072931
0.9120837809909007 13.008854223952435 5211.0273602143725 21.459082288200992 0.2888065342132474
0.9371035883009953 13.014737788728446 4565.085980507739 22.445963938938053 0.2929671511751516
0.9623875190497369 13.020954115022525 4004.3333535955667 23.47612976985998 0.29720324374888535
0.9879084718085083 13.027339459172719 3516.4363029369238 24.55199990064789 0.3015208934034725
1.0136505547312153 13.033787203099466 3091.6804640855275 25.67551354518979 0.30592170855856443
1.039614455308544 13.040246410844812 2721.362274906596 26.848638224653055 0.31040699545003597
1.0657655648283806 13.046577227956707 2398.2607057576856 28.074467833389793 0.31498546670511773
1.092097841820668 13.052703776537241 2115.720176036955 29.355052733063992 0.31965753580834
1.1185961879016115 13.058539626302258 1868.5190741132456 30.693158005564552 0.3244279517095774
1.1452271134919318 13.063993789240977 1652.0470727933991 32.09217428633899 0.32930470961023556
1.1719901277202607 13.069006281829438 1462.0045287750668 33.554051204144116 0.33428556251416486
1.198846291708018 13.073461268433515 1295.4317640877741 35.0833271867733 0.3393840503693701
1.2257923100371706 13.077332443161096 1148.9855126595692 36.68202036401371 0.3445969031658754
1.2527888237042908 13.080491111250646 1020.0997537189176 38.35518866474202 0.3499385927073909
1.2798303978934098 13.082937564970756 906.6723921083878 40.10507624338473 0.35540572404579807
1.3068739227956696 13.084524566832247 806.7235168264084 41.93714687733438 0.36101281296442655
1.333911606783879 13.085238383528482 718.5503229361778 43.854889069975535 0.36676181607777786
1.360919830779233 13.0850341015519 640.5868499368074 45.86298970191096 0.37266047840001365
1.3878508274592776 13.083773818185232 571.7767395207978 47.96678282308181 0.37871876189026604
1.4147077852950485 13.081482015380994 510.79506143206225 50.17102501711539 0.3849423175542769
1.4414311224632967 13.078031178567226 456.85098527368 52.480936285940444 0.39133811775707
1.4680259374540352 13.073431349102458 409.0029480782154 54.902932568452655 0.3979178527139527
1.4944349768371463 13.067567924170712 366.5161166677774 57.44320350161271 0.40469058306091105
1.5206473641339873 13.060421842231944 328.81891276081564 60.1083768108087 0.41166607948951905
1.5466305844981159 13.051934277328671 295.27923524545736 62.905557747021135 0.41885488121054276
1.572347784755467 13.042052029647444 265.45330393615524 65.84237229981952 0.42626835919063527
1.5977708478158998 13.030726395277684 238.90649227231475 68.92701456949793 0.43391878472080025
1.6228579691953242 13.01790436145762 215.22252505946543 72.1682987293126 0.44181940394373526
1.6476098507658774 13.003564753683749 194.08401761376842 75.57571606280983 0.4499845190429516
1.6719581046825103 12.987632016835953 175.2237402073897 79.15919257774901 0.4584283030344004
1.6958960046827718 12.970082154828065 158.3524261139857 82.92894255962344 0.467164122671644
1.719376165239585 12.950871699020611 143.27089037354762 86.89769213874648 0.4762134804903487
1.7370499769932457 12.929474745008054 132.23777024110515 91.4985655039945 0.9049041090430618
1.7432625209652681 12.898985372274188 126.35349878924671 97.23934862150416 1.3250553616241343
