M[M_sun], R[km], Lambda[1], P_c[MeV/fm^3], rho_c[fm^-3]
0.24162668629717493 15.618656898711224 2160425.4255784233 3.5677272577965504 0.1711233750220791
0.2536416288239903 15.277367967855982 1723144.581663116 3.784797053264439 0.17388789194411858
0.26603785840828176 14.981283425038402 1383100.1995777057 4.011354076076316 0.1766660882195106
0.2788113509670766 14.723577094121962 1116513.177593589 4.247655119383803 0.17945666642410357
0.2919644718140539 14.498480147008115 905962.8829897823 4.4943249988424006 0.18226618609507236
0.3054965208207944 14.301362151638735 738725.9290584504 4.75151725192504 0.18509031301628348
0.3194122884470077 14.128252227154302 605172.2297495496 5.0199175481319624 0.1879357403783996
0.3337090873238008 13.976101261725546 497757.17921940034 5.299745264002615 0.19079899978012144
0.348387896683025 13.842136160709142 411066.4083557784 5.5917343999218385 0.19368649700278873
0.36344869442966 13.724087795439308 340700.85731189285 5.896045422004975 0.19659316933126042
0.37890053533525553 13.620099527023864 283353.6940554026 6.213545180649804 0.19952675596603903
0.3947298288912188 13.528567165415028 236451.53114111995 6.544495891469496 0.20248352088084953
0.4109526067757523 13.447992677661459 197915.38716024152 6.889590319212645 0.2054670127806536
0.42755871583735233 13.377142580608103 166119.12912616009 7.249537698648251 0.20848038219991474
0.44455140295167306 13.315029210917963 139843.63860057213 7.6246039289904415 0.21151928710624665
0.46192891337098724 13.260662558063645 118014.09926970766 8.015724103470381 0.21458967515156835
0.4796911603090556 13.213245041846653 99840.80465208307 8.42360936447449 0.21769329586980052
0.4978465078952089 13.172085392738897 84671.39649317446 8.848710022652696 0.22082775468865126
0.5163814161071234 13.13647111322466 71960.77280364254 9.291880403096181 0.22399619243107735
0.535296699862791 13.105909101177623 61297.69060013376 9.754013842412052 0.2272016566781049
0.5546005256485252 13.079885796838216 52318.126209550355 10.235919556372655 0.23044549776858317
0.5742786275440522 13.0578990296828 44746.15295422266 10.73808185555037 0.23372458122759035
0.5943342570874123 13.03956335100104 38343.81561497808 11.261719019564744 0.23704476500820776
0.6147682491473616 13.024534306182934 32915.24524904985 11.807780645477532 0.24040782353533058
0.635565515355418 13.012462280712336 28304.880538844318 12.377245262199901 0.24381538890440618
0.6567348653382744 13.00306616579021 24186.894354505064 12.970819910293564 0.24726561731328903
0.6782643613140065 12.995991197323903 21037.259479764496 13.589795041890346 0.2507628900674957
0.7001484301614866 12.991079841921305 18180.533279358187 14.235384955423891 0.25431003960963766
0.7223788617596973 12.987998999231312 15735.470013225642 14.908778717010073 0.25790904937208065
0.744963415926725 12.986644003204713 13640.798612998951 15.611028748191973 0.26156004706206715
0.7678803417936508 12.986752072263 11841.327906508654 16.343355264283428 0.265264471829714
0.7911216936750632 12.988122261887797 10225.186377220629 17.107395347649188 0.269027235022272
0.8146928315679289 12.990654354827393 8960.894846235275 17.90460322410833 0.2728507676032311
0.8385711674933122 12.994112727040854 7811.046901249293 18.736370733904604 0.27673639199973044
0.8627466314501908 12.998390119605789 6817.986857602887 19.603988465088197 0.28068411164630774
0.8872191356153772 13.003332800430721 5958.26678174286 20.50956678760065 0.28470051773527594
0.911975990949474 13.008829473874608 5213.9693269620975 21.45489873107464 0.2887886214331361
0.9369915994125578 13.014713744362117 4567.759879851041 22.4415020350777 0.2929486189667385
0.9622665545220285 13.020913214904285 4006.7386527159742 23.471333529413297 0.29718376479132946
0.9877878253264262 13.02730927919696 3518.5362709563497 24.546846750044995 0.3015004223824426
1.013526641728133 13.03376768125468 3093.915299468376 25.670023430615256 0.3059005211490849
1.0394865025532574 13.040211655836025 2723.0638288802634 26.84274403333802 0.3103847282566121
1.065636495363807 13.046553833121049 2399.578031122853 28.06814197725417 0.31496206461257903
1.0919612354230455 13.052676192995996 2117.0393145569965 29.348317630810925 0.3196332935756028
1.1184562496085542 13.058510382137863 1869.719001990279 30.685933253363224 0.3244024659280349
1.1450827472978318 13.063965120725546 1652.9893570375646 32.0844834628412 0.3292782846982128
1.1718438187896718 13.068982387939013 1463.0615194035997 33.54580410455531 0.334257768938239
1.1986945854727438 13.07344720691614 1296.2181084674967 35.07448489037916 0.3393548112923466
1.2256379578435184 13.077315135349766 1149.7224307910496 36.67260852872569 0.34456654204215703
1.2526302054585274 13.080475570158113 1020.8629346532686 38.345113080850794 0.3499067134281474
1.2796683649264253 13.082920497819133 907.3021217326954 40.094335073585384 0.3553724944548318
1.306708880429863 13.08451820930742 807.2962394816367 41.925709794677886 0.3609782369308456
1.3337430497764198 13.085227785674448 719.0146846380493 43.84262785827467 0.3667253694155711
1.3607488152141651 13.085038421767239 641.0678712754427 45.84993005040893 0.37262250270746533
1.3876776686257877 13.083788597303617 572.2003087420745 47.95286895561326 0.3786791585319564
1.4145313612136026 13.081501457874982 511.16752002317924 50.15610437945091 0.38490050828325273
1.441251865997963 13.078058649274944 457.17146506753147 52.46503256208816 0.39129445208998204
1.4678457407303758 13.073468473452753 409.3096463814066 54.88597534570246 0.3978722069199992
1.494251641450944 13.067611741223747 366.7991725360577 57.425116664087035 0.404642823844872
1.5204620590125544 13.060475918156529 329.0779742019865 60.08907802887777 0.4116160632063749
1.546444895202225 13.051999444989344 295.5103364473495 62.88495791577436 0.4188024530022605
1.5721593019687878 13.042132429776496 265.65836324590754 65.82037492092127 0.4262133520367745
1.5975821234200525 13.030817984158459 239.0952421361199 68.90351507006382 0.43386101839360497
1.6226688017934745 13.017984521604212 215.29340593249182 72.14318371066197 0.44175868385726863
1.6474211168600754 13.003682481164624 194.24215364177536 75.54886247106315 0.44992063498457113
1.671770562359781 12.987763936355528 175.3562541391794 79.13060698848189 0.45836161318168056
1.6957088841653665 12.970230610905714 158.48376164450585 82.89834611001125 0.4670938121195465
1.719170796434482 12.950998536917083 143.39983367311137 86.86492734612492 0.4761392843556455
1.7421769697355138 12.93011195870318 129.87706648753695 91.042066664081 0.4855129524834981
1.7646572626544732 12.907481022308504 117.7685987262134 95.44354137245132 0.49523552610785215
1.7865872538775245 12.883060568604645 106.90117725513312 100.08331368017143 0.505325721559371
1.8079275412213405 12.856823518219027 97.15814779419297 104.97773913478942 0.515808609972742
1.8286407799245983 12.828707327911706 88.3970292297861 110.14327214306346 0.5267064492254631
1.8487236466998682 12.798761766283134 80.52574156428057 115.59755116058652 0.5380426973463351
1.868113380516357 12.766877041129689 73.43690846223922 121.3609046184794 0.5498471751274262
1.8867886867643306 12.733048820086406 67.05973799148859 127.45462731425276 0.5621492628739472
1.9047155450065538 12.697254604473878 61.30373078113737 133.90132471964824 0.5749788984606394
1.9218630467728413 12.659464496981744 56.11714517466203 140.7262619386306 0.5883709607517784
1.9381819732115018 12.61959606693507 51.431772429374654 147.9572783618649 0.6023643680217445
1.953686292093254 12.577785676464922 47.20260241288708 155.62306560606172 0.6169956189210967
1.968308997458023 12.533877989792867 43.372904044258895 163.7569498823378 0.6323112902757989
1.9820342304386476 12.487908405011543 39.91028706464164 172.39261003914734 0.6483527233168838
1.9948292384707156 12.439854882808993 36.77291202278073 181.56956510462234 0.6651739594093672
2.006668287751627 12.389711676478024 33.92992160858141 191.32959466177294 0.6828287769884633
2.017529541985252 12.337478651395175 31.350141277506726 201.71867007875028 0.7013763273616264
2.0273754268368087 12.283124410559319 29.012779341392903 212.78693258588115 0.7208800524414523
2.0361954052634004 12.226684901998881 26.88970619199118 224.5892741582253 0.7414084855191166
2.0439507509990986 12.168119974766528 24.959967419431884 237.18730156351242 0.7630403840165139
2.050621851965069 12.107445961456069 23.204262391218467 250.64732788478827 0.7858567326201433
2.056200145044454 12.044708898003343 21.608590053958903 265.04266168247216 0.8099465888648717
2.060666244667617 11.97991148735237 20.156580537503753 280.45515931057224 0.8354102710011607
2.063988996629008 11.913060935035952 18.834477767783724 296.97378050750723 0.8623525154748959
2.0661573728855402 11.84417838050285 17.63056481764833 314.6990419229277 0.8908945763579967
2.067011846741461 11.774455830182573 16.55934183010245 333.95268153025705 1.1707228462048358
