M[M_sun], R[km], Lambda[1], P_c[MeV/fm^3], rho_c[fm^-3]
0.24162668629717493 15.618656898711224 2160425.4255784233 3.5677272577965504 0.1711233750220791
0.2536437158767184 15.277282807086822 1723187.424443589 3.784814038496319 0.17388810365684002
0.2660393383648444 14.98125862680549 1383089.4802318723 4.011389782274992 0.17666651970784925
0.278814062148273 14.72354808223396 1116470.890285468 4.2477107543925365 0.17945731170636472
0.2919678952664222 14.498454416575587 905936.3217346085 4.4944020224077486 0.18226704377034875
0.30550342400662767 14.301213403863125 738732.269884338 4.751618279168787 0.18509140430332935
0.31941960667649905 14.128150771083376 605125.7795366518 5.0200433230773625 0.18793704534200278
0.3337165657730885 13.975996891940248 497700.1638348949 5.299899097736269 0.190800548630563
0.34839691751122653 13.842061125729233 411026.3960523746 5.591916676354285 0.19368826057741517
0.3634591024583478 13.724013398968541 340670.80658144626 5.896260235958852 0.1965951869093747
0.37891203089313497 13.620026859496635 283322.72314385866 6.213795131413703 0.19952903521604548
0.39474349349127325 13.528489128854329 236422.06933764444 6.544780719357215 0.20248601843664119
0.4109671628795779 13.4479040366747 197874.36986542263 6.889915522441566 0.20546978234781735
0.42757503124992496 13.377107109944854 166095.87652118824 7.2499063285580325 0.20848343178068662
0.4445693175690172 13.314959894689052 139809.71039850303 7.625014966566919 0.2115225592296517
0.46194997670832305 13.26062296866834 117991.31989277198 8.016184717695145 0.2145932383749875
0.4797138442988898 13.213180221681062 99827.02216681952 8.424123146748238 0.21769715879424467
0.4978703337739357 13.172037177152477 84653.26850129847 8.84927507845024 0.22083184593405525
0.5164076259048529 13.136418230317659 71945.25281421111 9.292505876121387 0.22400059580016848
0.535325392994272 13.105859101042961 61281.91795887764 9.75470397305083 0.22720638167776544
0.5546292346048378 13.07985281915813 52306.05832463808 10.23667884265301 0.2304505543190118
0.5743121943187125 13.057856445979738 44733.915917416074 10.738906998310512 0.2337298788997077
0.5943666420276742 13.039554047571224 38331.456290006914 11.262622426798643 0.23705040951295347
0.6148036979870589 13.024515391614704 32905.01211029625 11.80876765345681 0.24041382619063104
0.6356037664333867 13.01244406780267 28295.671954198602 12.37832154008605 0.2438217616256331
0.6567763156758478 13.003025149748836 24373.923807109182 12.971980515689436 0.2472722508578032
0.6783071673247317 12.995982200506909 21030.66874042515 13.591056454276565 0.25076991327370957
0.7001945539150504 12.9910556838625 18174.742241366694 14.23675393747522 0.2543174664040793
0.7224276004103406 12.98800881770768 15731.944480224001 14.91026246588197 0.2579168945116697
0.7450142109698782 12.98664686470833 13636.14961658904 15.612620447694399 0.26156818277410754
0.7679339006479674 12.986761084391876 11838.106040871078 16.34507646739489 0.265273051595532
0.7911772716135098 12.988137548143698 10290.466730511964 17.109254691668657 0.26903627638261196
0.8147503159929627 12.99066600073159 8957.691109011019 17.90660991893282 0.27286028922668776
0.8386306348294948 12.994133173782249 7808.638513110485 18.738515879475504 0.27674624783370055
0.8628097824680221 12.998402367944022 6815.632813947511 19.6062999507401 0.2806944818246501
0.887285627251248 13.003345533579349 5956.312167953489 20.512055737040527 0.2847114246976392
0.912044465590216 13.008836365843402 5212.03704840081 21.45757702967477 0.2888000891321414
0.9370632029631641 13.0147247778458 4566.063519607126 22.444358526744253 0.2929604832068816
0.9623408388564052 13.020931778239063 4005.1586248740805 23.474404057190004 0.2971962351169734
0.9878644332813246 13.027326697099527 3517.1977760632312 24.550145764690445 0.3015135278015132
1.0136055532151391 13.033782528080565 3092.4275444014634 25.67353816305739 0.30591408517847835
1.0395682033556226 13.040235273241239 2721.9157717356316 26.846517446898744 0.31039898353356765
1.0657181123863817 13.046560529612353 2398.767636738269 28.072191732695398 0.3149770464189247
1.0920491726056147 13.052693720865975 2116.0543511822707 29.352629376328952 0.31964881321204247
1.1185455588187225 13.058526088039816 1868.9473658395723 30.690558460419215 0.32441878164563087
1.1451752665962682 13.063983401283181 1652.4352741028981 32.08940703714633 0.32929520161457265
1.1719369286836523 13.068997714780213 1462.3771526827643 33.55108379150931 0.33427556202763253
1.1987906723834933 13.073456583171511 1295.6557865205518 35.08014560518718 0.33937352974159346
1.2257366429421532 13.07732450891236 1149.3058043697251 36.67863384615599 0.34458597878348807
1.2527313452228868 13.08049016839493 1020.3937500130265 38.351572315702725 0.3499271748681532
1.2797716937419166 13.082929114416649 906.9084402102555 40.10121138979597 0.3553937674799586
1.3068150820502975 13.084524382750313 806.9150720076892 41.93303161212408 0.3610003718942359
1.3338512561994307 13.085235701853238 718.772911130238 43.850477254507865 0.366748701880585
1.3608584119065872 13.085033843549596 640.7406812576265 45.85829058036247 0.3726468139928781
1.387787707506263 13.083778356248102 571.9281055801501 47.96177632427423 0.37870451177852665
1.4146443791162482 13.081489685363506 510.9323995289403 50.165656243627076 0.38492727365931156
1.441366415558241 13.0780431752786 456.9878794388865 52.47521376049814 0.39132240584625044
1.4679601128913662 13.073444843906623 409.1129676795944 54.89683095255788 0.39790142826131564
1.4943693667976503 13.067584377849704 366.6105021970831 57.4366954043255 0.40467339809842645
1.5205805203635825 13.060443041082957 328.9080025449753 60.10143260498794 0.41164808232442407
1.5465632039474793 13.05195853853703 295.35354727672365 62.89814536722907 0.41883601611466165
1.572278481114291 13.042082601843656 265.52062423602945 65.8344570198485 0.4262485660586794
1.5977030266897387 13.03075787781319 238.97857741114973 68.9185587572294 0.4338979986942904
1.6227901688067377 13.017941876238085 215.28909172976543 72.15926157633653 0.4417975549967863
1.647541942167489 13.003607154327549 194.14772730616397 75.56605328591324 0.44996153152570617
1.6718911870099669 12.987678433363998 175.27354508176307 79.1489065438922 0.45840430583509234
1.6958290365456195 12.970136051975622 158.40047318679666 82.91793291380533 0.4671388225376193
1.719293692856156 12.950896417201463 143.3192171522499 86.88590220707538 0.47618678209587034
1.7422950598364748 12.929995608839405 129.81049969121045 91.06443831352574 0.48556272116880445
1.7647749030742887 12.907353488412502 117.70339062752633 95.46752528231416 0.495288152161438
1.786703390590616 12.882925148150996 106.84810934492667 100.10893073262046 0.5053810020471917
1.8080398257035648 12.856676687476364 97.10219642589155 105.00512214295307 0.5158667578479745
1.8287542406742499 12.828548473944618 88.35220123381303 110.17263373933034 0.5267679470520161
1.8488340731134794 12.798589975188465 80.48311504413178 115.62903360785707 0.5381077292186387
1.8682223374582256 12.76668837294834 73.39975250816208 121.39463295565706 0.5499158336618633
1.886893537445718 12.732847793121683 67.0253265498739 127.49079086767236 0.5622218428371062
1.9048176932394085 12.69704048771811 61.270947056964204 133.9399977558811 0.5750552510420343
1.9219614990493925 12.659233866230167 56.08730036507151 140.76779937884533 0.5884518914812069
1.938277517517073 12.619353699758575 51.40455756682622 148.00192889905674 0.6024502555515359
1.9537770384572961 12.577520253628224 47.17379441836542 155.67095535851146 0.6170863747958208
1.9683959545863507 12.533601912279632 43.34955060921002 163.8084304428562 0.6324075495831353
1.982113338047213 12.487612805107512 39.88823595865855 172.44803185251513 0.6484550536355717
1.9949060592603833 12.439546456908086 36.753554051469855 181.62919048573386 0.6652825678678146
2.006745281903777 12.38939567686755 33.90964416245207 191.39381072310061 0.6829442189720679
2.0175959834680066 12.337133512734312 31.334006309989494 201.7879038449752 0.7014992104673278
2.0274364176549553 12.282758611386866 28.99863752551266 212.86148108514882 0.721010470580826
2.0362501133750857 12.22630502051506 26.876066070999876 224.66982722916558 0.7415477234199336
2.0439996446790296 12.167721903368413 24.947276197767803 237.2742515606502 0.7631886417489966
2.0506628954281694 12.107029923417993 23.19318676544215 250.74149157631336 0.7860154713193973
2.0562395349199454 12.044296105576693 21.598115915257782 265.14455175277936 0.8101161398615513
2.060693636655441 11.979457291666575 20.14693582252917 280.56535170883427 0.8355910121813666
2.064004540296613 11.912572717305162 18.82666707098167 297.0933299111862 0.8625462069298513
2.066168703815639 11.843685838121026 17.622330110111477 314.8289080657336 0.8911024665099245
2.0671667728005843 11.77280665662092 16.527370068136 333.881520497993 0.9213858744971366
