M[M_sun], R[km], Lambda[1], P_c[MeV/fm^3], rho_c[fm^-3]
0.24162668629717493 15.618656898711224 2160425.4255784233 3.5677272577965504 0.1711233750220791
0.25364480375485005 15.277257878186127 1723269.4024711065 3.784834099218908 0.17388835370406946
0.2660407209792117 14.98126652618593 1382997.6922182757 4.011431954034848 0.17666702932867903
0.2788168939992624 14.723500386903611 1116467.7104395537 4.24777646404664 0.17945807383933
0.29197249892312377 14.498365326186189 905848.964746898 4.494492994352134 0.18226805676406296
0.305508902376381 14.301183805247046 738619.4419997169 4.751737602465213 0.18509269322266267
0.31942649708114346 14.128084963734324 605059.0669128528 5.020191876819827 0.18793858664441734
0.33372668662465893 13.975868155727746 497655.77269724786 5.300080793100541 0.1908023780013941
0.3484077078524781 13.841971053558305 410971.69310715824 5.5921319671200935 0.1936903435747988
0.3634706498713896 13.723948960619522 340635.39637333347 5.89651395912007 0.19659756993099842
0.3789257338499984 13.61994925876236 283273.23585589835 6.214090357558407 0.19953172732300975
0.394758651056396 13.528411808045298 236381.27831397855 6.545117142095877 0.2024889684095744
0.41098559987766903 13.447818115602216 197837.51377712816 6.890299636630626 0.20547305362543863
0.4275942462810057 13.377023856648417 166064.04058765556 7.2503417388832485 0.20848703381872102
0.4445909345836319 13.314883035646663 139782.30711641157 7.625500469720084 0.2115264241469284
0.46197399179610826 13.260523815976981 117963.11314685918 8.016728782312736 0.21459744715466195
0.479740274451682 13.213126357794795 99796.46788094103 8.424730015604514 0.21770172159965676
0.497898116241641 13.171954824867758 84630.33555350716 8.849942514025381 0.22083667845279256
0.5164385393009482 13.1363652625702 71928.0968097048 9.29324467999397 0.22400579702549053
0.5353582889185857 13.105812732733575 61265.43439329346 9.75551915478829 0.22721196284344092
0.5546662155509371 13.079810997012121 52296.37919118787 10.237575716237854 0.23045652714721532
0.5743505869848871 13.057815749310612 44720.80749384299 10.739881666879292 0.2337361365738338
0.5944089503207375 13.039517549048393 38320.12041156687 11.263689548509863 0.23705707690871614
0.6148477368578205 13.024480289190913 32895.948466984075 11.80993353271898 0.24042091668177162
0.6356531308340726 13.01243475918492 28286.10329959205 12.379592874639107 0.24382928929185854
0.6568254213843292 13.00301473739591 24366.124712249137 12.973351467340029 0.24728008665525278
0.6783583949354962 12.995982220009509 21023.34964300701 13.592546491620137 0.25077820940243367
0.7002482569632227 12.991058635757648 18168.383036895917 14.238371050318829 0.2543262393201791
0.7224849314970179 12.98800188252453 15610.902512108005 14.912015157412439 0.2579261616524734
0.7450738553461801 12.98663916985424 13630.922879026344 15.61450066587128 0.2615777932022298
0.7679958087364586 12.986765144817031 11833.745742664838 16.347109675364237 0.26528318662731304
0.7912425560450504 12.988143962242697 10286.464746076916 17.111451094293795 0.26904695674481366
0.8148195804842305 12.990670818873456 8954.313398921391 17.908980397672448 0.27287153697880995
0.8387023268000949 12.99414782003445 7805.621750090515 18.741049920092184 0.2767578904391864
0.8628838960663513 12.998410820848925 6770.123869024 19.609030503351256 0.28070673209214697
0.8873691232550953 13.003371288980105 5953.891521150045 20.514995944526365 0.2847243091427285
0.9121257918561727 13.008854281622005 5209.709511389203 21.46074093494218 0.28881363605827065
0.9371477751599797 13.01474991678324 4564.08757503656 22.447732949766294 0.2929744986390101
0.9624333024135534 13.02095782830953 4003.5429013326225 23.47803134648032 0.29721096661655405
0.9879551911474457 13.027343471844897 3515.6161117248707 24.5540429945903 0.3015290096458034
1.0136998729920395 13.033805759588214 3090.989110251202 25.677690247455363 0.30593010887181643
1.039665648170499 13.040263298166797 2720.715905613842 26.850975148207034 0.31041582392641415
1.0658188683143595 13.046590813900263 2397.5570457965714 28.076975918500885 0.31499474520254267
1.0921517439673283 13.052715079220567 2115.000186260925 29.35772309005926 0.3196671474539154
1.1186516533246607 13.058547582963513 1867.8263614554394 30.696022518698552 0.3244380564652734
1.14528621485781 13.064009077980476 1651.614060753745 32.09522360579188 0.32931518677152977
1.1720501345252907 13.06901361302122 1461.6458050667625 33.557321101391445 0.33429658240502885
1.1989075404545135 13.073477808270258 1295.028205966642 35.08683309672041 0.33939564346311085
1.2258537890914893 13.077338607552639 1148.6903522080322 36.68575211201962 0.34460894120728025
1.2528510484036672 13.080501856410445 1019.8474366835853 38.35916139661871 0.3499511024592185
1.2798951511700396 13.08294417663788 906.4035022557969 40.10933511781417 0.3554188995804847
1.306939914319008 13.084526064573346 806.513086502913 41.941681706413256 0.3610265224397556
1.3339782682900778 13.085241527657166 718.3757210755542 43.85975070175285 0.36677626736167085
1.360988662708835 13.085033198114264 640.40415796002 45.868167948786514 0.3726755360385161
1.387921141966342 13.08376714643438 571.6168797856081 47.972299805057126 0.3787344650018883
1.4147709499863481 13.081462374018075 510.64899837757326 50.17694123599757 0.38495889545156553
1.4415028344229937 13.078019708927505 456.7324468968586 52.48724234904282 0.39135543184367144
1.4680977648560953 13.073417730646137 408.87825438575015 54.909656401199534 0.39793595206245236
1.4945077587196374 13.067548806529556 366.3997826234261 57.45037529156615 0.40470952053769693
1.5207200987625542 13.060401462824519 328.7323269545341 60.1160292102177 0.4116859120663595
1.546704354207644 13.051907183392515 295.1886959250584 62.91372609558422 0.4188756703070483
1.5724205661719763 13.04202435698041 265.3744670292535 65.85109486990885 0.42629017105091116
1.5978337429889915 13.03068615187989 238.82626179573379 68.93633283637251 0.43394169082799966
1.6229320851105016 13.017861787702612 215.16186139601177 72.1782576691547 0.44184348147665453
1.647684243493472 13.00352079708619 194.025447617361 75.58636448177099 0.4500098513793106
1.6720332191457636 12.987582212879396 175.1637070009949 79.17052786631167 0.45845474813293297
1.6959703427038473 12.970022052862406 158.31089447898307 82.94107532409075 0.4671920037290535
1.719450524574524 12.950806743051578 143.2278261227457 86.91068484259057 0.4762429025720236
1.742427109174726 12.929829171661247 129.74381999491513 91.09087148961771 0.48562152525590674
1.76491494676137 12.907205532287115 117.63714729399375 95.49586365356348 0.49535033287560987
1.7868409307808006 12.88276543810281 106.7898401685461 100.13919897449604 0.5054463196000087
1.8081783675145078 12.856500557576785 97.05023251942772 105.03747721972533 0.5159354639213194
1.8288920029039768 12.82836935872904 88.30068742413643 110.2072468615082 0.5268403138831309
1.848964973812923 12.79838310903349 80.43164776137569 115.66623310419622 0.538184570541516
1.868340479084976 12.76643834400418 73.35899845799351 121.43448651092966 0.5499969608956996
1.8870175683151094 12.732611692057063 66.98534595455645 127.53344710824506 0.5623073359476668
1.904938917131649 12.69678700924515 61.23371135831401 133.9856947276981 0.5751454710531848
1.9220776168111162 12.658962583342538 56.053860169620236 140.81688144225288 0.5885475220056902
1.9383903193941734 12.619065081935465 51.37277330254203 148.05468999756474 0.6025517441495443
1.9538840814637362 12.577214983468634 47.14601218520452 155.7275445482495 0.6171936169750322
1.9684987423691551 12.533273730212438 43.32634661469798 163.86919067090352 0.6325210501940803
1.9822115189063891 12.487265724624233 39.86488730607013 172.51352260496063 0.6485759751493516
1.9949958089746742 12.439178752579169 36.73109532871009 181.6996491832535 0.6654109093623118
2.0068311811010924 12.389010971911876 33.89081508324455 191.46969494094256 0.6830806369405767
2.0176748924319763 12.336727023039398 31.317393767173435 201.86971834365772 0.7016444231321544
2.0275088788552256 12.28233480364636 28.981295601719054 212.94957694933953 0.7211645890246196
2.0363146739992977 12.225856124176165 26.859186938512117 224.7650199158319 0.7417122662450528
2.044055563724661 12.167253580186904 24.93340536374256 237.37700484918284 0.7633638455450226
2.0507123066670494 12.106535725805772 23.179810186894255 250.852553622803 0.786202355483356
2.056282051574448 12.043778834957259 21.587057864360204 265.26496335038405 0.8103165117557318
2.0607245035167474 11.97891933810143 20.13574260553173 280.69557630853353 0.8358046108343834
2.0640253971897877 11.912015592852958 18.81542875600996 297.23461434195497 0.8627751130231985
2.066182091346596 11.843102760263198 17.61294487850709 314.98238691897825 0.8913481559670021
2.0671697794012567 11.77220210533756 16.51776581963525 334.0482061056446 0.9216491410996699
