M[M_sun], R[km], Lambda[1], P_c[MeV/fm^3], rho_c[fm^-3]
0.24162668629717493 15.618656898711224 2160425.4255784233 3.5677272577965504 0.1711233750220791
0.25364609531988597 15.277244356726534 1723080.7136860886 3.7848593359505687 0.173888668267755
0.2660438896488248 14.981174630990235 1382916.884374099 4.011485007279544 0.1766676704458313
0.27882239410766474 14.723354273882087 1116229.2705506019 4.247859129293712 0.17945903263162216
0.2919790342219509 14.498263934317844 905745.9918246028 4.494607441437117 0.18226933115891603
0.30551666230693864 14.301084759674012 738527.2085740787 4.751887718132373 0.18509431475836804
0.3194382619147521 14.127916753396603 605012.9427285064 5.020378767525356 0.1879405257076204
0.3337373797588597 13.975791624980792 497561.2744475812 5.300309380025087 0.19080467949243
0.34842128326321314 13.841856423252862 410900.59549365065 5.592402821672661 0.1936929641671044
0.36348621039583306 13.72383637516591 340553.9005830543 5.896833167441067 0.19660056800310088
0.37894347255918637 13.619840385539812 283217.34158631053 6.2144617835004485 0.1995351142803752
0.3947821950021516 13.52826408683309 236329.68144303325 6.545540400704442 0.20249267981577715
0.4110081395696384 13.447711655666094 197791.61903133825 6.890782900215435 0.20547716930092055
0.4276198758181487 13.376904312113606 166010.28146773772 7.2508895434997855 0.20849156566592333
0.44461858893117434 13.314807402938397 139751.14922359557 7.626111301920578 0.21153128676400815
0.4620021895610044 13.260446600909935 117927.06566373719 8.017413298214368 0.2146027424385684
0.4797727734391716 13.213040444619384 99768.00578716333 8.425493554357617 0.2177074623436725
0.4979335902150097 13.17188054140514 84603.02412330935 8.850782260860061 0.22084275857867186
0.5164771363694568 13.136303580560025 71905.83647532335 9.294174226923456 0.2240123410938246
0.5353999978475807 13.10576680581156 61249.470319521075 9.756544806059253 0.22721898499495077
0.554710751315845 13.07974569746213 51788.73497333228 10.238694372257852 0.2304639162981701
0.5743978706672164 13.057781460627465 44303.19674203768 10.741107998796513 0.23374401000461245
0.594459346363668 13.039454781332735 37971.68971956305 11.265032214887128 0.23706546591253858
0.6149011999626902 13.024462787208797 32882.278463451876 11.811400467542699 0.24042983809302654
0.6357102858801473 13.012409547918983 28274.661040081515 12.38119250696872 0.24383876083357964
0.6568858831243728 13.002994339161312 24162.706430064485 12.975076451268867 0.24728994595602707
0.6784227932587319 12.995948827265376 21014.170377232407 13.594421326974953 0.25078864798339084
0.7003169407029564 12.99104502994144 18160.326284631872 14.240405792452314 0.2543372778955589
0.7225559565321188 12.988004004890403 15718.413580176059 14.914220507869196 0.2579378221716514
0.7451490251590664 12.986648664011202 13624.762311981623 15.616866492503728 0.26158988573866004
0.768075171737993 12.986765541236844 11827.65068223859 16.34966802294231 0.265295939348334
0.7913261699570455 12.988143442994199 10282.292324671555 17.1142148062827 0.2690603957403443
0.8149043026076932 12.990682558808635 8949.163357969193 17.91196316919533 0.2728856900164076
0.8387949568749458 12.994151842375837 7801.939791158852 18.744238519968444 0.2767725404057919
0.8629780784978297 12.99844019804435 6808.908659656622 19.612466400168298 0.2807221467942583
0.8874664607887518 13.003400096536787 5950.588342076437 20.518695679977405 0.284740521957128
0.912228536135934 13.008879077430954 5206.975722036605 21.46472218365875 0.28883068261235717
0.9372539610288425 13.014774432920554 4561.789312640189 22.451979125024312 0.2929921348336263
0.9625442406376881 13.02098838130061 4001.1532393382513 23.48259574716786 0.2972295040039617
0.9880693959572605 13.027372657708021 3513.5158688713923 24.558947111300835 0.3015484913734009
1.0138175213458027 13.03383597911367 3089.5154545778664 25.68291509396802 0.3059502725607574
1.039787436823138 13.040294766688461 2719.052568376086 26.856584614951068 0.31043701548167896
1.065943767682385 13.046618541685612 2396.2480760972785 28.082996271134327 0.31501701710478375
1.0922811405239705 13.052746073430761 2113.7327657488654 29.36413298752456 0.31969021914909335
1.1187849440604671 13.058580416345553 1866.6801825558607 30.702898508287117 0.3244623119641001
1.1454224155575325 13.064035860885856 1650.4808775667645 32.10254324134294 0.32934033631832815
1.17218977774807 13.069038190993933 1460.7646131899407 33.565170264055205 0.33432303489248827
1.1990508838911282 13.073492108483132 1294.261781263751 35.09524884435786 0.33942347205903356
1.2260025982181901 13.07736344468248 1147.9142661456092 36.694710017584555 0.3446378380239788
1.2530020461762217 13.080516137711253 1019.1967142740784 38.368697823446304 0.3499811317530743
1.2800499339851565 13.08295152471798 905.8228204609213 40.11955848796069 0.35545052727231075
1.3071041113229975 13.084553078144056 805.970686830404 41.952567560250195 0.3610594320251043
1.3341392465234903 13.085242879969215 717.8354941557146 43.871421123252986 0.3668109578898668
1.3611512820118787 13.08502537126678 639.9742348122242 45.88059847855211 0.3727116823305146
1.3880922459442318 13.08377486804381 571.1905568051308 47.98554355285791 0.37877216098330413
1.4149392111230035 13.08144502650189 510.2921576992824 50.19114346814907 0.3849986916711724
1.4416727392805844 13.077997246377269 456.37460660894203 52.50238051395218 0.39139699557273233
1.468269760561551 13.073385994468197 408.5835708045106 54.92579754918312 0.397979401129902
1.4946817230626448 13.06750650914729 366.13986310377726 57.46759190509854 0.40475498188294246
1.5208964335537898 13.060345215960105 328.4813629107318 60.1343996903871 0.41173352248762524
1.5468810602117116 13.051849084168444 294.9901572581335 62.93333529709727 0.4189255772838997
1.5725994061671078 13.041950517071054 265.17118459964894 65.87203469005226 0.4263425336489176
1.5980130622288113 13.030598506110188 238.63044044145434 68.95870286399764 0.4339966806944342
1.6231224019002657 13.017777372738408 214.99432259869891 72.20216590049512 0.4419012839371842
1.6478635792268277 13.003408009896699 193.8691272841138 75.61192811075068 0.45007066664683837
1.6722128206214408 12.98745714349996 175.04770331887104 79.19774062348911 0.45851823518409374
1.6961488674478788 12.969889615000788 158.184996865476 82.97020280455985 0.46725893859433854
1.7196285770566742 12.95065372268643 143.1186432461474 86.94187703910498 0.47631353755027606
1.7426081517301992 12.929730733596761 129.6442002015352 91.58984067151414 0.4864949758768716
1.7427291185444538 12.909592113803141 127.62092817964465 98.60242249290485 3.0673927547483335
