M[M_sun], R[km], Lambda[1], P_c[MeV/fm^3], rho_c[fm^-3]
0.24162668629717493 15.618656898711224 2160425.4255784233 3.5677272577965504 0.1711233750220791
0.25364420985511676 15.277277775073417 1723233.0199865957 3.784822813214564 0.17388821302946986
0.2660406551404808 14.981253651637786 1382993.452018098 4.011408228496273 0.1766667426195472
0.2788157427012585 14.723515201310564 1116400.2739633173 4.247739496193857 0.17945764506794706
0.2919702728703723 14.4983966708879 905853.4425107917 4.494441814008857 0.18226748685906224
0.30550586684359815 14.301219640251716 738623.1905517409 4.751670471693184 0.18509196808220374
0.3194217988994416 14.128142489510182 605140.5442289946 5.020108301000839 0.18793771951303803
0.33372010755060083 13.975960937491296 489713.7243105673 5.299978571763899 0.19080134880215
0.3484016401467791 13.842022254032136 411003.5768074408 5.5920108449255865 0.19368917168424737
0.36346333360804306 13.724010980435972 340645.3906856765 5.896371214716091 0.1965962292453483
0.3789177757123793 13.619995759292156 283294.6755127976 6.2139242633696865 0.19953021274399904
0.39475097927773106 13.528440348207525 236409.60672226106 6.544927870452402 0.2024873087529546
0.41097520386728326 13.447867778319894 197861.95854812802 6.890083533432796 0.20547121319992173
0.4275844757881991 13.377035162882857 166084.58461764417 7.250096776050727 0.20848500730398617
0.44457874993005003 13.314924569134444 139800.0826374429 7.625227324195597 0.2115242497329215
0.4619604761064035 13.26058274396706 117980.39364983702 8.016422689497904 0.2145950792792738
0.47972609409140654 13.213140524850287 99808.48107480584 8.424388588403525 0.2176991545444118
0.49788247001527236 13.172012322449346 84643.94366934545 8.849567011243334 0.22083395965221053
0.5164203582936628 13.136410733509901 71936.74130852801 9.292829024449714 0.22400287078454587
0.5353392331553083 13.105845861264038 61274.812401795236 9.75506052795462 0.22720882284137228
0.5546460210366047 13.079807605024657 52297.3769856334 10.23707112830978 0.23045316678845476
0.5743284405258609 13.057861746109094 44728.64397058265 10.739333310245069 0.23373261595438247
0.5943863744329446 13.039531534065063 38327.62692378365 11.26308917614298 0.23705332577130334
0.6148230015978284 13.02451669223149 32901.801395218696 11.809277597554926 0.24041692750157054
0.6356271362159384 13.012451871326745 28291.724811056796 12.37887760830599 0.24382505414682526
0.6567978503469467 13.003036817729413 24371.363645118592 12.972580154477276 0.247275678147221
0.6783290628985654 12.995987549776519 21027.57039966312 13.591708178656416 0.25077354190044915
0.7002182662522362 12.99106415472537 18171.89717706089 14.23746124190188 0.25432130356511395
0.7224525946090206 12.98799176887425 15729.174635805874 14.91102906933617 0.25792094783310543
0.7450409450546177 12.986638195827386 13634.025959732779 15.613442828370415 0.2615723862386167
0.7679613080188029 12.986759170808183 11836.374241151345 16.34596576206052 0.2652774845063974
0.7912056250650382 12.988131340376682 10288.711045868122 17.110215363528884 0.26904094780455745
0.814781253932765 12.990666056818386 8956.430405982244 17.907646727098506 0.2728652088072986
0.8386626063931769 12.994135946906068 7807.319762756725 18.73962422529052 0.27675134010924707
0.8628439008999171 12.998399824149878 6814.416884870626 19.607494245392598 0.28069983987155367
0.8873237338373962 13.00336215893048 5955.295672979507 20.513341728660848 0.2847170601123156
0.912081299901868 13.00884650037771 5211.164525852243 21.458960860012436 0.28880601429290803
0.937100199010092 13.0147415455246 4565.102771685658 22.44583443127331 0.2929666132740427
0.9623840649231251 13.02094803485469 4004.5170122587274 23.475990557428712 0.2972026783658379
0.9879048830485193 13.027330020585893 3516.5312151530125 24.55185032815664 0.30152029922297013
1.0136467224700656 13.033792688037288 3091.795466540926 25.67535419162829 0.3059210935824808
1.039611092770464 13.040245069116244 2721.333569723348 26.848467141816798 0.3104063491298874
1.0657618268661113 13.046573105662082 2398.284285177505 28.074284220405744 0.3149847874408487
1.0920938272801117 13.052707476701032 2115.7492155799746 29.354857240707354 0.319656832155889
1.1185917347041257 13.058539259664531 1868.5647389855594 30.69294829976427 0.32442721195877827
1.1452243754070095 13.063989042123236 1652.0772343280555 32.091951051551355 0.32930394259749296
1.1719863290307055 13.069009824674048 1462.0030093011733 33.55381182175021 0.334284755770816
1.1988415400217858 13.073464254522483 1295.346057286434 35.08307052688736 0.3393832016647079
1.2257883798766032 13.077333015125493 1149.0040516687154 36.681747171466085 0.344596021889006
1.2527833780201831 13.080499805324981 1020.1166752918376 38.35489783080532 0.34993767689920546
1.2798249622405864 13.082937448974343 906.5928269086199 40.104764462294895 0.3554047594992654
1.3068687438629638 13.084523163717611 806.7367083863979 41.93681489488569 0.3610118093311891
1.3339071540374818 13.085236139885486 718.5873548870494 43.85453316394509 0.36676075814099435
1.36091605890519 13.085032914846238 640.6196792727006 45.86261061806605 0.3726593760756873
1.387845969267572 13.083772456578028 571.7938321704623 47.966378942180604 0.3787176123148456
1.4147033287900126 13.081482693522672 510.80745739809083 50.1705919102918 0.3849411039412278
1.4414262988466542 13.078030592812029 456.86966177346477 52.48047464076448 0.3913368502523803
1.4680204949561493 13.073432801148282 408.99884489353417 54.902440340728184 0.3979165277254436
1.494429557382364 13.067567709560523 366.51379518700884 57.442678481556634 0.40468919671870235
1.5206414676731055 13.060423081328386 328.8278692162614 60.10781660822573 0.41166462762322464
1.5466252078277398 13.051937974938577 295.28195047447525 62.90495977499836 0.4188533593242039
1.5723409203406769 13.042057703180987 265.4570296231635 65.84173375677666 0.42626676243515055
1.5977654787487872 13.030729667664898 238.9158737143574 68.92633241940952 0.433917107863584
1.6228521301919603 13.017906562601215 215.23355899062307 72.16756967989299 0.44181764133529716
1.647604321332134 13.003569866698735 194.09122078377476 75.57493654142884 0.4499826645800596
1.6719530243674827 12.987633966278535 175.22640449870312 79.15836277539108 0.4584263671149929
1.6958913585534563 12.970084944797032 158.35778810449034 82.92805437991913 0.4671620816372703
1.7193707766853261 12.950877353882118 143.27618255233062 86.89674100938964 0.47621132665031995
1.742352911757522 12.92993782218137 129.7746143825594 91.07599896364933 0.4855884393600071
1.7648356637538165 12.907289221463666 117.67451179342018 95.47991914584429 0.4953153470654384
1.786761746409806 12.882854865182608 106.81281444574951 100.12216860117591 0.5054095687932257
1.8081012032952957 12.856598716495917 97.08511137063986 105.01927266023112 0.5158968065010752
1.8288115634443944 12.828464559387081 88.32761931097525 110.18777177891701 0.5267995966659559
1.8488911776718313 12.798500118683952 80.46187264626212 115.64530275240814 0.538141335657231
1.8682687207669442 12.766561703016487 73.3888331256792 121.4120628053594 0.5499513144485298
1.8869472388791722 12.732744158558674 67.00617728096279 127.50947927831392 0.5622593503281463
1.9048715020899751 12.696932684886017 61.256730106126554 133.95998311042285 0.5750947083372973
1.9220129397437185 12.65911352393118 56.073718955463924 140.789265127981 0.588493714923535
1.9383265164699024 12.619226450585538 51.389994005575765 148.02500358666202 0.6024946408611819
1.9538239645056377 12.577385331353625 47.16038859631527 155.6957041693423 0.6171332762697361
1.9684406326261707 12.533457991845735 43.33693382930233 163.83500334996697 0.6324571879944545
1.982158571656021 12.487458767047766 39.879870329242344 172.47667351955445 0.6485079373421447
1.99494621601903 12.439385876515786 36.74329431852331 181.66000473874806 0.6653386964569438
2.0067838035306886 12.389229165399323 33.90397464996518 191.4269976599337 0.6830038795264303
2.017630973191207 12.336955948555387 31.32764248528453 201.8236841965187 0.7015627170618768
2.0274678515626983 12.282572138189446 28.99045253571897 212.90000838206637 0.7210778717817683
2.036279174191346 12.226109486631524 26.869130903477714 224.71145806407517 0.7416196833091644
2.0440249018978225 12.167517275796543 24.941433458181837 237.31918874341267 0.7632652637736065
2.050684804083382 12.106812808906723 23.187186502276575 250.79006550193304 0.7860972117770627
2.0562582179586784 12.044069879979297 21.59325266765329 265.19721107829344 0.810203768038649
2.060706009430449 11.979225681229586 20.14173560137299 280.62230233449344 0.8356844244625896
2.0640120570350584 11.91232888637671 18.82051536794152 297.1551170521496 0.8626463131693008
2.066174796995532 11.84343111974245 17.618237403099975 314.8960278572236 0.8912099120946531
2.0671690798082456 11.772543090761424 16.523480087980545 333.9544156155007 0.9215010065124191
