M[M_sun], R[km], Lambda[1], P_c[MeV/fm^3], rho_c[fm^-3]
0.24162668629717493 15.618656898711224 2160425.4255784233 3.5677272577965504 0.1711233750220791
0.2536410725144472 15.277369632508334 1723223.1253748457 3.78478235822507 0.17388770877754195
0.2660358960129808 14.98133186186505 1383008.8746915709 4.011323184482771 0.1766657149128336
0.27880826362616645 14.723651391709577 1116566.4068963388 4.247606986446601 0.17945610815456683
0.29196052948432516 14.498543855876875 906033.707684208 4.494258361848987 0.18226544407668505
0.3054931847134854 14.301394931757065 738824.0869691953 4.751429848627266 0.18508936889385583
0.3194065856545413 14.128317259473441 605226.360253119 5.019808735046708 0.1879346114006421
0.3337013707777511 13.976155164459458 497799.965664258 5.299612176839451 0.19079765981321992
0.3483805248253038 13.842144325264053 411098.3026401669 5.59157670675701 0.1936849712780391
0.36343966270356165 13.724157813494742 340746.011935068 5.895859580594336 0.19659142386940345
0.3788898006941797 13.620162083190168 283390.8445104118 6.213328942585348 0.19952478413525876
0.3947180693408741 13.528615290967208 236485.34947942334 6.54424948162182 0.20248136019936883
0.4109395009426596 13.448052781245487 197942.51491820274 6.889308981392455 0.20546461678971803
0.4275434549939085 13.377212538445109 166140.2276518934 7.2492187934701775 0.20847774397910496
0.4445359115127939 13.315075206154509 139867.32043105393 7.624248338206624 0.21151645637496336
0.4619121198345808 13.260720584563554 118036.65114584766 8.015325625712562 0.21458659260395618
0.4796736264256378 13.213284374512572 99861.07112433016 8.423164893264921 0.21768995406766392
0.49782468858639123 13.172107382690537 84686.30832524982 8.848221197097276 0.22082421538277094
0.5163602517212744 13.136495090847214 71975.17324202236 9.291339313777774 0.22399238312854278
0.5352732150096384 13.105934800735858 61308.7801326836 9.753416821559455 0.22719756915732647
0.5545764958398189 13.07990082122595 52332.822909545495 10.23526271338791 0.23044112345054002
0.574253169540627 13.057913748727215 44755.82061041288 10.737368044549916 0.23371999833985646
0.5943035482874945 13.039592108767744 38350.85764410243 11.26093750774999 0.2370398821082467
0.6147361493935308 13.02455758818354 32644.07633036063 11.806926817283104 0.24040263083532756
0.6355326174900626 13.01250394662042 28309.614122602252 12.376314214159597 0.243809876099873
0.6566971100258834 13.003073207700805 24386.92148188949 12.969815917845905 0.24725987890416468
0.678226430521584 12.996005151325324 21042.40714774828 13.58870385081125 0.2507568146079149
0.7001091492957298 12.991084193827925 18185.007243469256 14.234200716523093 0.254303615055804
0.7223369566524919 12.988003685143648 15740.62816724271 14.90749520534249 0.25790226296207075
0.7449186732515382 12.986663239538254 13643.858360225919 15.609651859855784 0.2615530093222187
0.7678343017865307 12.986745567763093 11844.253930041767 16.341866357142347 0.26525705000104655
0.7910736039405156 12.988130320875834 10228.120599434678 17.10578695127654 0.2690194139353605
0.8146401613565651 12.99065834115727 8963.453884118184 17.90286737288445 0.2728425311132931
0.8385170626778178 12.994108120116767 7813.346946771345 18.73451512618953 0.2767278664423969
0.8626931793678306 12.998376387117 6820.151883982255 19.601988978814816 0.2806751412124091
0.8871602367082047 13.003320552268395 5960.45705942724 20.507413802063223 0.28469108301882523
0.9119147503077653 13.008810073578234 5215.445278038824 21.45258196688109 0.28877870171976405
0.9369299424106277 13.014698735224098 4569.204459661352 22.439031141644964 0.2929383562821323
0.9622030244277447 13.020898861479038 4008.3093477200955 23.46867750622908 0.297172977891997
0.9877217375694578 13.02728606957814 3519.7260195347344 24.54399309919552 0.30148908618230935
1.0134585078627658 13.03374656233704 3094.704951779002 25.66698319635567 0.3058887882995611
1.039415061542432 13.040196592625518 2724.00664994943 26.839480057666858 0.3103723975442691
1.0655630696176386 13.046536403936766 2400.314053178498 28.064638986332678 0.3149491055259432
1.0918856635129817 13.052659280891037 2117.6561668142676 29.34458803750122 0.31961986932966985
1.1183783877494577 13.058494153960162 1870.4129806167277 30.681932542168298 0.3243883531600552
1.145004381190622 13.063957543256679 1653.66911243578 32.08022468856686 0.32926365196927854
1.1717604582259433 13.068965115500257 1463.5980635583073 33.54123732639729 0.33424237842499194
1.1986105786725207 13.073430208070091 1296.7384592660223 35.06958856122948 0.33933862045924645
1.2255519435258124 13.077297850895013 1150.1603572584784 36.66739685412336 0.3445497299866398
1.252540831978094 13.08047409174091 1021.1939480305008 38.339526115677785 0.34988901514726384
1.2795783607899898 13.082913932200146 907.6595100817561 40.088387378433616 0.35535409427302883
1.3066175934869586 13.08450943206779 807.643099052636 41.91937679163141 0.3609590913031903
1.3336482705250803 13.085235689472944 719.3309970722831 43.83583856637912 0.36670518812889435
1.3606527156907542 13.085040250991996 641.3207512195185 45.84269869171859 0.3726014748986996
1.387580415422687 13.083794969124886 572.4226593276918 47.94516465263791 0.3786572295986854
1.4144323741226377 13.081513388226456 511.3842779493646 50.14784268034507 0.3848773580919001
1.4411600437047023 13.078091929471451 457.3782590100512 52.4562265782981 0.3912702741578115
1.467743837105939 13.07348768544576 409.47217070875945 54.87658609821753 0.3978469327543891
1.4941507196349053 13.067635249567964 366.9498530724506 57.4151020171806 0.4046163796594537
1.5203595898308906 13.060505901133798 329.2097086462883 60.078392407540726 0.41158836948641486
1.5463408488149142 13.052038341974747 295.63079039061427 62.87355199496082 0.41877342402697915
1.5720562202825186 13.042171378669735 265.7735370458766 65.80819528346625 0.42618289535397813
1.5974779594293946 13.030866090475358 239.20025208118227 68.89050382975543 0.43382903424147534
1.6225646305736732 13.018065167982561 215.48558772710825 72.129278096512 0.44172506452752397
1.6473154391592328 13.003749524826226 194.32065347776458 75.53399436833587 0.4498852641205319
1.6716658614391593 12.987837949610682 175.44038623110723 79.11478003468444 0.45832468907954327
1.6956053980461285 12.970312410418765 158.5513081499964 82.8814059485262 0.4670548836777916
1.7190687824984772 12.951087905401929 143.45449124698524 86.84678680780127 0.4760982049616571
1.7420752010889151 12.930211744790485 129.94057328565606 91.02271819676528 0.4854699092656354
1.7645600783186701 12.907597389707949 117.81491514236752 95.42279866207812 0.49519001196967116
1.7864868141636208 12.883179116687161 106.94968398430566 100.06115866783983 0.5052779120039275
1.807827562646922 12.856950693100762 97.19989413489274 104.95405697953564 0.5157583208664209
1.8285529523187642 12.828868063133042 88.43944825598793 110.11783742722154 0.526653108596681
1.8486277618964555 12.798911752578302 80.56170649774697 115.57032400242664 0.5379864554329468
1.868019652939198 12.767037448510676 73.47101728814746 121.33173533824403 0.5497877971622157
1.8866968319805946 12.73322373015927 67.08862908283957 127.42335221243069 0.5620864939941387
1.9046266095445363 12.697439387626206 61.330654055928065 133.8678795767077 0.5749128673638502
1.9217614367009455 12.659613367772206 56.143652559461586 140.69033988520613 0.588300970931241
1.9381064784596957 12.619837855384015 51.45048107578274 147.9186643750514 0.6022900920969432
1.9536023551353021 12.577998406317077 47.219546054574636 155.58165063637063 0.6169171334078352
1.9682345233443757 12.534115626426622 43.39124234741935 163.71235296013705 0.632227785481048
1.9819623551175347 12.488163955874386 39.92544372724282 172.34468214636152 0.6482642297031822
1.9947608280929552 12.440120483441918 36.78871968079173 181.51800245980434 0.6650800373368747
2.0066061716326025 12.389991754702848 33.94633706941505 191.27406257939987 0.6827289462979741
2.0174721754397096 12.337774960102987 31.364874796840144 201.65879937154764 0.7012700627621
2.027323292300286 12.28343766621861 29.025721649920477 212.72246644683975 0.7207672727880858
2.0361488301847404 12.227012937550514 26.900565334471892 224.51961620720442 0.7412880800924564
2.04390652951225 12.168469095110735 24.968342278317227 237.11211258781512 0.7629121799059729
2.0505866181464847 12.10780995455019 23.214836282068458 250.56590179131183 0.7857194666320068
2.056170572392196 12.045085357536028 21.61775967914764 264.9545552425801 0.8097999746300151
2.0606422056469684 11.980305933002633 20.163792357085544 280.3597299940056 0.8352535097324641
2.0639735761646674 11.913471157935591 18.84216226430718 296.87040580247236 0.8621850299299445
2.0661473724567347 11.84460595784313 17.637485744846735 314.5867475673457 0.8907148151813098
2.067161598877262 11.773766379474681 16.54145540430198 333.6185270081076 0.9209704972876344
