M[M_sun], R[km], Lambda[1], P_c[MeV/fm^3], rho_c[fm^-3]
0.24162668629717493 15.618656898711224 2160425.4255784233 3.5677272577965504 0.1711233750220791
0.25364477138387487 15.277264736302108 1723201.4857244436 3.7848340918000813 0.17388835361159738
0.2660407986554567 14.981261185753684 1382915.1160058265 4.0114319384389026 0.17666702914021123
0.2788169814951213 14.723486572149774 1116406.7399359546 4.2477764397458335 0.17945807355747725
0.29197253191646677 14.498370174454918 905809.769241016 4.494492960708694 0.18226805638943547
0.30550908886187134 14.301188867948396 738633.799570545 4.751737558336647 0.18509269274598994
0.3194264930367683 14.128085037183874 605059.0994447271 5.020191821880982 0.1879385860744056
0.33372673500207434 13.975871096817535 497641.1359713811 5.30008072590485 0.190802377324845
0.34840770386350756 13.841971087224843 410971.7140174492 5.592131887499701 0.1936903428044496
0.3634706452893328 13.723948899102568 340635.07136643975 5.896513865285981 0.19659756904968878
0.37892529868958413 13.619987320789072 283277.46374067257 6.214090248374972 0.19953172632738828
0.39475854291008855 13.528419729389958 236377.25711486346 6.545117017676324 0.202488967318583
0.41098559620528813 13.44781765003766 197837.56739705906 6.8902994945728455 0.20547305241561498
0.42759420124610864 13.37704209389168 166063.0921705687 7.250341577853964 0.20848703248656703
0.444590937294359 13.314881791577646 139774.84798879203 7.625500290164262 0.21152642271754862
0.4619740100261028 13.260523040003958 117967.54216907649 8.016728581098198 0.2145974455981048
0.4797404641631251 13.21313720150207 99797.21203207722 8.424729791162012 0.2177017199121629
0.49789807871348823 13.171953813959606 84629.76112394276 8.849942267182382 0.22083667666554377
0.5164385209868241 13.1363718726624 71926.88396742154 9.293244406755356 0.22400579510187366
0.5353582814103195 13.105812409523429 61265.41566247611 9.755518853301224 0.22721196077930086
0.5546661229371365 13.07977934638238 52295.60490658801 10.237575384536797 0.23045652493821567
0.5743505655953022 13.05781576649553 44722.7279915717 10.739881306405438 0.23373613425948
0.594409024946164 13.039501820601696 38320.21522849053 11.26368915384166 0.23705707444282206
0.6148477147288253 13.024480297872039 32895.7902986369 11.809933101524592 0.2404209140593903
0.6356531689556217 13.012431885753987 28286.40496267957 12.379592404441139 0.24382928650778146
0.6568254063524437 13.003015152854152 24366.043834142863 12.973350960297704 0.24728008375720678
0.6783583512850966 12.995969820388696 21023.28549390934 13.592545940532633 0.25077820633412606
0.7002481297912879 12.991046023165524 18168.04975833379 14.238370452230823 0.2543262360755225
0.7224855513609111 12.987996716933505 15726.040326110611 14.912014509178716 0.25792615822501735
0.7450738332602733 12.986639170320853 13630.925763176603 15.614499970469971 0.26157778964779954
0.7679957479270907 12.986758870530421 11833.303169595549 16.347108923377082 0.26528318287884567
0.791242598882505 12.988149536441442 10286.389576444557 17.111450281946098 0.2690469527946419
0.8148195295478486 12.990664251814989 8954.247770742764 17.908979520939347 0.2728715328187741
0.8387023002353937 12.994147800504823 7805.622730726141 18.741048982862495 0.2767578861331009
0.8628839008354864 12.998419844048273 6812.513895147442 19.609029493437255 0.2807067275612998
0.8873690933695844 13.003371288733929 5953.894146787388 20.514994857066547 0.284724304377311
0.9121263509299697 13.008852733433224 5209.670811002316 21.460739764742215 0.28881363104781327
0.9371462451811612 13.014749671654053 4564.025405796593 22.447731701701066 0.29297449345525767
0.9624332673819453 13.020966506595322 4003.588980698126 23.478030004885518 0.2972109611679389
0.9879551940198212 13.027343513961773 3515.5989016630133 24.554041553150178 0.3015290039196461
1.0136992597015326 13.033804040540318 3091.02703949628 25.67768871175001 0.30593010294523376
1.039665606598542 13.040257662473447 2720.7221836594626 26.85097349945958 0.3104158176977431
1.0658182797674736 13.046583545749426 2397.4800645852956 28.076974148992313 0.314994738656361
1.0921517295798766 13.052721702829345 2115.066019569336 29.35772120606171 0.319667140672681
1.1186516456446485 13.058550618586539 1867.8341323973534 30.696020497715846 0.3244380493361259
1.145286011721183 13.064006012019348 1651.6284240453226 32.0952214544208 0.3293151793796307
1.172049729182772 13.069017263798393 1461.5873529117164 33.55731879439302 0.3342965746302063
1.1989074227564798 13.073471075956094 1295.033155657425 35.086830623204264 0.3393956352838635
1.2258537405630887 13.0773385178356 1148.6644111476348 36.685749479164556 0.34460893271409737
1.2528509359229785 13.08049707066892 1019.8330727704165 38.359158593738336 0.3499510936332169
1.2798951224533517 13.082944131658024 906.4164240353525 40.10933211304594 0.3554188902847356
1.3069394966121384 13.084526733774167 806.5115528321612 41.941678506945394 0.36102651276727954
1.333977960413263 13.085236962903394 718.345291519594 43.859747271708436 0.3667762571658049
1.360987613336023 13.08503147891475 640.4071224967277 45.8681642953535 0.3726755254148292
1.3879204937711003 13.083770388627531 571.6127353796364 47.97229591262827 0.37873445392277927
1.414770749280759 13.081459524728016 510.65322101760563 50.17693706188421 0.3849588837552399
1.441501870335022 13.078021430004494 456.73007859321194 52.4872378998722 0.39135541962791587
1.4680976960061365 13.07341833885143 408.8753783701083 54.90965165726799 0.3979359392926418
1.4945077369253092 13.067550283986469 366.4123471907388 57.450370231573764 0.40470950717652926
1.5207198294199447 13.06039942392593 328.73341570333673 60.11602381112584 0.41168589807363665
1.5467042796864299 13.05190724564197 295.1844223632775 62.91372033245747 0.4188756556394326
1.572420534147504 13.04202445762311 265.37426702768147 65.85108871574288 0.42629015566166156
1.5978358210392303 13.030682888062838 238.8275582113682 68.93632626190278 0.43394167466667793
1.62293202848315 13.017861807231226 215.16190083436635 72.17825064264629 0.4418434644888034
1.647684019712538 13.00351949238108 194.02852394379133 75.58635696878673 0.45000983350609913
1.6720331332778218 12.987582485982747 175.16921664326097 79.17051986869315 0.45845472947458044
1.6959703064158864 12.970023589872877 158.3089016617029 82.94106676379404 0.4671919840575166
1.71945047241814 12.950806788028856 143.22785784758642 86.91067567554165 0.4762428818131681
1.7424272307899122 12.929829482691108 129.74392948452498 91.09086171200126 0.48562150350430916
1.7649144010813183 12.907205992910123 117.63650310979438 95.49585317116994 0.4953503098748978
1.7868409458319294 12.882764131306859 106.78741282624033 100.13918777819757 0.5054462954388823
1.808178118406773 12.856500360782029 97.0493215023299 105.03746525145297 0.5159354385066679
1.8288912003827167 12.828370229602639 88.30003903415057 110.20723405792242 0.5268402871142389
1.8489648985014857 12.798382339128972 80.43549681500406 115.66621934382847 0.5381845421173447
1.8683403483881822 12.766437511301149 73.36081283567336 121.43447176874051 0.5499969308860049
1.8870175235395332 12.732611829003785 66.98534297835982 127.5334313575106 0.5623073044238188
1.904938873102352 12.696787119586434 61.23374778568877 133.98567782382878 0.5751454376796982
1.9220782378835812 12.658961710512205 56.05133639342727 140.8168632861078 0.5885474866306152
1.9383900487686945 12.619065296593519 51.37247308452354 148.0546704803941 0.6025517066072955
1.953883975309728 12.577214170936193 47.147076973323266 155.72752361490936 0.6171935773042571
1.9684987332362507 12.53327441806784 43.32547835591044 163.86916819451346 0.632521008207997
1.9822110391317982 12.487266013092512 39.864973803563196 172.5134983785226 0.6485759304178826
1.9949957844919268 12.439179649646224 36.731169121724115 181.69962311892934 0.6654108618857839
2.0068312008225804 12.389010815719837 33.89148251108261 191.46966686943918 0.6830805864760985
2.0176752263067925 12.336727031409422 31.31663818365021 201.86968807822188 0.7016443694139912
2.027508642716022 12.282334693554935 28.980867778059277 212.9495443600789 0.7211645320116578
2.036314731096394 12.225856877533369 26.859570123898813 224.76498470103368 0.7417122053754357
2.0440555344878137 12.167253554659014 24.93303695472924 237.37696683725636 0.7633637807311962
2.050712301890799 12.106535824252669 23.17951485213226 250.85251253906117 0.786202286355067
2.056281919703953 12.043778671795634 21.58675847542911 265.26491880547854 0.810316437630421
2.0607249991267707 11.978919902518278 20.136140844424222 280.69552813312214 0.835804531815496
2.06402575019073 11.912015346422587 18.81542289825903 297.2345620747016 0.8627750283408828
2.06618188277083 11.843102803598935 17.613177121154116 314.98233014007343 0.8913480650751431
2.067169718159596 11.772202140925192 16.51775560515396 334.04814444051965 0.9216490437045308
