M[M_sun], R[km], Lambda[1], P_c[MeV/fm^3], rho_c[fm^-3]
0.24162668629717493 15.618656898711224 2160425.4255784233 3.5677272577965504 0.1711233750220791
0.2536397729983846 15.277419846222656 1723215.7394472244 3.7847597973749747 0.17388742756742923
0.2660327734588626 14.981399541250632 1383252.7114938868 4.01127575788344 0.17666514179036993
0.2788041804996151 14.72372798307373 1116634.0897757288 4.247533090416411 0.17945525107197557
0.29195508004549736 14.498630247095065 906114.8080965898 4.494156058162723 0.18226430490139506
0.30548622411318477 14.30148156884298 738874.8460404045 4.751295664602857 0.18508791945029812
0.3193977114407752 14.128423616785778 605245.9598080087 5.019641683161519 0.18793287817285714
0.3336916962423844 13.976214697522302 497857.08872027544 5.299407860263221 0.1907956026843198
0.34836744982312845 13.842316209001583 411177.00916867657 5.59133461629871 0.19368262898625827
0.3634249300590346 13.724266982434463 340815.37389488297 5.895574278776398 0.19658874425435308
0.3788722833284888 13.620301411000403 283437.91842688853 6.212996978230093 0.19952175702004993
0.39469941102036177 13.528761708919845 236528.31197659686 6.543871200325333 0.20247804318343163
0.41091945136952657 13.448122165587701 197987.66505543064 6.888877082347802 0.20546093855621436
0.4275202566311338 13.377318974952422 166197.8153574045 7.248729225463595 0.20847369390845202
0.44451128415620544 13.315140344014344 139892.37994037932 7.623702455211172 0.21151211079531793
0.46188506006406155 13.260782000438553 118064.39849311399 8.01471390873896 0.21458186047861347
0.4796426498601966 13.213358102359928 99883.64389747649 8.422482574257247 0.21768482398259068
0.4977934044242834 13.172179096602964 84706.35988982968 8.847470792575074 0.220818782133407
0.5163250126872421 13.136570519368295 71996.77939466995 9.290508683181864 0.22398653543736377
0.5352352303374847 13.105997778401578 61328.35381267742 9.752500335432833 0.22719129440817926
0.5545350322934578 13.079940593667905 52347.42343794442 10.234254400312356 0.23043440847880106
0.5742079501819751 13.057949388313679 44768.75443129903 10.736272285993918 0.23371296323050342
0.5942608745637028 13.039645332529078 38361.277776651106 11.25973782989202 0.23703238649928038
0.6146883469567956 13.024587515439652 32934.28984615457 11.805616136139603 0.24039465970715188
0.6354814995527439 13.012507492453478 28322.392806116444 12.374885003928982 0.2438014136400459
0.6566454727589915 13.003075337069863 24396.010443413128 12.968274741480345 0.24725107017204825
0.6781692716141261 12.996020843092987 21050.25187742488 13.587028830109052 0.25074748854140994
0.7000481301089923 12.991096780048403 18192.744426847876 14.232382874365882 0.2542937531733814
0.722273542025759 12.9880144019989 15746.7544479087 14.905524987984888 0.25789184568022205
0.744852499426795 12.9866545199986 13650.028223113824 15.607538317530247 0.2615422062958186
0.7677635931448351 12.986755512195675 11849.615752743171 16.339580877732665 0.2652456574594073
0.7909995721325247 12.988130042929368 10301.573480567245 17.103318069755343 0.2690074086005564
0.8145629993733693 12.99064693085335 8967.911703600577 17.900202864328612 0.27282988821071713
0.8384371075913261 12.994091736486313 7816.770559253592 18.731666806653248 0.2767147798878878
0.8626087053650835 12.998359319584758 6823.292354380836 19.598919826739717 0.28066137186266105
0.887074052885561 13.003297172328873 5963.2554322167725 20.50410905274367 0.2846766010948975
0.9118239841259159 13.008794750681522 5218.003091395688 21.449025844856532 0.2887634754350616
0.9368355382897847 13.014676023609246 4571.577969486814 22.435238456946927 0.29292260362912387
0.9621035062405559 13.020874684903818 4010.224852727365 23.46460068213884 0.29715642069802406
0.9876186307613384 13.027265728044416 3521.4609997204943 24.539612955959598 0.3014716859525846
1.0133564826310442 13.033728879944615 3096.603750628758 25.66231668427646 0.3058707793307279
1.0393060801225529 13.040171537923907 2725.454886438632 26.83447015154656 0.31035347102107813
1.0654508221550847 13.04651371779458 2401.7580754022692 28.059262246897582 0.3149292146287873
1.09176965188646 13.052632102879354 2118.821904441279 29.3388635149384 0.31959926456331844
1.1182595684335157 13.058468769414528 1871.4396955117445 30.675791921773005 0.3243666917237085
1.1448802042943669 13.063931795406015 1654.5173907785363 32.07366063493459 0.32924101551524515
1.1716345703259723 13.068945402432607 1464.3493213191948 33.534227941114295 0.3342187560738904
1.1984813300524058 13.073410092576522 1297.4723641270123 35.06207340894651 0.33931376988800904
1.2254190626514672 13.077288833306346 1150.8575604184932 36.659397735137055 0.344523926067027
1.2524075137724877 13.080457469681573 1021.9225755969701 38.330951040768085 0.34986185118979324
1.2794414718238936 13.082901765584532 908.2185391413418 40.07925869230632 0.355325853167848
1.3064763984272187 13.084506098911845 804.7086162959646 41.90965677857418 0.3609297062311428
1.333505555129714 13.085227321160637 719.7972311087508 43.82541830511672 0.3666742137234602
1.360503069470117 13.085048683958515 641.7252872663831 45.8316000067394 0.37256920143042255
1.387432993085355 13.083803475577753 572.7809925476814 47.93334016255243 0.3786235732828737
1.41428168569694 13.081528216900297 511.7083633447846 50.135162796403506 0.3848418276597438
1.4410079565312663 13.078116407539648 457.66525159321026 52.44271142004713 0.39123316659694657
1.46758958852105 13.073519850217119 409.7407681603599 54.86217585420765 0.39780814296914035
1.4939954270942526 13.067672500851797 367.2045542799526 57.39973203273808 0.4045757944324086
1.520202930978565 13.060556415767374 329.4219656322934 60.06199275129886 0.4115458668117385
1.5461824601194645 13.052093952852502 295.8283691190042 62.85604698215391 0.4187288723776753
1.5718968127491986 13.042242367275529 265.97223689819805 65.78950295117517 0.42613615287601714
1.5973128676550903 13.030931430275034 239.34941548182167 68.87053535870312 0.4337799478668642
1.6224044572536738 13.018151837434285 215.6191517432389 72.10793717335146 0.44167346899747034
1.6471562008873482 13.003843795357865 194.4575294867332 75.51117648161244 0.44983098090876233
1.6715100494096853 12.987948117094588 175.56277031685303 79.09045893707706 0.4582678895593268
1.6954454971218484 12.970435083416215 158.66859922692072 82.85540845994002 0.46699514152473753
1.7189113115378012 12.951225910020497 143.5611114675219 86.81894735981679 0.47603516230924126
1.7419245092838942 12.930380968588633 130.02671034040893 90.99302519821504 0.485403853273461
1.7644039945727812 12.907764878717733 117.90456062392873 95.39096625976921 0.49512016457117536
1.7863306273271813 12.883362268718406 107.0220787839176 100.0271591502557 0.5052045425200082
1.8076745824325444 12.857141805682392 97.26797387898252 104.91771415099365 0.5156811467938345
1.8284034520165047 12.829086781346554 88.49908114862778 110.07880545237774 0.5265712523615372
1.84848045642797 12.799140542634888 80.6170882901553 115.52854168919899 0.5379001475917863
1.8678767869910382 12.767287317497937 73.52051949234318 121.28697304827502 0.549696677543388
1.8865565413520635 12.733491732153055 67.13442549162774 127.37535880164997 0.5619901716016479
1.9044904660717779 12.697724392662133 61.373631737379725 133.8165565109812 0.5748115396964355
1.9216448688351644 12.659968048860339 56.18024770069995 140.63521639129837 0.5881935694027034
1.9379791573204834 12.620161812350318 51.48985765256285 147.85941058326608 0.6021761144803841
1.9534785411594282 12.57832651074373 47.25564468142783 155.51809924126604 0.6167966971525277
1.9681173306008595 12.53448212233082 43.42147021962521 163.64391953499032 0.6320996484070307
1.9818527077630692 12.488548310628357 39.954548790177235 172.2711380752436 0.6481284386170053
1.9946577203264229 12.440529297778768 36.81576435694712 181.43888172686042 0.6649359178247463
2.006509849056353 12.39042467806053 33.968994036551535 191.1888517685654 0.682575761801387
2.0173836363099533 12.338230693717847 31.38654789795324 201.5669321494283 0.7011070075047924
2.0272412354868203 12.283914918567174 29.045753116305022 212.6235488548206 0.7205942223788999
2.036076036039427 12.227517854963446 26.918661508393452 224.41273344276613 0.7411033306896071
2.0438447724892197 12.168997979754266 24.986128287643517 236.99674429898718 0.7627154663756098
2.0505307122699463 12.108365200496387 23.228759328570437 250.44096492077497 0.7855088513088746
2.056125145924787 12.045663007227763 21.631760299604363 264.81936990694345 0.8095750183774132
2.0606054854557128 11.980909160444002 20.177459808576526 280.21326901449453 0.8350128514539177
2.0639474172619785 11.914102017460301 18.853838963481717 296.71179757029313 0.8619280561742143
2.066132899717221 11.845262952049213 17.648784387560447 314.4144561566444 0.8904390105198894
2.067157172961012 11.774448802894439 16.55144001199706 333.43141697119216 0.9206749719305707
