M[M_sun], R[km], Lambda[1], P_c[MeV/fm^3], rho_c[fm^-3]
0.24162668629717493 15.618656898711224 2160425.4255784233 3.5677272577965504 0.1711233750220791
0.25363185734156923 15.27761493722841 1723546.057097808 3.784602815801637 0.173885470867848
0.2660158994044537 14.9817809027616 1383530.7120093023 4.010945768029487 0.17666115405773158
0.2787776659592205 14.724179731129395 1117094.9018751727 4.247018945444714 0.17944928776510383
0.2919169635885349 14.499234111374134 906626.495555402 4.493444284343355 0.1822563791347223
0.30543743080485397 14.302133771494551 739396.3567982373 4.750362114589374 0.18507783532844554
0.3193375630584429 14.129096503304876 605730.9594387643 5.018479498959923 0.18792082006320368
0.3336201773179475 13.976952008052937 498364.9843496202 5.297986469170161 0.190781291634527
0.34828428339608186 13.842998051273037 411620.1267995437 5.589650488748737 0.19366633458892477
0.36332719311621164 13.724987763891273 341223.668923239 5.893589607616506 0.19657010380281817
0.37876113206887146 13.62098290386361 283808.310418016 6.210687774318538 0.19950069986083907
0.39457517184330376 13.529394573228155 236873.30016528524 6.541239880402207 0.2024549700624449
0.4107793854798623 13.448774408087656 198274.878381571 6.885872887486217 0.20543535357211165
0.42736553025700086 13.377941842080915 166451.0681397536 7.24532399874423 0.20844552334048755
0.4443397868263673 13.31574966102846 140137.16230451822 7.619905625994103 0.2114818855933969
0.4616981698151908 13.261322193523874 118277.7068269334 8.010459302347012 0.2145489476584702
0.47943947946249565 13.213852981180295 100081.18793266374 8.417737054946652 0.21764914431148935
0.4975730657145133 13.172646622618897 84876.60368509278 8.842251872304708 0.2207809949207765
0.516083348713672 13.136992057040423 72153.62083669027 9.284731971005195 0.22394586702350402
0.5349783361574703 13.10636836897006 61460.40771210263 9.746126713106651 0.22714765721597932
0.554259106641705 13.080279847970115 52464.2468789161 10.227242374797836 0.23038771112427436
0.5739119471589034 13.058247391786471 44873.61068359164 10.728652331743032 0.23366404076384634
0.5939464850917695 13.03991486513371 38453.2993926344 11.251395451072316 0.23698026316544868
0.6143514192700285 13.024824576858844 33015.79775500333 11.79650211356853 0.24033923124350887
0.6351230432665931 13.012683951422138 28393.66776984784 12.364947050470139 0.24374257028019045
0.6562622932525118 13.003209337412468 24461.046420844155 12.957558489568738 0.2471898204705274
0.677768304542342 12.996133049216471 21108.288582149686 13.57538224505557 0.250682643476139
0.6996259152002455 12.991172396060428 18243.12657028829 14.219743591486106 0.2542251844468982
0.7218285434968958 12.98805323185546 15791.971258023323 14.8918266389793 0.2578194173453978
0.7443833823090558 12.986673515349738 13689.578604135935 15.59284381254887 0.26146709773360416
0.7672714218653428 12.986732348586528 11886.084146277835 16.32369141746473 0.2651664524851859
0.7904855284092294 12.9880779753181 10264.576340628697 17.08615401600088 0.26892394561938465
0.8140209669382775 12.990563544769795 8995.544450734236 17.881679303451445 0.27274199523885306
0.83787480317004 12.994001937214149 7842.827637698702 18.71179257134253 0.2766231549799918
0.8620254277120759 12.998257798545941 6845.621091829612 19.57758429723338 0.28056565279738044
0.8864617339589896 13.003162654682944 5983.182947119117 20.481136399750753 0.28457593136751635
0.9111891482039883 13.008633028070712 5236.132552558349 21.42430650741504 0.2886576343905356
0.9361784985242334 13.014519944193848 4587.526835659764 22.40887533703667 0.2928131062379009
0.9614195903646312 13.020696404960153 4024.383640923893 23.436263317995646 0.29704133424238727
0.986910652478483 13.027080325659398 3534.19199552649 24.5091681572043 0.3013507432199544
1.0126189309920135 13.033535493611453 3107.750497235854 25.629810787998636 0.3057450833229453
1.0385440013800828 13.039977397018031 2735.5815228755246 26.79964995230381 0.3102219265783965
1.0646691259022396 13.04632105858654 2410.7979202709325 28.021893574446505 0.3147909716602466
1.0909648561235779 13.052439232206593 2127.0974644842145 29.29907869187024 0.3194560636282789
1.1174299671606025 13.058292562736781 1878.5204665412869 30.633116562103993 0.32421615162718176
1.144030290394403 13.063771069360088 1660.962267067086 32.027894818500606 0.3290827395186756
1.1707594025352845 13.068788185157302 1470.2356762319766 33.485517659769066 0.3340545974035168
1.197583361711785 13.073262414609761 1296.7856883428165 35.00985004667092 0.3391410813867492
1.2245004752168231 13.077162605146434 1155.5592712790733 36.603812678757464 0.3443446172795282
1.2514664780524518 13.08035647636393 1026.1267457822648 38.27136564606153 0.3496730977217801
1.2784809055077764 13.08283674277913 911.9766199951206 40.01582811097827 0.3551296201400071
1.3054980882819924 13.084466560718509 811.5256745526225 41.84205663554741 0.3607251794460703
1.3325157197225153 13.085251626867612 722.836496870205 43.75301760023071 0.3664590013856517
1.3594932109644398 13.085074272775655 644.5330837224844 45.75448770921948 0.37234496934414846
1.3864017987973003 13.083864025067415 575.2705896435882 47.851078331691525 0.3783891694719307
1.4132277580617392 13.081618826432598 513.9517810434011 50.04707010614357 0.3845949822336203
1.439947573990708 13.078276149019397 459.6901256272922 52.34881847427699 0.3909753717465085
1.4665127329445713 13.073715371078983 411.56788498343366 54.762067542181526 0.39753866939725335
1.4929109625741783 13.067941923192203 368.84747949050876 57.292959650487674 0.40429385651685734
1.5191095377350798 13.060889046139268 330.9232816874325 59.948070997062366 0.4112506179853326
1.545081478060961 13.052482413647304 297.1754946596092 62.73445065231806 0.4184194000509062
1.5707883481302207 13.042696690379426 267.1687847772405 65.65966330341163 0.42581147285323867
1.5962055344964259 13.031468512554106 240.4375838714837 68.7318361049329 0.43343899820121295
1.6212999878762837 13.018763154410987 216.6193401589467 71.9597100605787 0.4413151032232113
1.6460393841028471 13.00452608025663 195.36457016085168 75.35269641347669 0.449453960582378
1.6703874861490775 12.988699901449213 176.38048522360188 78.92093858306998 0.45787087603229737
1.6943276162321206 12.971291409310687 159.4210327226245 82.67485672722684 0.4665802341688146
1.717822593914073 12.952210788460675 144.23576675586227 86.62561056718822 0.4755973495974493
1.7408263686411993 12.931428505826114 130.64804810638466 90.78681150603106 0.48494508402618486
1.763306022885235 12.90888968654238 118.47061978004149 95.16991559072237 0.4946351300450707
1.7852549642840414 12.884615532124986 107.53771390101649 99.79106784294731 0.5046950677213681
1.8066059954638456 12.858486831968396 97.73821302137573 104.66485472456687 0.515143361755932
1.8273586394788477 12.830563985010592 88.92373024880625 109.80779036077443 0.5260028907771038
1.847446122362557 12.800712261332839 81.00618575314303 115.23844101824646 0.5373008997116437
1.8668745457484208 12.769007551704465 73.87510505138549 120.97619430787951 0.5490640459156456
1.885569398530994 12.735306486631801 67.45636167549465 127.0421604766191 0.561321445221947
1.9035314760818984 12.699671400275031 61.6752835221241 133.45934726189023 0.5741048838356506
1.920720189436337 12.662057166921485 56.451731003877015 140.25254782395402 0.587447985512015
1.9371065893230817 12.622454221677968 51.74034599083477 147.44808798886714 0.6013849150054826
1.9526483479123597 12.580783232931665 47.480208224050756 155.0768068744084 0.6159601671161008
1.9673118430725538 12.537042643842321 43.62972589911046 163.16891730681596 0.6312102380707887
1.9810999133787466 12.491285314430163 40.14280412910484 171.76068537385092 0.6471859435156275
1.993952023284012 12.443427677253581 36.986040101696375 180.8897483381869 0.6639356637431119
2.005843492145699 12.393453687083909 34.12561258104211 190.59747919436313 0.6815126442322963
2.0167568155840976 12.341385889942712 31.536375328622693 200.9293954280424 0.6999754427121443
2.026671867528693 12.287244648205785 29.18084679119242 211.93561840663733 0.7193884364719368
2.035559573350251 12.231002910845797 27.042209093198807 223.67106814943347 0.7398213445735351
2.0433964532695352 12.172672723743178 25.100128747326696 236.19488360349854 0.7613461107171189
2.0501517063897916 12.112230397564137 23.334576292457513 249.5741168664782 0.7840475414307122
2.0558109557278708 12.049709836334356 21.728426731830197 263.8814679787639 0.808014295077969
2.0603473003808315 11.9850977552517 20.267001347657537 279.19719752266457 0.8333432871991902
2.0637660300146923 11.91847938963382 18.935911049186625 295.6103880862505 0.8601417024055751
2.066024585020338 11.8498187033274 17.72350592914039 313.2193310487724 0.8885258502852037
2.067134237350707 11.779200541400794 16.619338553611755 332.1329357608109 0.9186230021227367
