M[M_sun], R[km], Lambda[1], P_c[MeV/fm^3], rho_c[fm^-3]
0.24162668629717493 15.618656898711224 2160425.4255784233 3.5677272577965504 0.1711233750220791
0.2536452797551612 15.277278880223447 1723107.406063585 3.784855850189594 0.17388862481942605
0.2660434471204489 14.9811964638519 1382934.8424574065 4.011477679401809 0.1766675818927535
0.2788213909813062 14.72338501402954 1116334.4220661381 4.247847711269949 0.17945890019975308
0.29197824607195644 14.49827646394815 905771.8413514354 4.494591633529956 0.18226915513420097
0.30551555082077064 14.301089730086924 738538.4844507234 4.751866983451654 0.18509409078424355
0.3194347749858588 14.127987039730606 604981.7209666232 5.020352953208706 0.18794025787412175
0.3337362281057962 13.975757949682789 497575.8787402715 5.300277806289921 0.19080436159730715
0.3484194078037295 13.84187226045517 410910.41219912586 5.592365409558295 0.1936926021946062
0.3634856267609505 13.723804071248207 340559.18323765165 5.8967890762401955 0.19660015388921162
0.37894055744759786 13.619873527179722 283217.591005565 6.214410479461662 0.19953464644931557
0.3947780291771355 13.528276779213831 236332.99542372985 6.545481936966191 0.20249216716777332
0.4110050363315303 13.447727712062889 197812.07135973082 6.890716147886963 0.20547660081007976
0.4276163505052104 13.376921725179379 166022.50930595986 7.250813875963546 0.20849093968778795
0.4446152422652289 13.314791711945189 139752.4295390781 7.6260269281955555 0.21153061509490484
0.4619974022921866 13.26044922915318 117931.72594695346 8.017318746289785 0.21460201100298978
0.4797685946073119 13.21305138927858 99766.25546051518 8.425388086665915 0.21770666937407201
0.4979287647737409 13.171889409500936 84605.8157899848 8.850666266179832 0.2208419187276263
0.5164718377218325 13.136312508142156 71909.5142110966 9.294045827663188 0.22401143715502755
0.5353943979815301 13.105755992238226 61248.39556554971 9.75640313131954 0.2272180150146899
0.5547047791295342 13.079729857579666 52277.56963321995 10.238540014237525 0.23046289773025688
0.5743911985688568 13.057777316616995 44706.86823085372 10.740938602655492 0.23374292242891473
0.5944516512241548 13.0394685109625 38306.83319706057 11.264846748557733 0.23706430711555626
0.6148934299453727 13.02446042981427 32885.498684919345 11.81119783496815 0.2404286057488883
0.6357021107582723 13.012414076457397 28276.028718873036 12.380971543694598 0.24383745249363742
0.656877606778077 13.003007328854768 24357.494015149518 12.974838172020519 0.24728858404955453
0.6784140625818167 12.995951171784744 21015.545633841102 13.594162347243794 0.2507872060536326
0.7003074706740153 12.991048426408303 18161.56975912759 14.24012472309971 0.2543357530806034
0.7225465225021139 12.987989062950472 15719.730992075005 14.913915870479599 0.2579362114389387
0.7451387767085257 12.98663992411846 13625.373954711238 15.616539686723579 0.2615882153242907
0.7680637560359929 12.986761447893862 11828.32620776532 16.349314621891242 0.2652941777327305
0.7913140193793009 12.988154845451712 10282.802902067293 17.11383303561922 0.2690585393188862
0.8148926271195592 12.99069268569611 8949.996819439046 17.911551136912372 0.2728837349526867
0.8387823368900785 12.994154815660597 7802.442979933504 18.743798053861294 0.27677051669193287
0.862966963083893 12.998423546450658 6809.319233353666 19.611991771378225 0.28072001743420993
0.8874526864164065 13.003381212064209 5950.944714403108 20.51818460321149 0.2847382823394961
0.9122143727174198 13.008876509107292 5207.349053513674 21.46417221709404 0.2888283278147903
0.9372375065552755 13.014783405036734 4562.152907867307 22.451392560060647 0.2929896985767067
0.9625272888461541 13.020987208609242 4001.4797424903422 23.481965220453908 0.2972269432476286
0.9880526061754956 13.02736799556193 3514.047525810177 24.558269653786407 0.3015458001563002
1.0138020373634236 13.03382383038973 3089.6884354096737 25.6821933285843 0.3059474871291375
1.0397697881636954 13.04028544844886 2719.253184753035 26.85580971497084 0.31043408804908956
1.0659262872587114 13.046615732507579 2396.459014621048 28.08216460775812 0.31501394042032016
1.0922640015189178 13.05274028919723 2113.9598592346947 29.363247509056574 0.3196870319702952
1.1187664822869496 13.05857662860675 1866.8179223969132 30.701948639239156 0.3244589612394834
1.1454036384410446 13.064033886613466 1650.6316845786425 32.10153208272875 0.32933686207692486
1.1721699424174683 13.069038950212857 1460.8781624008877 33.56408595073184 0.33431938064479116
1.199031153162517 13.073489014924009 1294.378269732927 35.094086256385786 0.3394196276957882
1.2259816400780286 13.077360841180429 1148.0196402685092 36.69347252970532 0.34463384607963937
1.2529816686519686 13.080520062311876 1019.3007305238707 38.367380411713484 0.34997698334982336
1.2800285624751764 13.08295316736328 905.8818287006285 40.118146172708485 0.3554461580407445
1.3070821993253146 13.08455625528266 806.026993725648 41.951063720784 0.3610548856905673
1.3341174632285433 13.085238254950385 717.9190853701909 43.86980889217895 0.36680616550533024
1.361128198971664 13.0850307239126 640.0184188808123 45.878881235185254 0.3727066888200737
1.388069450906229 13.083780126283331 571.2220410096313 47.983713959383806 0.3787669533696712
1.4149160901982851 13.081446396107104 510.3409218682298 50.189181453906066 0.384993193891045
1.4416496986054617 13.07799862913913 456.4456087143752 52.500289194731884 0.39139125359370297
1.468245989864981 13.073389648224348 408.6275617461888 54.923567660947654 0.39797339867180875
1.4946581442538358 13.067510768968377 366.17505822249734 57.46521343321846 0.4047487014067563
1.5208710490873045 13.060353268224087 328.5252323767304 60.13186180241939 0.4117269450920344
1.5468565931507376 13.051854500507286 295.00829779125826 62.93062626885466 0.41891868259164494
1.5725743462493253 13.041959258313717 265.1985874250655 65.86914182421465 0.42633529968177253
1.5979885417080584 13.030611448764148 238.66478646784475 68.95561240042908 0.43398908373560585
1.6230977957076793 13.017790549152297 215.01377045803557 72.19886291732438 0.44189329837975677
1.6478394207464289 13.003424051354859 193.88823000282218 75.60839641515689 0.45006226482671596
1.6721875348085788 12.98747376799429 175.0618121672011 79.19398108201663 0.4585094642168504
1.6961249204598823 12.969905851578703 158.19977524938983 82.96617871913 0.4672496912577408
1.7196040135646742 12.950675418244348 143.1323276920715 86.9375676846484 0.4763037789826747
1.7425877901717808 12.929724252321533 129.63941853688374 91.14065421750944 0.4854080497096306
1.7481425739365837 12.908684281401788 125.07617003438821 97.46578726458497 2.3665897844542165
