M[M_sun], R[km], Lambda[1], P_c[MeV/fm^3], rho_c[fm^-3]
0.24162668629717493 15.618656898711224 2160425.4255784233 3.5677272577965504 0.1711233750220791
0.25364539086064786 15.2772439556017 1723204.1920225653 3.78484531529412 0.17388849350703617
0.2660424979378029 14.981207541808475 1382949.527889408 4.011455532667255 0.1766673142625365
0.27881885557014163 14.723473562517352 1116338.4731083172 4.247813203147831 0.17945849995753915
0.29197529540663675 14.498322213928985 905795.4459424575 4.494543858201018 0.18226862314482517
0.30551217320616003 14.301135101170262 738558.4117325308 4.751804318375501 0.18509341388182302
0.3194303943983612 14.128044275129167 604987.0770469091 5.020274936464472 0.18793944842028862
0.33373059082529766 13.975832797421148 497608.18067245174 5.300182383504601 0.19080340084819403
0.3484137507194778 13.841919806692191 410940.3739456116 5.592252342162301 0.1936915082364462
0.3634792008514502 13.723857625608424 340611.10138583905 5.896655823537408 0.19659890235162775
0.3789340973135059 13.619894666928221 279321.83847521467 6.214255428442827 0.19953323257071737
0.39476858308651913 13.528353557086948 236356.95916942597 6.545305248293039 0.2024906178468045
0.41099560637173504 13.447782936775516 197825.10159624633 6.890514409967601 0.20547488272530245
0.42760564874549883 13.376963440201004 166042.804405057 7.250585195160994 0.20848904787011432
0.4446038929495526 13.314834416867146 139768.81576550636 7.625771936264122 0.21152858519517137
0.46198523790309914 13.260477888815453 117944.84005113487 8.01703299473558 0.2145998004836978
0.47975472369336847 13.213080208734235 99782.8201311005 8.42506934657953 0.21770427289421287
0.49791486383419875 13.171906944085817 83740.50142699166 8.850315712562212 0.2208393805696547
0.516455857413569 13.136335303096182 71919.66806997056 9.29365778637903 0.22400870532019554
0.5353761902484725 13.105790615150102 61258.25707343014 9.755974970554217 0.22721508359945178
0.5546867259155901 13.079765699999822 52288.03060063003 10.23807352373118 0.23045981948229435
0.574371801039301 13.057798034797747 44715.57631570862 10.740426666072812 0.23373963563747582
0.5944316063727528 13.039485607513573 38315.18696194215 11.264286247064657 0.23706080509208452
0.6148711365823212 13.024471397942953 32889.616943233086 11.810585456369072 0.24042488146527477
0.6356795702280801 13.012399177059518 28281.295929952234 12.380303769111064 0.24383349855077746
0.6568522035542708 13.00299891565378 24360.954225502694 12.974118068046206 0.24728446823052988
0.6783868503751336 12.995962316173465 21019.704782517805 13.593379686028943 0.2507828484056758
0.7002787593761907 12.991045881183426 18165.019618986655 14.239275306820613 0.25433114495583353
0.7225163816960337 12.988004712613089 15721.962499748319 14.912995231539174 0.2579313436738232
0.7451067852351704 12.98665501368991 13627.741776661494 15.615552054896481 0.2615831672055127
0.7680307122692417 12.986758710114927 11831.042460934992 16.34824661948111 0.2652888540085802
0.7912791542646646 12.988155270174268 10285.135919266084 17.11267930081508 0.26905292909722106
0.8148565366874285 12.99068364977367 8952.118665554737 17.91030595234982 0.2728778266409724
0.8387445950738222 12.994141031740071 7803.98397292116 18.74246694309469 0.2767644009266955
0.8629266652750089 12.998416870127766 6810.620563318853 19.61055742244312 0.28071358241513467
0.8874124426122221 13.003376081666858 5952.476052034567 20.516640110344426 0.2847315141322752
0.9121711759088609 13.008864168730474 5208.553762453787 21.462510201545356 0.2888212115455089
0.9371956391648677 13.014766188708673 4562.963813020131 22.449619946270428 0.29298233614819535
0.9624813104617534 13.020975665164919 4002.755238036003 23.480059757486504 0.29721920459634976
0.9880062843097746 13.02735977307124 3515.120809544184 24.556222369777124 0.3015376672688227
1.013751370756787 13.033817848358332 3090.1055094299145 25.680012149741067 0.3059390695399101
1.039719926017852 13.040274609783738 2719.921154970279 26.853467968515563 0.31042524135265875
1.0658744031878329 13.046599568665412 2396.8990720926113 28.07965132828847 0.31500464270670425
1.0922095363526547 13.052729982430742 2114.548543114474 29.360571605916057 0.3196774003620022
1.1187108424225056 13.058562817369802 1867.328486365615 30.699078155526937 0.32444883542218583
1.145345172268058 13.06401865038227 1651.0454278362938 32.098476389180995 0.3293263630148685
1.172111154852001 13.069031993177637 1461.1538219834904 33.56080919362324 0.3343083376354874
1.1989713531948551 13.073480703405487 1294.6532135592095 35.090572964654974 0.33940801019248995
1.2259217960665239 13.077343458774026 1148.3963612814969 36.689732901127066 0.344621782616728
1.2529181400822365 13.080507064297198 1019.6065576756096 38.36339926521925 0.3499644471011718
1.279963463309612 13.082949696264546 906.132155408339 40.113878243832396 0.35543295449462475
1.3070168038934356 13.084550049544557 806.2666574958081 41.94651922097022 0.3610411469791415
1.3340494132078444 13.085244164317684 718.0415340492287 43.86493685312854 0.3667916832856394
1.3610608058954465 13.085027397302646 640.2170849982534 45.87369186829096 0.3726915988460673
1.3880008068643863 13.083779956871396 571.41124999958 47.97818509202812 0.37875121642841975
1.4148459461957494 13.081450449548285 510.49877370226346 50.1832524391276 0.3849765801382449
1.4415785315062142 13.078009653241908 456.58293426980083 52.49396944750965 0.39137390193563537
1.4681742373328677 13.07340281890648 408.73614357901465 54.91682918850869 0.3979552599158909
1.4945866141799806 13.067528739958302 366.29629310347434 57.458025974863794 0.4047297225567586
1.5207980477910923 13.060376684295848 328.6327215008947 60.124192626423955 0.4117070690356365
1.5467825042336665 13.051880481675438 295.0869498239909 62.92243994909455 0.41889784775701416
1.5725050949055355 13.041987111190045 265.1563388500365 65.86039999426832 0.42631343965985324
1.5979138351489917 13.030645838573157 238.75008668434597 68.94627348261578 0.433966126864394
1.6230230347817483 13.017833379687271 215.08310485286114 72.18888182383854 0.4418691672864089
1.6477646835006792 13.003469088064664 193.95582616187284 75.5977242181001 0.4500368759228309
1.6721127713944848 12.98752572817241 175.11881952310446 79.18262039916067 0.4584829598737221
1.6960499079212448 12.969962205046729 158.25197496428376 82.95401866527139 0.4672217474893895
1.7195293617440857 12.950738188123996 143.1776859996801 86.92454563811141 0.4762742904542372
1.7425102949361038 12.929790060848145 129.68712989821285 91.10565550828998 0.48565441425565087
1.7649917766249967 12.907123929416972 117.59201268113044 95.51171335345528 0.49538511065623847
1.786902690838233 12.882644885882412 106.74690417880485 100.15612815757865 0.5054828520426492
1.8082533486410994 12.856403029607634 97.01645407712469 105.0555736942895 0.5159738918229881
1.828957719119747 12.828249056227364 88.2700500448781 110.22660640642248 0.5268807895417574
1.8490375779367199 12.798268026868888 80.4109457534455 115.68703939971816 0.5382275491683638
1.868411147459048 12.76631357447388 73.33310553592811 121.4567774201169 0.5500423370180979
1.8870840280624082 12.732480755520662 66.95729516980391 127.55726304034407 0.5623550016501663
1.9050049326874396 12.69664656837371 61.21219013275016 134.01125432783255 0.5751959336400356
1.9221442504326178 12.658810126943804 56.03467763170638 140.84433462904065 0.5886010112534721
1.9384533734810256 12.618903956354641 51.35595692007659 148.08420122059977 0.602608510455327
1.9539474121359508 12.57703993775719 47.131608461132096 155.75919719383356 0.6172536019068884
1.9685545953586003 12.533091059222828 43.31011857571506 163.90317660585828 0.6325845362030187
1.9822660440629167 12.487073591396555 39.85181454970619 172.55015485398957 0.6486436125918963
1.9950478405507097 12.438971076856463 36.71950216317262 181.7390605734719 0.6654826977560645
2.0068788847031582 12.388794335748798 33.880740021273475 191.51214147979653 0.6831569435925442
2.0177189040062125 12.33649965990603 31.30676754957376 201.91548244200635 0.7017256498924671
2.027549409583293 12.282098891235892 28.971627790817458 212.99885503029168 0.7212507980790314
2.03635217031959 12.225606280047636 26.851725878067555 224.8182682420203 0.7418043072445323
2.044088192055912 12.166991226643454 24.92506581662571 237.43448290294162 0.7634618509067053
2.050740497101838 12.106259862210809 23.173221390520432 250.91467679793945 0.7863068851249843
2.056303725228851 12.0434903084092 21.579773800975502 265.3322045797426 0.8104282203712775
2.060740843374791 11.978618993347482 20.128417458900703 280.7684234008953 0.8359240970208689
2.0640381817852242 11.911698979981072 18.80971967378183 297.31364910177933 0.8629031634956504
2.06618653330239 11.842772119774601 17.608530161248915 315.0682442137332 0.8914855966090746
2.0671723357372604 11.771863536347555 16.513225844549382 334.14145238465665 0.9217964161489092
