M[M_sun], R[km], Lambda[1], P_c[MeV/fm^3], rho_c[fm^-3]
0.24162668629717493 15.618656898711224 2160425.4255784233 3.5677272577965504 0.1711233750220791
0.25364433028895333 15.277285904255248 1723231.5083702398 3.784826005725405 0.1738882528225774
0.2660407265171921 14.981254049374968 1383048.6007746668 4.01141493981073 0.1766668237218217
0.27881564377652884 14.723505630510699 1116352.565466721 4.24774995338625 0.17945776635562016
0.2919716593390921 14.498372243399805 905812.3691270205 4.494456291504618 0.1822676480693376
0.305506357585091 14.301208302397452 738607.3296435468 4.751689461094145 0.18509217320397595
0.31942348064153986 14.12811653943127 605086.2310120071 5.0201319422091375 0.1879379647996988
0.3337225493271853 13.97589793751439 497669.8319264587 5.300007487214922 0.19080163993276236
0.3484033564297551 13.84200777364966 410994.553551456 5.59204510683594 0.19368950317765518
0.36346694951895986 13.723960023442025 340624.96747027227 5.89641159285856 0.1965966084854073
0.3789203383735825 13.619975694926378 283298.492251825 6.213971246406828 0.1995306411727265
0.3947516567275335 13.528481102343727 236394.85646048622 6.544981409625585 0.20248777821917552
0.4109790860259851 13.447842549115446 197852.56693768367 6.890144662351999 0.2054717337994494
0.42758601294120724 13.37705559545896 166078.6487534635 7.250166068376637 0.20848558054164032
0.44458279257594413 13.314911547837848 139790.23926011735 7.62530458843157 0.2115248648059206
0.4619642716157553 13.26057205695225 117976.40055997105 8.016509273367355 0.21459574907550405
0.4797296144144463 13.213158234935772 99806.799924529 8.424485167114781 0.21769988068130589
0.4978865309485949 13.17199002020317 84638.84722144975 8.849673228712318 0.22083472871206922
0.516426231814228 13.136385128854052 71933.58208594068 9.292946599671719 0.22400369852143873
0.5353444540381369 13.10584308329638 61271.51942221612 9.755190258168113 0.22720971104308404
0.5546516371204074 13.079818256209688 52301.528472101825 10.237213859198892 0.23045411732049673
0.5743348277085806 13.057831253090963 44725.616389898874 10.739488421652784 0.2337336118176675
0.5943923961461723 13.039516325269563 38323.40794457873 11.263259000813425 0.23705438683891747
0.6148291518351647 13.024500402951212 32899.34043943263 11.809463138792177 0.24041805590186172
0.6356347816543311 13.012427432392236 28289.510899722816 12.379079932010324 0.24382625212049164
0.6568058569329771 13.003023246624252 24369.46960969651 12.972798331542155 0.24727692515785615
0.6783381755522345 12.995978754420415 21026.739767264567 13.59194530737539 0.2507748621696258
0.7002269865433104 12.991060772927895 18171.430955422507 14.237718593799405 0.25432269971171806
0.7224570455752068 12.988023291149604 15728.075745170849 14.91130799763786 0.2579224226321793
0.7450489337350332 12.986658603533002 13632.676851130984 15.613742051650688 0.2615739156695428
0.7679711037713375 12.986762554911788 11835.49959845291 16.346289332606855 0.2652790974244166
0.7912159740227745 12.988139785737488 10287.954837329295 17.110564905377963 0.2690426475082047
0.8147928877315864 12.990656228590355 8955.685207231712 17.90802397196292 0.27286699880720594
0.8386732437744034 12.994129854941743 7806.507028653826 18.740027499901895 0.27675319294742645
0.8628543264799796 12.998413561437873 6813.516347829983 19.607928793542506 0.2807017894150471
0.8873370608445998 13.003353872907342 5954.804227224385 20.513809641952907 0.2847191105809125
0.9120934065186221 13.008856944487444 5210.815246076316 21.4594643732841 0.2888081701909264
0.937112921158266 13.014744210301492 4564.86815189076 22.446371447012456 0.29296884373169274
0.9623980312165743 13.02094844355498 4004.1889205908437 23.476567815123023 0.2972050227808545
0.9879193964835676 13.027339554341808 3516.228750132733 24.55247054507767 0.30152276305036657
1.013661893144269 13.03379125849468 3091.512077433688 25.676014966922097 0.30592364364159774
1.039626543558887 13.04025257706673 2721.168219746716 26.849176553991505 0.3104090291613399
1.0657772365216023 13.046581841854922 2397.949056099532 28.07504559040498 0.3149876040795449
1.09210985403494 13.052701767978927 2115.627225385113 29.355667870004076 0.3196597499236283
1.1186090534096758 13.058540677971468 1868.424080032901 30.693817866933955 0.3244302794133159
1.1452406928209142 13.063994604783947 1651.9394287121543 32.09287671839998 0.32930712309761034
1.1720040616161054 13.069013186845641 1461.924511101286 33.55480444678659 0.33428810101953255
1.19886055535479 13.07346126043031 1295.297277075461 35.084134795369074 0.33938672091205313
1.2258065173177655 13.077333796747181 1148.9433339241853 36.6828799948428 0.34459967620186205
1.2528026435231479 13.080493251913117 1020.0798572821308 38.356103806594355 0.3499414744013524
1.2798468117729762 13.082931988316979 906.6097369491762 40.106057298391306 0.35540875910223907
1.3068899057261592 13.084526403301592 806.670360325316 41.938191498736444 0.36101597101318444
1.3339276349564455 13.085233016150383 718.5217344566174 43.85600897037955 0.3667651450009484
1.360935516480587 13.085034905974156 640.5530089481098 45.8641825346389 0.37266394699555244
1.387866664544969 13.083771536613042 571.7406167611324 47.9680536833577 0.3787223791688538
1.414724236901795 13.081484454969292 510.7647275167784 50.17238784115437 0.3849461363374204
1.441447825256071 13.07802682061396 456.8306666406205 52.48238891018518 0.3913421061189948
1.4680430530711561 13.073428587028967 408.97862187894793 54.90448142533587 0.3979220219581264
1.494451702722565 13.067563895629517 366.48998358981476 57.444855544621404 0.40469494536464967
1.520663893909221 13.060417402758546 328.79715086475227 60.110139561136464 0.411670647975749
1.546647784337644 13.051927302483179 295.25684312651646 62.907439344877865 0.4188596700266818
1.5723634174917076 13.042046568236529 265.4307957453659 65.8443815609128 0.42627338359534345
1.5977880101962392 13.030718197665546 238.8944216027058 68.92916104727108 0.4339240611794631
1.6228768954058916 13.017893032400767 215.20795703370015 72.17059278359044 0.44182495023362844
1.6476266681454454 13.003555277127983 194.07284580063484 75.57816893558699 0.4499903543691595
1.671975262094753 12.987621222175385 175.19946443645426 79.16180366802458 0.45843439467814046
1.6959135888488226 12.970067897231594 158.3488426993381 82.93173734429249 0.4671705450786737
1.719392452003968 12.95085774494749 143.25870560797293 86.90068500552485 0.4762202578610832
1.7423754649088425 12.929918683888465 129.76496606031108 91.08020563316397 0.4855977976512578
1.7648579293802298 12.907266487432963 117.66613557246752 95.48442901556002 0.49532524272659967
1.7867854324675165 12.88282967397604 106.81200984156874 100.12698559804068 0.5054199636634804
1.8081230628593197 12.856571264708462 97.07209524048562 105.02442176421093 0.5159077406341692
1.828832789013798 12.828435098376936 88.31488879680232 110.19328023719113 0.5268111133869143
1.8489129328486669 12.798467554020519 80.45169412092729 115.6512228166692 0.5381535644671372
1.868288548298483 12.766527531468874 73.378736890753 121.41840524724634 0.549964225335966
1.8869667901359906 12.732706450490184 67.00156686310126 127.5162657179553 0.562272948755317
1.9048908495003662 12.696888935693513 61.249161731889224 133.96725549734015 0.575109066287128
1.922031748127222 12.659071539199424 56.06815549677197 140.79707623232417 0.5885089339252083
1.9383445926490674 12.619182605684378 51.38481596257355 148.03340018793972 0.6025107921414965
1.9538409826682033 12.577337206795708 47.15597432962366 155.7047099889965 0.6171503431994761
1.9684562859395054 12.533406139173707 43.33215162173696 163.8446729661675 0.6324752509178772
1.9821716302626295 12.487404781786642 39.87461498332141 172.4870959715551 0.6485271812601966
1.9949620272861028 12.439327371868888 36.74102002783855 181.6712178107545 0.6653591212230816
2.0067988813320907 12.389164895237176 33.90057136938788 191.43907417263048 0.6830255896181412
2.017643116190003 12.336891116803248 31.32243896129018 201.8367044799012 0.7015858267805357
2.0274792709758658 12.282504617978919 28.989216246487384 212.9140283093794 0.7211023988058168
2.036288995129519 12.226038410513723 26.8666940365396 224.726607411144 0.7416458693162277
2.044033860463185 12.16744220467685 24.939297508960816 237.3355413183006 0.7632931464159636
2.0506920323244913 12.10673444144497 23.18479115706616 250.807739455516 0.7861269503091021
2.05626490878637 12.04398734432845 21.59070043384075 265.2163738763983 0.8102356560480305
2.0607110237483406 11.979136820828382 20.139431590353606 280.64302681852996 0.8357184174399909
2.064016045683383 11.91224011902483 18.819324886418478 297.17760164888244 0.8626827422448231
2.066176592321052 11.843338114423362 17.616687969525536 314.92045313136714 0.8912490121544753
2.067169284864445 11.772444559358673 16.52186427594808 333.9809426747223 0.9215429038834931
