M[M_sun], R[km], Lambda[1], P_c[MeV/fm^3], rho_c[fm^-3]
0.24162668629717493 15.618656898711224 2160425.4255784233 3.5677272577965504 0.1711233750220791
0.2536380433304087 15.277420872658492 1723367.2180027699 3.7847209219407354 0.17388694300389557
0.26602803399705427 14.981519369481752 1383244.8733133145 4.011194036299198 0.17666415423325313
0.27879747253007897 14.723839718444681 1116790.4189001608 4.247405760319551 0.17945377423473435
0.2919455084955209 14.498785692410216 906226.5784149392 4.493979780803285 0.18226234201208588
0.3054739428206823 14.301647356716613 739000.892864159 4.7510644574355645 0.18508542197162586
0.3193835437000812 14.128570885531662 605272.6128249083 5.019353845679248 0.18792989174788352
0.333674981873364 13.976388475442063 497996.62738306803 5.2990558179103715 0.19079205820197048
0.34834715103776587 13.84247852390644 411286.52980528615 5.590917492810107 0.1936785932017593
0.36340147539233925 13.724436097306521 340913.68621483573 5.895082706971466 0.19658412730793348
0.37884653172294563 13.620426670865669 283534.66317216534 6.212425013345533 0.1995165413889933
0.3946685246446642 13.528931280856833 236628.8277937985 6.543219438890841 0.2024723281161377
0.4108843651750544 13.44830799613027 198053.75296809536 6.888132947558467 0.20545460119208434
0.4274820602429838 13.377465249632968 166264.79545894 7.24788573923573 0.20846671596305588
0.4444681571064155 13.315312725324814 139955.40849065644 7.622761951323324 0.21150462377962864
0.4618395562392273 13.26090796028057 118112.14143524808 8.013659989737661 0.2145737075630815
0.47959232332723745 13.213500986305496 99933.27382848815 8.421307027610277 0.21767598551518955
0.49773937272337165 13.172274094282372 84749.18577895068 8.846177954731646 0.2208094214350335
0.5162655957832977 13.136669388245743 72038.0130744113 9.289077641482717 0.22397646081458675
0.5351728077788483 13.10611178515496 61358.14881729713 9.750921393987829 0.22718048413926437
0.5544663931209532 13.080035437763975 52376.4708335414 10.232517274377162 0.2304228398977277
0.5741350053887572 13.058023438243453 44797.31443738505 10.73438452438631 0.23370084321622722
0.5941842984075499 13.039692685873204 38385.890738702125 11.257671057096688 0.2370194732654542
0.6145995904221594 13.024684994964472 32953.06333935262 11.803358151602435 0.24038092739380187
0.6353923244572051 13.012550235838505 28340.726661435492 12.37242284631539 0.24378683502211643
0.6565471811929288 13.003100016403044 24412.298977633673 12.96561971681555 0.24723589513980837
0.678069579832133 12.996048678131386 21065.43096633257 13.584143255951995 0.250731422437595
0.6999437698479795 12.99110223923014 18205.28470762658 14.229251290338736 0.2542767641771971
0.7221633135845336 12.988019087945556 15757.90888574168 14.902130940834908 0.2578739000735444
0.7447357306502466 12.986658285084866 13659.481172916549 15.603897396737432 0.2615235963238439
0.7676419074971181 12.986737202533266 11858.108973808756 16.33564380510848 0.26522603213982765
0.7908712396581138 12.988111169498849 10309.082519080546 17.099065101112206 0.2689867278542208
0.8144313917993224 12.99062191984549 8974.73495360289 17.89561294709458 0.27280810938163647
0.8382976056079727 12.994069045126777 7823.055232887635 18.726760292969796 0.2766922369962107
0.8624627300473021 12.998337888316346 6828.863662624811 19.593632958390856 0.2806376530186331
0.8869218580942123 13.003267319107572 5932.07125117376 20.49841640423207 0.28465165502646056
0.911667161477505 13.008747984568645 5222.660141462733 21.442900250452176 0.2887372474137146
0.9366727094557019 13.014644161885348 4575.690492910243 22.428705423788436 0.2928954691287285
0.9619344530786867 13.020821662707252 4013.68678645959 23.45757827853021 0.29712790063041
0.9874444544131397 13.027216020949426 3524.6896858371438 24.532068155039887 0.3014417140402158
1.0131722983637794 13.033676077513432 3099.130029142106 25.654278677805262 0.3058397591157229
1.039117935250053 13.040127284820935 2727.83635395783 26.82584074079989 0.31032087066117126
1.0652573591355614 13.046460286645047 2403.9361365068635 28.05000107173141 0.31489495351478003
1.0915705070140185 13.052588006896817 2120.875034002117 29.329003381821593 0.3195637741382505
1.1180540307706643 13.058423451645671 1873.1976904765918 30.665215196314136 0.32432938163929764
1.1446712293899077 13.063890734321436 1656.2880289955515 32.062317736396174 0.32920178735960315
1.1714175932303055 13.068910203892825 1465.8146014198142 33.5221550685486 0.33417806924857874
1.1982644855011946 13.073390967519655 1298.8141847944971 35.04912954938733 0.3392709680535351
1.2251920049331526 13.077253412933073 1152.043889160285 36.64562042781073 0.3444794826062736
1.252174752883179 13.080432625809179 1022.8594971828248 38.31618189692925 0.34981506577983007
1.2792028038164467 13.082892253639816 909.1216488965856 40.06353618730539 0.35527721298992465
1.3062361826389501 13.08449950603765 808.9611338287051 41.89291597423988 0.36087909624341946
1.333258636832025 13.085232482115579 720.4975944698718 43.807471667488734 0.3666208670351123
1.3602566938771272 13.085049274776978 642.4442473078465 45.812485113424785 0.3725136179172256
1.3871775625853144 13.083817112484413 573.4197968868232 47.912975436756625 0.3785656086993823
1.4140155987272112 13.081539157599066 512.2637835446326 50.11332513095836 0.384780636114606
1.44074532179572 13.078150930759353 458.1626479118048 52.41943545511403 0.3911692595179907
1.4673206188525347 13.073558635915912 410.20428205004276 54.83735861689112 0.3977413394295671
1.493726643713854 13.067738425721695 367.58756648483865 57.373262213652275 0.40450589952643407
1.5199317673923254 13.060639512728116 329.7865473249974 60.03374995862315 0.41147267050741704
1.5459103152198463 13.052188843354124 296.1616507883573 62.825900921300224 0.4186521482560846
1.5716224082476236 13.042351034781497 266.24956791028256 65.75731252179072 0.4260556567446288
1.5970382415529756 13.031065370183123 239.62325357380928 68.8361476597215 0.4336954162334805
1.6221321951663459 13.018296158380084 215.87080310211354 72.07118640566385 0.44158461738948435
1.6468803967520957 13.004013429982537 194.67945018445445 75.47188273664302 0.4497375020206757
1.671234813065601 12.988138775923513 175.76431416149876 79.0484268580755 0.4581694512093686
1.6951563406039134 12.970632126357943 158.85220568760414 82.81064027575353 0.4668922643678631
1.7186537770367591 12.951496136272905 143.71712165499477 86.77100790446788 0.47592660302953677
1.7416543104211126 12.930640924976972 130.18032158830596 90.94189450824739 0.48529010630881336
1.7641347750535334 12.908048921755281 118.04410008896583 95.3361523079857 0.49499989052160165
1.7860655998797879 12.883676088548311 107.15681619649158 99.96861422499056 0.5050782051111857
1.8074063224898826 12.857477376378334 97.37838526742476 104.85513497275348 0.5155482597776704
1.8281444738089907 12.829453332137057 88.60161978828961 110.01159678529523 0.5264303051386918
1.8482283002732072 12.799538258901205 80.71880106440169 115.45659819632158 0.5377515371612923
1.8676282356413898 12.767710988494615 73.61254205822993 121.20989948671829 0.5495397840163678
1.8863149715312113 12.733948958095525 67.21330863815297 127.29272292342891 0.5618243220534215
1.9042567118781246 12.69821524065992 61.44862925281664 133.72818869907547 0.5746370741977715
1.9214071469408276 12.660459633143931 56.24821258842462 140.5403064438462 0.5880086487326376
1.9377505455255484 12.620697243806083 51.549125924228015 147.75739079485115 0.6019798743415671
1.9532754424532675 12.578950164994238 47.3093090872634 155.40868164792371 0.6165893398602884
1.967923724005341 12.535130683069742 43.47358432075339 163.5260984076559 0.6318790361187858
1.9816645786738876 12.489225039191801 39.99931004904429 172.1445199513748 0.6478946520954209
1.9944937014705455 12.441277109472995 36.854317183670844 181.3026646491912 0.664687796529015
2.00634405568319 12.39117080357734 34.008742920207 191.04215223298073 0.6823120382868701
2.017235659849167 12.339037862329999 31.42488820356231 201.40877561602068 0.7008262952588494
2.0270979222083243 12.284733715905366 29.07868256616733 212.45296400990833 0.7202953461756169
2.0359512461065523 12.228384694781028 26.95100698128126 224.2287329263551 0.7407852814165596
2.043733419919353 12.16990686174459 25.014381384235154 236.7980575895888 0.7623765602138994
2.0504354128243056 12.109317755447467 23.255825583093756 250.2258920801658 0.7851462871144362
2.0560460909800913 12.046660585152098 21.655086748364454 264.58665932343126 0.809187774446249
2.0605436582281396 11.981949906812112 20.19967663303142 279.96115339890906 0.8345985860963865
2.0639033592534 11.915187380547769 18.87409300412653 296.43877724170545 0.8614857143218154
2.066106048738836 11.846390256625533 17.667175803250288 314.1178887476437 0.8899642644283993
2.0671491510186377 11.775618722716017 16.568027412960454 333.1093489880546 0.9201662912778138
