M[M_sun], R[km], Lambda[1], P_c[MeV/fm^3], rho_c[fm^-3]
0.24162668629717493 15.618656898711224 2160425.4255784233 3.5677272577965504 0.1711233750220791
0.25364496499243844 15.277245635060488 1723152.7491884837 3.7848374410369527 0.17388839535821926
0.2660410339323246 14.981246109480283 1382851.335078329 4.01143897925369 0.17666711422430273
0.27881734481910736 14.723483814001874 1116387.8089955498 4.2477874103922035 0.17945820080044272
0.2919734649085 14.498367993076629 905860.6028438233 4.4945081491184435 0.18226822551590305
0.3055100794071863 14.301143594926703 738608.292637059 4.751757480288596 0.1850929079410926
0.3194258782257885 14.128096858681577 605061.6319148517 5.020216624181299 0.18793884340784422
0.3337251391120679 13.975977394741788 497651.726136541 5.300111061602272 0.190802682754982
0.34840940082595456 13.841906222244303 410932.79686872184 5.592167832392427 0.19369069058117483
0.36347522826270334 13.723876305124495 340625.09545723797 5.8965562270108185 0.19659796691997317
0.37892842676763744 13.61993236520175 283276.6752796502 6.214139539650333 0.19953217580446903
0.39476233974544517 13.528374754869892 236370.92649368843 6.545173187382446 0.20248945985102415
0.41098857931337957 13.447802477018671 197832.8335597571 6.8903636271725786 0.2054735985957465
0.4275973994573213 13.377005463151367 166059.6201441591 7.250414275256456 0.2084876338935471
0.4445946079944049 13.314867743654974 139774.3743079536 7.6255813514942 0.21152706801785717
0.4619780006317199 13.260515406459351 117963.80014850214 8.016819420402735 0.21459814831356583
0.47974371632644613 13.213138292159202 99796.33180619091 8.424831116907585 0.21770248174011883
0.497903413307903 13.171936492018194 84628.4029878351 8.850053705808678 0.22083748352881222
0.5164437030029261 13.136351419226889 71925.50236806188 9.293367761875338 0.22400666352960863
0.5353637175066902 13.105805034790015 61261.816187233504 9.755654961432572 0.22721289264761432
0.554672535295454 13.07978696450407 52295.19118745914 10.237724867683122 0.23045751879288062
0.5743567895411192 13.057809108161166 44718.16511768888 10.740044044632784 0.23373717908930955
0.5944152978682667 13.039497139780261 38320.13172673557 11.263867329417197 0.23705818768704234
0.6148549211862653 13.024476518916295 32893.91632612181 11.810127767201433 0.24042209795149802
0.6356608900176285 13.012414357841434 28284.101192512815 12.379804678658665 0.24383054339917482
0.6568332949414313 13.003012335613388 24364.888169146558 12.97357986824746 0.24728139210117947
0.6783667865163084 12.995967679008986 21022.259103649143 13.592794733141277 0.25077959154471546
0.7002573198469028 12.991044341262652 18167.335572014807 14.238640463712962 0.254327700900991
0.7224944056879019 12.987997785890492 15724.954535485635 14.912307159484405 0.2579277055774989
0.7450833635174718 12.986644706777364 13630.253637386288 15.614813915096857 0.2615793943244845
0.7680067484535609 12.986759207725612 11832.699191134545 16.34744841432503 0.2652848751560739
0.7912538264639204 12.988142192861863 10287.013842325869 17.11181702334946 0.2690487361338974
0.8148306307762603 12.990669610891011 8953.482463463748 17.909375329926934 0.2728734109041185
0.8387153478911441 12.994138751323236 7805.286798266721 18.74147210374998 0.2767598301546503
0.8628980572819321 12.998417814890745 6811.857476920912 19.609485428559594 0.2807087730546505
0.887380338976103 13.00337850353878 5953.324101350585 20.515485801222056 0.28472645577072253
0.9121396224913977 13.00886607723993 5209.281106746572 21.461268063040233 0.2888158930681371
0.9371626442420956 13.014755198407835 4563.744372771891 22.448295153258094 0.29297683371224487
0.9624474319892243 13.020967304855533 4003.1241859339502 23.478635681621892 0.2972134210011294
0.9879707111300404 13.02734670402347 3515.3247145870714 24.55469230645043 0.3015315890535809
1.0137146532752999 13.033804723983774 3090.727556344624 25.67838202239001 0.3059327785645176
1.0396815837328324 13.040260719312883 2720.4347570121586 26.851717844561854 0.3104186296995056
1.0658350762441169 13.046590272850755 2397.3037394879548 28.07777301345465 0.31499769400338007
1.0921688805177803 13.052722525915136 2114.839878203079 29.35857175825617 0.31967020213833935
1.1186703104042963 13.058557863473252 1867.7016664237674 30.696932893947363 0.3244412678729544
1.1453023162030243 13.06401663785877 1651.412439186473 32.09619271646781 0.3293185165403587
1.1720679156414313 13.069020792410713 1461.4476346568629 33.55836031685844 0.33430008466830025
1.198925951709436 13.073479582665284 1294.941662488992 35.08794732277176 0.33939932790659527
1.2258743000759134 13.077339567445904 1148.5818735938312 36.68693811484255 0.34461276706879773
1.2528711617939554 13.080501810274018 1019.7949408318764 38.36042399009936 0.3499550782450486
1.2799157742832725 13.082944448163463 906.3526775612874 40.110688655079656 0.35542308697259656
1.3069597602360397 13.084528795671217 806.4477897562577 41.94312294939768 0.3610308795356449
1.3340002175528218 13.085240054022233 718.3214052798387 43.8612958119932 0.36678086022837736
1.3610098982066718 13.085033432831874 640.3381280482898 45.86981368828765 0.3726803216254286
1.387942885752398 13.083768994668285 571.5562322076539 47.97405320446815 0.37873945574262174
1.414792866971086 13.081456093107942 510.5986282368344 50.17882152541418 0.38496416422972307
1.4415246687020495 13.07802016505807 456.69383799178365 52.48924654308682 0.39136093460960963
1.4681205976860614 13.073413098704902 408.83955479021034 54.91179337581629 0.3979417044137941
1.4945323364625427 13.067544326973971 366.3845500034794 57.45265464174262 0.4047155392779743
1.5207431966422649 13.060392873977296 328.7046224147178 60.11846131436848 0.41169221530406
1.5467295490270834 13.051898835243808 295.16336358006276 62.916322186362336 0.418882277564477
1.5724442043604843 13.042013660947847 265.3411040159883 65.85386711215753 0.4262971033839231
1.5978589564827683 13.03067211835075 238.81316050416163 68.93929441302093 0.4339489709577814
1.6229556624137507 13.017853292754168 215.1401649431328 72.18142287595784 0.44185113393486863
1.6477082301084687 13.003505570062465 194.00613865082914 75.5897488319088 0.4500179026680851
1.6720566502148044 12.987565584788944 175.15074734674675 79.1741305301648 0.45846315310648517
1.69599371009748 12.970004132332688 158.2943613297803 82.94493145850244 0.4672008651147007
1.7194740043933292 12.95078646773033 143.21367420546312 86.91481430200216 0.47625225376585817
1.7424540989292405 12.929831716404975 129.7158701753184 91.09527599273254 0.4856313236540979
1.7649366615617386 12.907180361147724 117.621202018712 95.5005856396808 0.4953606939675195
1.78686368076922 12.882741475956154 106.77426765678123 100.14424255546628 0.5054572034289329
1.8082001370220073 12.856470770194234 97.0389821470354 105.04286855429282 0.5159469124315741
1.8289141608951498 12.828337932430491 88.28989099154613 110.21301448283573 0.5268523724450948
1.8489866602939296 12.798348701581117 80.42512433470384 115.67243173140301 0.5381973747663434
1.8683613280271063 12.76640050121816 73.35126303456404 121.44112742376828 0.550010479360616
1.887036645006907 12.732573437813162 66.97624105120096 127.54054234513224 0.5623215365025399
1.9049584942811602 12.69674588323434 61.22658129375697 133.9933094235607 0.5751605048271597
1.9220973570919206 12.658916968884343 56.0474704938176 140.825060258213 0.5885634574494271
1.9384088909124584 12.61901784176767 51.36600616107032 148.06348192341005 0.6025686558563333
1.9539027138544358 12.57716133876999 47.14237365361029 155.73697442523405 0.6172114875358619
1.9685159495194728 12.53322109954181 43.32221914287264 163.87931565632127 0.6325399637509852
1.9822270497016878 12.487209377161841 39.86114665949911 172.52443594825084 0.6485961254444966
1.995011618172676 12.439116779698791 36.72860473529044 181.7113904538349 0.6654322962494778
2.00684496254034 12.388946450257214 33.88662238595462 191.48234040289262 0.6831033698391838
2.017688011002421 12.336659376460698 31.313795475169428 201.8833521262851 0.7016686217514563
2.027521239182532 12.28226489909529 28.97829096310814 212.9642575669907 0.7211902718868868
2.0363255629696875 12.225781988673312 26.85689607976791 224.78088328630812 0.7417396864585742
2.04406550357606 12.167175835061586 24.931401113407137 237.39412827144125 0.7633930425529575
2.050720204579045 12.106454011181246 23.177431226555168 250.87106083993083 0.7862334960805593
2.0562882733638763 12.0436931462712 21.584563473233697 265.28500373953335 0.8103498186460792
2.0607290368880693 11.978830594540547 20.13309020684336 280.7172781953455 0.835840206979825
2.0640290230683163 11.911921411806944 18.813351309713113 297.25815953423125 0.8628132604535399
2.0661850274819518 11.843005187819125 17.611387861085806 315.00796453652885 0.8913891007019704
2.067170509762818 11.772101287439346 16.516728663177986 334.0759848878249 0.9216930154671702
