M[M_sun], R[km], Lambda[1], P_c[MeV/fm^3], rho_c[fm^-3]
0.24162668629717493 15.618656898711224 2160425.4255784233 3.5677272577965504 0.1711233750220791
0.25364478492655823 15.277241392497103 1723066.8519886332 3.7848358213401623 0.17388837516948014
0.266040850758357 14.981239477578626 1382953.7115141095 4.011435574302272 0.1766670730774743
0.27881716304913706 14.72348651425676 1116447.9637437568 4.247782104965104 0.17945813926548349
0.29197292223386384 14.49835273715628 905788.5819287229 4.494500803970074 0.18226814372597125
0.30550940674425797 14.301161423501748 738622.8200869934 4.751747845985818 0.18509280387223526
0.31942801396709586 14.128034953916433 605038.0254330655 5.020204629727075 0.1879387189607522
0.3337242320634275 13.975990050047105 497669.4368316164 5.30009639117901 0.19080253504816239
0.3484085614073648 13.841913664778868 410975.62331789546 5.592150449342618 0.19369052239538603
0.36347290981089053 13.723913078197912 340634.5120756207 5.896535740757175 0.19659777450874358
0.378927376844079 13.619932758729533 279357.4198472689 6.214115702238856 0.19953195843597846
0.39476080064686153 13.528399752607804 236381.63446507172 6.545146023533573 0.2024892216607661
0.41098705196217544 13.447815868344708 197834.84125911508 6.890332612434087 0.20547333446121868
0.42759593922925176 13.377010915240183 166054.37810876608 7.250379118540849 0.20848734305104877
0.444592904205014 13.314894751473695 139783.12180355666 7.625542149944306 0.21152675594831352
0.4619759796429658 13.260518471123845 117959.02659211901 8.01677549017695 0.2145978084777533
0.47974215549083377 13.213109796801625 99790.90484388582 8.42478211538619 0.2177021133171808
0.49790032124198447 13.171974846334086 84628.64224178062 8.849999813645939 0.22083709332652762
0.5164410651542171 13.136365404879092 71928.6332004187 9.29330810683244 0.22400624355438756
0.5353609469746099 13.105806878223099 61263.20339882652 9.755589138962895 0.22721244199214505
0.5546687788165076 13.079777517611301 52293.16600112645 10.237652714005531 0.23045703992231112
0.5743537279083665 13.057810697922019 44719.24345812714 10.73996534369566 0.23373667380491472
0.5944117752724196 13.039504714926172 37987.425621712115 11.263781162885804 0.2370576493169949
0.6148512422094613 13.024494933273086 32894.213139284824 11.810033625955379 0.24042152541565082
0.6356573479292041 13.012416721967035 28285.13536884873 12.37970202181084 0.2438299355603614
0.6568293969553021 13.003014906981734 24365.406805222297 12.973469167220346 0.24728075937950356
0.6783630369667005 12.995974787019843 21023.11058316855 13.592674415761403 0.25077892164977933
0.7002532734385678 12.991058593108884 18167.576881156576 14.23850988474196 0.2543269925037004
0.7224894835978841 12.98800551348016 15725.205580954105 14.91216563222114 0.2579269572695089
0.7450790267760306 12.986644441605105 13630.615667223923 15.614662089751278 0.2615786182940276
0.7680011829272758 12.986765784425018 11833.264573954151 16.34728423459394 0.26528405676129213
0.7912484725699218 12.988146714932705 10287.289192924494 17.111639665096863 0.26904787370077354
0.8148255062476366 12.990669679540598 8953.776915535354 17.909183914371223 0.2728725026509935
0.8387095902064056 12.994133145708762 7805.575667728758 18.741267479953272 0.2767588900141796
0.8628919146622288 12.998419218623631 6812.270596582834 19.609264935541983 0.2807077838415381
0.8873742770807393 13.003365831442268 5953.7205415467515 20.515248377556237 0.2847254153434058
0.9121297135356105 13.008873375529484 5209.418098402449 21.461012574606723 0.28881479914065095
0.9371549282831245 13.014752667374944 4563.885018020729 22.448022664422748 0.2929757019487545
0.9624407925360744 13.02096473973733 4003.2580218470075 23.47834277233349 0.2972122314094774
0.9879637156178076 13.027343332457946 3496.2403171643646 24.554377597748022 0.3015303388653055
1.0137073266391485 13.033802873690707 3090.8219506195346 25.678046732593486 0.3059314846166196
1.0396733472201598 13.040265420063088 2720.536814130802 26.851357874045377 0.3104172697957141
1.0658260232636816 13.046589086634368 2397.390703811281 28.077386676881588 0.3149962647764043
1.0921620110832675 13.052720836993412 2114.9771724950056 29.35816042502973 0.31966872159128407
1.1186610933840249 13.058551664789071 1867.774676090106 30.696491652365356 0.32443971136468214
1.1452938552660565 13.064008522725658 1651.5143686892388 32.09572300682898 0.32931690266430425
1.172058015547082 13.069018183057521 1461.5052894858447 33.557856628601314 0.33429838718694127
1.198916152013383 13.073474361571268 1294.9558157310285 35.08740727812738 0.33939754212536277
1.2258643001825187 13.07734606257436 1148.605910046121 36.68636328119018 0.3446109127444175
1.2528617813727123 13.080503296709697 1019.7885216945293 38.35981203421746 0.3499531512546426
1.2799059207119505 13.08294004201122 906.4060073654639 40.110032620209246 0.35542105741987456
1.3069505816172107 13.084525161984644 806.5035131188873 41.94242440498184 0.3610287677300468
1.3339899879758137 13.085240301997535 718.3434648413414 43.86054692475525 0.36677863414821016
1.360999217430158 13.085029084945603 640.3840540739404 45.86901602763783 0.3726780021366129
1.3879315777846755 13.083767813803933 571.5916815304797 47.97320336274493 0.37873703681874255
1.4147821200541082 13.081462030334153 510.6195184014897 50.177910182039454 0.384961610545155
1.441514467436773 13.078019775227121 456.70986772621615 52.48827514503347 0.39135826751450653
1.4681095936669568 13.07341675541853 408.850754601387 54.91075762102644 0.3979389163481763
1.4945202657249572 13.067548055422801 366.39788643400726 57.45154987964629 0.40471262209736963
1.5207321967942495 13.060397382745823 328.71801162857673 60.117282514675914 0.41168916023149615
1.5467164224774193 13.051905496801249 295.1750980922863 62.91506390474224 0.41887907513771605
1.572432715321995 13.042017887828655 265.3600978370171 65.85252345245476 0.42629374339742887
1.5978464767195033 13.030678759990671 238.81729919430126 68.937858985623 0.43394544239884475
1.6229442160395933 13.017856506360168 215.15107772355745 72.17988875187511 0.44184742491325696
1.6476961058271715 13.003513830211476 194.0169935277517 75.58810849207613 0.4500140003384964
1.672045561295951 12.987572525548877 175.15867626137737 79.1723843766999 0.45845907935042884
1.6959822049800126 12.970013520831483 158.3002891396367 82.94306245125702 0.4671965701414942
1.7194625561069112 12.95079636751843 143.2205212638626 86.91281281773537 0.4762477213887429
1.7424446275607985 12.929851450319003 129.7257571610695 91.09314119841993 0.4856265745225419
1.7649258687230625 12.907191482267343 117.63044670293492 95.49829696541143 0.49535567210513637
1.7868521223411509 12.882753982974231 106.78061778670283 100.14179800828204 0.505451928202163
1.8081896838050224 12.85648583869977 97.04312724124992 105.04025545530891 0.5159413635104045
1.8289029415419344 12.828353306783354 88.29485383210724 110.21021900230254 0.5268465278389193
1.8489755405763095 12.798365468583723 80.42992308145834 115.66942734744109 0.5381911687458113
1.8683512708846588 12.76641900221955 73.35445269287169 121.43790866920016 0.5500039271558572
1.8870260166214796 12.732592891728777 66.97726373426768 127.53710338507773 0.5623146536962662
1.9049483770606528 12.696766225094521 61.231794560476125 133.98961868765 0.5751532181685086
1.9220880039823143 12.658939629262708 56.04993168481194 140.82109609956257 0.5885557337608827
1.9384000623231492 12.619040491523963 51.371312444905506 148.0592205970511 0.6025604589830678
1.9538937721120841 12.577187549076243 47.144610792564336 155.732403890841 0.6172028259156701
1.9685068740686382 12.533245724388001 43.322515177565904 163.87440821018552 0.6325307966008199
1.9822187459460037 12.487237437645277 39.862523603191086 172.51914639297868 0.6485863588590346
1.995004698039376 12.43914524838501 36.730683152179985 181.7056996104387 0.6654219302993235
2.0068382573645116 12.388977355137277 33.88859715792475 191.47621130666886 0.683092351489395
2.017681303026321 12.33669185970756 31.31426643798652 201.87674400027362 0.7016568929796237
2.0275151604798682 12.282299456641383 28.979400027754764 212.95714204970056 0.7211778237150955
2.036320851109444 12.225817521756353 26.85878883698931 224.77319449906446 0.7417263962067795
2.044061202943808 12.1672138785102 24.93236886048421 237.38582874791163 0.7633788911029323
2.0507162786946047 12.106493275894383 23.177847027478965 250.86209060244775 0.7862184025875533
2.0562850839909883 12.043734564505861 21.585677697703893 265.2752962495158 0.8103336942728404
2.060726482028533 11.978876421626968 20.134200022903286 280.70675952615915 0.8358229539141605
2.0640270960950584 11.911967659375595 18.814479830891596 297.24674742816154 0.8627947707968731
2.066183775145931 11.843052374185664 17.612061202412338 314.9955673278089 0.8913692552091531
2.0671710682283444 11.772149068880461 16.517776310837863 334.06252078908625 0.9216717499987171
