M[M_sun], R[km], Lambda[1], P_c[MeV/fm^3], rho_c[fm^-3]
0.24162668629717493 15.618656898711224 2160425.4255784233 3.5677272577965504 0.1711233750220791
0.2536444298174 15.277283395021392 1723209.7042675037 3.78482788742752 0.17388827627708647
0.2660408512063717 14.981234403382588 1382908.3752276727 4.01141889553939 0.17666687152446803
0.2788168600954428 14.723497050676004 1116383.980275584 4.247756116985612 0.17945783784408442
0.2919708930748326 14.498386794005246 905855.2060949814 4.494464824728482 0.18226774308876578
0.30550673222968433 14.301220338763581 738616.3522557697 4.751700653703646 0.18509229410551997
0.3194233039823052 14.128139741276797 605116.2284630346 5.020145876668691 0.18793810937509486
0.333723035247502 13.975901767722362 497662.81429210084 5.300024530402154 0.19080181152937803
0.3484043680637281 13.841999237772415 410989.23667845747 5.592065301320698 0.19368969856485052
0.36346748849443106 13.723959755548572 340655.06128579535 5.896435392363014 0.19659683201538963
0.3789220587334065 13.61996995826253 283297.6359755575 6.213998938962576 0.19953089369549093
0.39475465729725984 13.528429738456696 236398.40036589475 6.5450129664978 0.2024880549303136
0.41097999381725214 13.447864496977006 197859.04267882693 6.890180692776135 0.20547204064966093
0.42758940863877987 13.377018238374413 166068.23401796975 7.250206910485621 0.208485918417941
0.4445851329537659 13.31490159336238 139796.5406143425 7.625350129357886 0.21152522734097678
0.4619665205516919 13.260568280228803 117973.8036715275 8.01656030749477 0.21459614386573891
0.47973269426057635 13.21312060439995 99801.29114748858 8.424542092432668 0.21770030868011625
0.4978896899289225 13.171961457951625 84633.90705221174 8.849735835341258 0.2208351820108125
0.5164283845327987 13.136395725069203 71933.22523242226 9.293015900835796 0.22400418640595426
0.5353481949536391 13.105831835076387 61271.323453243625 9.755266723786477 0.22721023456718298
0.5546555643956249 13.079810398063515 52300.69903144293 10.237297987746652 0.23045467758380617
0.5743389333553164 13.057832057452432 44726.55871039518 10.739579847598169 0.23373419880055707
0.5943962675803139 13.039534363499754 38321.70386521609 11.26335909914689 0.23705501225511638
0.6148339263722482 13.024493905016264 32898.46385903489 11.809572500896984 0.2404187210059256
0.6356391300634184 13.012432548203018 28289.90801675036 12.379199186166778 0.24382695823320102
0.6568103322972242 13.003007960994754 24368.83782075899 12.972926930113005 0.2472776601745528
0.6783428732737614 12.995972188548922 21025.98422418441 13.59208507659684 0.25077564036720446
0.7002313537654637 12.991072445450808 18170.44209658553 14.23787028315612 0.25432352263388147
0.7224667555521329 12.98799436784114 15727.667233932909 14.911472404773031 0.25792329191467667
0.7450558346569877 12.986644307286358 13632.623893919434 15.613918421256272 0.26157481715397596
0.7679764477649298 12.986748607429046 11835.043185712264 16.346480053244786 0.2652800481189623
0.7912230863010841 12.988141447523459 10287.824622913424 17.11077093432045 0.2690436493571848
0.8147985923576415 12.990663150524018 8955.342725799894 17.908246329951606 0.2728680538799629
0.8386819843539868 12.994122049526371 7806.666235099224 18.740265200659245 0.2767542850594168
0.8628620194277815 12.998411763361027 6813.309743696578 19.60818492795877 0.28070293852863737
0.887344510669852 13.003361085684654 5954.69787958403 20.51408544290768 0.2847203191834599
0.9121002570325443 13.008853190958408 5210.355976982997 21.459761158086064 0.2888094409375034
0.9371216156558513 13.014742161259916 4564.5958662121675 22.446687979313953 0.292970158426667
0.962406231476774 13.020950818049554 4004.0999215145844 23.476908067452676 0.29720640464666404
0.9879268145736254 13.027337013150698 3516.1146542346505 24.552836119116296 0.3015242153024759
1.013670447828434 13.033799705583517 3091.6337587827857 25.676404447515278 0.3059251467222166
1.0396359751879258 13.04025105575804 2721.0111417868666 26.849594702957955 0.3104106088528393
1.0657869998446963 13.04658157000542 2397.8274516697147 28.075494365262237 0.31498926429288415
1.0921201224485548 13.05271007023302 2115.5042403594007 29.356145680131323 0.31966146974670945
1.1186193046984858 13.058542924915997 1868.3333243166035 30.694330417318525 0.3244320874680099
1.1452501284440935 13.063997889470894 1651.8647497046015 32.093422336090924 0.3293089977862552
1.1720144404031723 13.06901487422652 1461.8235309308452 33.55538953229236 0.3342900728180118
1.1988718905522888 13.073467509307832 1289.3158629395773 35.084762110411724 0.33938879527283367
1.2258175771273072 13.07733504634572 1148.8900144558306 36.68354771889303 0.3446018301762866
1.2528136205265155 13.080494544579292 1019.9694513565735 38.35681464965104 0.34994371277799186
1.2798583992885644 13.082939572110968 906.5655452829301 40.10681934056397 0.3554111166061395
1.3069009963605613 13.084523006539527 806.6340038310906 41.93900291712882 0.36101842405391393
1.3339395627874742 13.085233039018846 718.49472612039 43.856878863065035 0.36676773077188507
1.3609484417735431 13.085032941672528 640.5201028714176 45.86510907877913 0.37266664126005067
1.3878788095294075 13.08377067140764 571.6901067885575 47.96904083680698 0.3787251889262305
1.4147369470197593 13.081479107762721 510.7251067412224 50.17344642926877 0.38494910261797577
1.4414605756767278 13.078026483810664 456.8012104511281 52.483517252363825 0.39134520412386403
1.4680547632996608 13.073426340447638 408.9457137340419 54.90568451816237 0.39792526046764387
1.494464624752818 13.067559264561412 366.46717498190816 57.44613878942921 0.404698333837948
1.5206771423477285 13.060413025643648 328.7785497988333 60.11150880024987 0.41167419660650884
1.5466606281284068 13.051924074377848 295.2395947390352 62.908900901468 0.4188633898044026
1.572376780265919 13.042041628830152 265.41239848676645 65.84594228287379 0.4262772863727352
1.5978011421296787 13.030710845654948 238.87901399029954 68.93082835556667 0.433928159746618
1.6228883871109527 13.01788803929827 215.19468705750407 72.17237472557876 0.4418292583997148
1.6476401211944187 13.003545963651495 194.05747771466588 75.58007424389312 0.4499948870524672
1.6719890573954552 12.98761313370167 175.1940238403361 79.16383187576874 0.4584391264636034
1.6959265096707463 12.970059571394358 158.33817146592847 82.93390824162582 0.46717553379442306
1.7194077911414394 12.950844899666162 143.25338757428676 86.90300976866698 0.4762255223057949
1.7423882481624977 12.92990253027009 129.7630341617956 91.08268522974224 0.48560331384093774
1.7648713806042706 12.907252738318654 117.65738453063574 95.48708733469535 0.4953310756723564
1.7867986474761755 12.882815310493788 106.80766756304972 100.12982495447751 0.505426090871489
1.8081360489438028 12.856554993531102 97.06734260922752 105.02745688274686 0.5159141857147421
1.8288452634086292 12.828416925675022 88.31638926292548 110.19652717909236 0.5268179018787181
1.8489244291728368 12.798448022059215 80.44972494732171 115.65471238265877 0.538160772706315
1.868300407939922 12.76650710496187 73.37512095741396 121.42214378679667 0.5499718356324687
1.8869788511370513 12.73268393915795 66.99624564465586 127.52026000776422 0.5622809430101265
1.904901604453064 12.69686574671353 61.24710920027709 133.97154220059045 0.5751175295703537
1.9220421322394015 12.659045482309141 56.06375848753004 140.80168048788386 0.5885179047659486
1.9383557324843559 12.61915583339616 51.38297225350277 148.03834957100997 0.6025203125260793
1.9538502782915177 12.577309405731892 47.15495916129673 155.71001848257342 0.617160403326192
1.9684662523657925 12.5333750560363 43.33031872363196 163.85037274258946 0.6324858981476018
1.982180385621371 12.48737144697563 39.87034144169093 172.49323951735204 0.6485385246457892
1.9949689757158227 12.439292842974409 36.73775321273891 181.67782739864427 0.6653711606790699
2.0068045527067215 12.389130088163256 33.896960511480636 191.4461927286927 0.6830383867317485
2.017650706258963 12.336852736952398 31.3223839698075 201.84437935688274 0.7015994489301137
2.027485979425819 12.282465569077122 28.986547275978914 212.9222924431279 0.7211168564133824
2.0362951852627234 12.22599613034436 26.86466432676179 224.73553730213303 0.7416613048453927
2.0440385836651602 12.167397705377343 24.938618257847786 237.34518047474964 0.7633095820631771
2.0506968043806544 12.106688429346013 23.183596717428927 250.81815752525608 0.7861444799523309
2.0562690963901353 12.043938219663675 21.59054520039903 265.22766957816 0.8102544527520285
2.060713585189968 11.97908639193646 20.138886627519145 280.6552430906136 0.8357384549695205
2.064018867252447 11.912191402790688 18.819024560804245 297.1908554614781 0.862704215796061
2.066178131816988 11.84328371987974 17.615638829795692 314.93485092525185 0.8912720601906565
2.0671687224953423 11.772390876306828 16.52144873096301 333.99657942077954 0.921567600874836
