M[M_sun], R[km], Lambda[1], P_c[MeV/fm^3], rho_c[fm^-3]
0.24162668629717493 15.618656898711224 2160425.4255784233 3.5677272577965504 0.1711233750220791
0.253645515760352 15.277237942344454 1723156.9736552634 3.7848555428653845 0.17388862098877805
0.26604341209735627 14.981196036075941 1382797.4693809382 4.011477033335517 0.17666757408542363
0.2788213805696427 14.723386033968291 1116336.2270462418 4.247846704594426 0.17945888852383407
0.29197813243516924 14.498287347308338 905744.8796554356 4.494590239819186 0.1822691396149081
0.3055155193050252 14.301099672679168 738541.0937021301 4.751865155371089 0.18509407103748451
0.3194349952320189 14.127980186552712 604974.4800726185 5.020350677281672 0.18794023426050033
0.33373579708353296 13.975774912222532 497580.77622102265 5.300275022583841 0.19080433357000592
0.34841924245354267 13.841873656730163 410911.277772069 5.592362111112129 0.19369257028123218
0.36348529626500764 13.723824733661857 340537.81200259086 5.896785188933621 0.19660011737880562
0.3789400539590403 13.619872125189437 283218.3997804928 6.214405956237165 0.19953460520295446
0.39477671945260223 13.528309750564658 236336.4619864377 6.545476782509273 0.20249212197014949
0.4110047164697148 13.447748371221776 197804.96423920954 6.8907102626700105 0.20547655068910256
0.42761600108111575 13.376923140858212 166023.5878201186 7.250807204741728 0.20849088449847955
0.44461575675696746 13.314784419096585 139748.129936126 7.62601948939753 0.21153055587728944
0.46199722945701027 13.260457401857044 117933.22161135629 8.017310410137288 0.21460194651611075
0.47976836129998635 13.21304107461559 99767.15670192728 8.425378788132589 0.21770659946210053
0.49792833051832835 13.171891140116402 84608.17678137618 8.85065603954264 0.2208418446824035
0.5164713666250015 13.13631324840072 71909.6688668647 9.294034507386609 0.2240113574595747
0.5353936706856692 13.10576004531782 61248.456533242286 9.756390640622426 0.22721792949676575
0.5547045323947614 13.079742295289003 52278.94492870415 10.238526405331083 0.2304628079286683
0.5743906447240792 13.05777611925416 44707.65199421291 10.740923667928723 0.23374282654334266
0.5944511877703976 13.039489451266615 38308.20627419336 11.26483039702053 0.23706420495085592
0.6148926721906497 13.024462213237875 32884.9101891485 11.811179969988972 0.24042849710000785
0.6357018587443408 13.01239502452201 28276.148363256267 12.380952062611902 0.24383733714470124
0.6568761804144493 13.002988917055802 24357.109478541188 12.974817164296706 0.24728846397801982
0.6784136617537724 12.995954176200224 21016.006581059894 13.59413951448987 0.250787078926976
0.7003063288234879 12.991039747613625 18161.48296551121 14.240099942845548 0.25433561864651516
0.7225450199608986 12.98800132668814 15719.325944565564 14.913889012384251 0.25793606943006436
0.7451378894501969 12.98664979428216 13625.51134523329 15.61651087418517 0.2615880680537065
0.7680627431332533 12.98675473631904 11828.30271736765 16.34928346462309 0.26529402242156325
0.7913129440372119 12.988154952233218 10282.878025816442 17.11379937719116 0.26905837564934826
0.8148914952366529 12.990688421411376 8950.12419058945 17.911514810520597 0.2728835625865552
0.8387790261584376 12.994159182149335 7802.329911908226 18.743759220650357 0.27677033827342146
0.8629659030818794 12.998431500866378 6809.40344132235 19.611949926276946 0.28071982970163084
0.8874515265319215 13.003382529802511 5951.093707453696 20.518139544743494 0.2847380848863029
0.9122130338674902 13.008873472830864 5207.45289780884 21.46412372998319 0.28882812020702286
0.9372380047583195 13.014770673106808 4562.328452032683 22.451340846323408 0.2929894837872835
0.9625259509574514 13.02098685500343 4001.507356977016 23.48190963092016 0.2972267174820148
0.9880524547442079 13.027365648941412 3514.0956747283676 24.558209926699075 0.301545562888936
1.013800591913367 13.033829388296361 3089.818075692556 25.682129695187907 0.3059472415556057
1.0397685267378542 13.040285665055759 2719.302617833216 26.85574139708275 0.31043382995641033
1.0659241514614852 13.04661959709123 2396.430638192532 28.0820912854572 0.3150136691692461
1.092262496970828 13.05273483826303 2113.910236285342 29.363169442272227 0.31968675097780475
1.118765417048872 13.058577519407821 1866.8517609079306 30.701864895616872 0.32445866582842936
1.1454016000853195 13.064032645198749 1650.5996267575667 32.1014429356605 0.329336555776379
1.1721686420662545 13.069037250497107 1460.9088485904324 33.56399035416682 0.3343190584745106
1.1990291350967075 13.073488353313273 1294.3880702820452 35.09398375894316 0.33941928876453253
1.2259795157072764 13.077356363267118 1148.0379885688164 36.69336342890853 0.3446334941373574
1.2529794534238443 13.080511004664857 1014.8917299513602 38.36726426464406 0.34997661761383636
1.2800265530481907 13.082948184231332 905.9059969387577 40.11802165873896 0.35544577283612017
1.3070805939899173 13.08455567906497 806.045886567099 41.950931137839206 0.36105448487223896
1.3321505792928061 13.084504290404332 723.5922832765058 43.98851693953351 0.7255234676083914
1.3339619567011194 13.064610029162987 707.8464247727187 47.07232309827562 1.475759011849687
