M[M_sun], R[km], Lambda[1], P_c[MeV/fm^3], rho_c[fm^-3]
0.24162668629717493 15.618656898711224 2160425.4255784233 3.5677272577965504 0.1711233750220791
0.25364470935994793 15.277282085049404 1723162.2883222536 3.784833605786135 0.173888347553668
0.2660407267587543 14.981257478036564 1383019.4478159887 4.011430916733988 0.17666701679351032
0.278816729277026 14.723490747284249 1116426.386377411 4.2477748477773085 0.1794580550930414
0.29197245934245614 14.498376339309054 905798.4739348363 4.4944907566950905 0.18226803184723245
0.30550894033599635 14.30118344051956 738607.0492404251 4.751734667433401 0.1850926615187175
0.3194260270922637 14.128090074034802 605047.3082792001 5.0201882227856585 0.1879385487324025
0.33372636667817235 13.975899329259734 497658.51002996037 5.300076323853755 0.19080233300349478
0.3484074425429377 13.841973292730607 410973.0861760136 5.59212667149448 0.19369029233816423
0.3634708477065438 13.72394582590713 340641.6370379533 5.896507718130813 0.19659751131430658
0.3789258354744465 13.619952482424923 283273.65676344535 6.214083095669978 0.19953166110333115
0.394759197170943 13.528404979210318 236382.58738640242 6.545108866840354 0.2024888958467628
0.4109851597036268 13.447818901877973 197835.13307254858 6.890290188240213 0.20547297315898103
0.42759358464199365 13.377016911860661 166068.59096306493 7.250331028682662 0.20848694521597635
0.44459016275494395 13.3148896801872 139778.5261027697 7.625488527304224 0.2115263290776192
0.46197343408156316 13.260536974148717 117969.48592621325 8.016715399358368 0.21459734362669025
0.47973890873567154 13.21312590654421 99806.57893572126 8.424715087738244 0.21770160936297117
0.4978973776436419 13.171955978424872 84631.52479896237 8.849926096282818 0.22083655958132165
0.5164373854757282 13.136377128290272 71927.75893309867 9.29322650666002 0.22400566908408653
0.5353575145104853 13.105813600237889 61267.760450183305 9.755499102624901 0.22721182555571612
0.5546652813664916 13.079799428059594 52297.64990260969 10.23755365451767 0.2304563802247652
0.5743496798087261 13.057815256131583 44722.65993349788 10.739857691457573 0.2337359826441997
0.5944079187595306 13.039501033928927 38321.76343112991 11.263663298795423 0.23705691290002529
0.6148462534993254 13.02448363181347 32896.1951258281 11.809904853617782 0.24042074226498633
0.6356521488485393 13.012432163956634 28286.334882824773 12.379561601380145 0.24382910412057165
0.6568242287405166 13.003003094679297 24366.046542324522 12.97331774353662 0.2472798939038216
0.6783572537090308 12.99596903871915 21023.519417510284 13.592509838336493 0.25077800532677036
0.7002468988794368 12.991051781328087 18168.534609095677 14.238331270995836 0.25432602351541045
0.7224829717857004 12.988004018452846 15725.433787619471 14.911972042860537 0.25792593368958533
0.7450723869940707 12.986639194298567 13631.040466191476 15.614454414167614 0.2615775567942006
0.7679947076749806 12.986762363848968 11833.620170387123 16.347059660094118 0.26528293731373576
0.7912420218317078 12.988138167231147 10286.673196255442 17.111397064401487 0.26904669401574344
0.8148178797950997 12.990672892616342 8954.277299800624 17.908922085456062 0.2728712602915127
0.8387009998832657 12.994140839435559 7805.899364469393 18.74098758420442 0.27675760403803557
0.8628837161490158 12.998419531081788 6812.4497593991 19.6089633331778 0.2807064307419407
0.8873672056385842 13.003370863468335 5953.962593717855 20.514923616727092 0.2847239921910975
0.9121239525890729 13.008853608462204 5209.706640571251 21.460663104033223 0.2888133028088573
0.9371457566736636 13.014749815297073 4563.997679247916 22.447649939987134 0.29297415386364606
0.9624311244906985 13.020957084737597 4003.5736304102165 23.477942115985847 0.297210604225003
0.9879528278036926 13.027343457262182 3515.5877859050356 24.553947123312607 0.3015286287947294
1.0136968067450256 13.03381064423018 3091.059722822693 25.6775881065314 0.30592971469031965
1.0396616324859993 13.040259497934342 2720.6737470508288 26.850865488778716 0.31041540965284026
1.0658157177329732 13.046589700528836 2397.5086830378445 28.076858227171833 0.3149943098111404
1.0921493304640957 13.052718636281908 2115.088963386625 29.357597783989 0.31966669642900075
1.118648808111438 13.058549327950702 1867.884067503396 30.69588810165427 0.3244375823004397
1.1452818824691704 13.064002656566805 1651.6295524084992 32.09508051652848 0.3293146951309145
1.1720464054535955 13.069014500770924 1461.5845829713323 33.55716766125246 0.33429606529594014
1.1989038751109158 13.073471780501961 1295.009320296029 35.086668581381105 0.33939509945548396
1.2258509527976162 13.07733830118745 1148.6991675811446 36.68557699894488 0.34460837631960806
1.2528487167709794 13.080499878855978 1019.8355334813801 38.35897497505287 0.34995051543557926
1.2798918637821104 13.0829400460054 906.4289435096703 40.109135268563925 0.35541828131366976
1.306937053949653 13.084523480307048 806.5308721434624 41.94146890757 0.36102587911661355
1.3339752397050113 13.085241268146905 718.38643359333 43.85952256712211 0.36677558922756576
1.360983523633221 13.085031809218169 640.4126444423791 45.86792495644817 0.3726748294498042
1.387917276785449 13.083770480885965 571.6282575378103 47.97204091696173 0.37873372812279793
1.4147674172119895 13.081463647591692 510.65982279144004 50.176663612897144 0.3849581175210435
1.441499492569974 13.078021859590182 456.7321795381441 52.48694643171775 0.3913546193655674
1.4680944089260604 13.07341941487268 408.887340431208 54.909340879152964 0.39793510273384836
1.4945047481024865 13.067549509966913 366.40314577453324 57.45003874813884 0.40470863187762973
1.5207169793018598 13.060398893294012 328.7419062543482 60.11567011308238 0.4116849814011983
1.5467008701539728 13.051909283837452 295.19598564388883 62.91334278629071 0.4188746947544219
1.572417098585998 13.042026076754862 265.37478582828345 65.85068555237503 0.42628914750202995
1.597830912825435 13.030687538100981 238.8335920093642 68.93589556420304 0.43394061592820077
1.622929117563541 13.017863541672995 215.1617897218998 72.17779033165297 0.44184235160397123
1.647681439459449 13.003520704713434 194.0327001500914 75.58586478849618 0.45000866262085176
1.6720295418149382 12.987585913765262 175.1705833124089 79.16999593974566 0.4584535071543401
1.6959667571261985 12.970024760788796 158.31085900545835 82.94050597351979 0.4671906953630997
1.7194470472266858 12.950809743135558 143.2298504766727 86.91007513661938 0.4762415218879799
1.7424229935369528 12.929835427651648 129.7284259781061 91.09022117448055 0.48562007854409894
1.764910276954757 12.907209808191283 117.64109833581145 95.49516646335493 0.4953488030846173
1.7868375324812158 12.8827680694988 106.78890512546936 100.13845430211649 0.5054447126293203
1.8081744717701405 12.85650456470326 97.04969607230768 105.03668120299369 0.5159337735781212
1.828883231823755 12.828362888529362 88.29840471728625 110.2063952876805 0.5268385334687824
1.8489624811647756 12.798387671386347 80.43564677119565 115.6653178943674 0.5381826800338244
1.8683372331595423 12.766443115262357 73.36235417193838 121.43350599970779 0.5499949649341691
1.8870140410150096 12.732617492276615 66.98544440032799 127.53239951821571 0.5623052392791646
1.9049359629804221 12.696793258126249 61.23478525413579 133.98457044216033 0.5751432513644458
1.9220751254957178 12.658969560009345 56.053948495666106 140.81567386731538 0.5885451691904944
1.9383869891461118 12.619072801694475 51.37401758497385 148.0533919002505 0.602549247194776
1.9538816794504148 12.577222610355244 47.14821027611041 155.72615226090795 0.61719097845115
1.9684959142594982 12.533280939359807 43.32645828905884 163.8676957546951 0.6325182576781794
1.9822097274905606 12.487274312375545 39.866205501696 172.51191129238077 0.6485730000368501
1.9949945936887066 12.439188122233169 36.7324649494071 181.69791563217092 0.6654077516749778
2.0068293008254083 12.389019863557605 33.89120797782987 191.4678278916022 0.6830772805235857
2.0176731529224763 12.336736990917617 31.317912641285073 201.86770537508994 0.7016408503115096
2.0275072538652856 12.282345335175757 28.98117047300472 212.94740942236584 0.7211607970658581
2.0363131583897385 12.22586787534525 26.859983025629433 224.76267776345725 0.7417082177789144
2.0440542934773567 12.16726529036525 24.934014755986617 237.37447665888047 0.7633595347483135
2.050711164524571 12.106548108415105 23.179980336616637 250.84982112507154 0.7861977577304564
2.0562805940775317 12.043791580573233 21.587128843056277 265.2620006496201 0.8103115816495313
2.0607246292642447 11.97893236029666 20.13685104090136 280.6923721417728 0.8357993552551325
2.0640254486040543 11.912029395959665 18.81589872102823 297.2311380256213 0.8627694807678478
2.0661814096757456 11.843117072138668 17.612968180786464 314.97861053152974 0.8913421107134553
2.0671705308315658 11.77221555643024 16.518845152282054 334.0441047344614 0.9216426633115012
