M[M_sun], R[km], Lambda[1], P_c[MeV/fm^3], rho_c[fm^-3]
0.24162668629717493 15.618656898711224 2160425.4255784233 3.5677272577965504 0.1711233750220791
0.25364464677211374 15.277244075476556 1723127.8406242179 3.7848325315965816 0.1738883341644134
0.2660407447366779 14.981256696964312 1382891.5880290626 4.011428658559262 0.17666698950480142
0.2788174136894725 14.723445501607188 1116373.188154056 4.24777132920555 0.1794580142829114
0.2919721853046386 14.498356590151577 905814.4753863194 4.494485885381488 0.1822679776040249
0.30550850460037304 14.301186538932555 738601.7432157393 4.751728277957264 0.18509259250018073
0.3194255119378314 14.128111022497407 605071.4523297958 5.02018026806507 0.18793846619910617
0.33372278249901505 13.975947813026465 497660.2554622016 5.300066594442903 0.19080223504447152
0.34840686498005324 13.84197816712034 410976.11915143905 5.592115143085631 0.19369018079763725
0.3634705473686883 13.723938073415392 340643.71366701805 5.896494131698991 0.1965973837076637
0.378925322357291 13.619948784288074 283286.8363756098 6.214067286777784 0.1995315169452695
0.394758357952407 13.528425719263169 236386.82355564766 6.545090851885736 0.2024887378799478
0.41098417578884666 13.447821874638796 197836.6358681305 6.890269619415516 0.20547279798623852
0.4275922002567227 13.377037833685153 166068.43063962608 7.250307712946123 0.20848675233086328
0.44458959959527944 13.314885742005337 139786.8156557106 7.625462529083626 0.21152612211506647
0.4619719668714466 13.260527967148091 117967.70217060739 8.01668626514342 0.21459711824998362
0.47973793902370787 13.213117782791388 99805.1278663671 8.424682590313298 0.21770136502776616
0.49789613836850244 13.171953549462623 84631.86554579811 8.849890355458967 0.2208363008024861
0.5164364494596676 13.136370083872514 71929.2638275258 9.29318694398798 0.22400539056040894
0.5353557543457664 13.105816403752558 61266.67375666348 9.75545544982192 0.22721152668552014
0.5546638797060599 13.07979753690157 52298.0852484149 10.237505626997326 0.23045606038021532
0.5743478105445121 13.05784519465885 44321.747224139115 10.739805497893355 0.2337356475453499
0.5944060368564181 13.039500558584972 38322.520831464084 11.263606154198092 0.23705655585954707
0.6148436980384966 13.024488547187453 32895.3195346909 11.809842420356187 0.24042036256658822
0.6356498337461649 13.012435382962526 28287.624342629926 12.379493520757201 0.24382870101015142
0.6568216081150307 13.003017278347633 24366.494680381 12.973244328192456 0.24727947429181973
0.6783547964619715 12.995968695254444 21024.003592652352 13.592430045652842 0.2507775610624855
0.7002440163129288 12.991059972220793 18168.70203364018 14.23824467307496 0.2543255537174633
0.7224796478260642 12.98800565877137 15725.782957788386 14.91187818430887 0.25792543742404245
0.7450691921463062 12.986639247733212 13631.301203819638 15.614353726190007 0.26157704214404803
0.7679918157767647 12.986758946693566 11833.908756960425 16.346950779020126 0.26528239456889025
0.7912364460750503 12.988151947999313 10286.464902976291 17.11127944369807 0.2690461220660924
0.8148122817934008 12.990671620469097 8954.3677179321 17.908795142352275 0.2728706579555621
0.8386967132945569 12.994135831964364 7805.773486436635 18.74085188177436 0.2767569805555838
0.8628800143548288 12.998412083634822 6812.613472022143 19.60881710676102 0.28070577471622876
0.8873629370495232 13.003369524568905 5954.083378162926 20.514766162432387 0.28472330220196446
0.9121198868933262 13.00886080252405 5210.114833064416 21.460493669764148 0.2888125773403831
0.9371410973983775 13.014750345268583 4564.141510561304 22.44746923159521 0.29297340330386573
0.9624264805662742 13.020962573943283 4003.588811172294 23.477747865437948 0.29720981531581053
0.9879482113227237 13.027341867737217 3515.7528988339 24.553738416148388 0.3015277997002439
1.013691838783337 13.033806010756788 3091.305917568411 25.677365750694495 0.30592885657632174
1.0396575743333634 13.04026215511799 2720.753362210251 26.850626765584302 0.31041450779959856
1.0658101057336842 13.04658392640325 2385.339677534868 28.076602018990673 0.3149933619856704
1.0921440364355297 13.052712049096272 2115.1634301249883 29.35732499895194 0.3196657145703582
1.1186431711722087 13.058549784981212 1867.9053759057924 30.695595482560968 0.3244365500676268
1.1452757209277544 13.064008261884256 1651.6838693796687 32.09476901852105 0.32931362485444227
1.1720401608902946 13.069012047860554 1461.6571354613923 33.55683363000888 0.3342949395762092
1.1988978870488083 13.073471019340007 1295.0668048104876 35.086310440097826 0.33939391517935247
1.2258443666925822 13.077340169894835 1148.7262262521626 36.68519578703211 0.34460714658898783
1.2528414237113377 13.080496673678114 1019.8668978117046 38.358569145244665 0.34994923751641877
1.2798858182869304 13.082943539473145 906.4272075736745 40.10870020752671 0.3554169353801651
1.3069305360299603 13.08452332155014 806.5783650889264 41.94100565607629 0.3610244786371658
1.3339680732578714 13.085238712180335 718.406841530806 43.859025930599785 0.36677411296697987
1.3609777945145547 13.085032291085781 640.4433556782716 45.86739597564359 0.3726732912454811
1.3879104634586121 13.083769410937697 571.6509440154806 47.97147733211757 0.3787321239784023
1.4147602524746163 13.081463202561347 510.6739944628677 50.1760592431845 0.38495642401050567
1.4414917960530904 13.078022170240962 456.7542046547092 52.48630223668322 0.39135285064736164
1.4680870508521657 13.073420985773645 408.88901016956476 54.908654005944875 0.3979332537947036
1.494496020343688 13.0675536378531 366.4261194280505 57.44930611279951 0.4047066973166873
1.5207090587819934 13.060401623062635 328.7307158517035 60.11488837985495 0.4116829553981798
1.5466933375013352 13.051913643841559 295.2026306735326 62.91250834485982 0.41887257103463926
1.5724094634435626 13.042028279416327 265.38387059864726 65.84979449281373 0.4262869192979055
1.5978237174571526 13.030689915361027 238.8432317858652 68.93494364936572 0.4339382759369125
1.6229216580149206 13.017868252164774 215.16881651935165 72.17677296672565 0.4418398919408026
1.6476742419330643 13.003525414768989 194.03964134016655 75.58477698737934 0.4500060747677738
1.6720214629680985 12.98759065427943 175.17148070700466 79.16883796906554 0.4584508056219914
1.6959592515146218 12.970032468815468 158.32057211590936 82.93926653353357 0.46718784713362116
1.719439511969421 12.950816234861817 143.23447091718052 86.90874784593042 0.4762385162276089
1.7424158925913966 12.929841365678898 129.74610459549564 91.08880548065495 0.4856169291464352
1.7649035013211751 12.907217921778782 117.6405303219795 95.4936487260697 0.4953454728301192
1.786830155272219 12.882777521782685 106.792485291303 100.13683319975881 0.505441214360762
1.8081677714686477 12.856512922274815 97.05824369026209 105.0349483279357 0.5159300938143033
1.82887607948115 12.828372390070133 88.2995454426779 110.2045414691542 0.526834657627374
1.8489557555440304 12.798398472289437 80.4391610735445 115.66332554534483 0.5381785645282505
1.8683300406407963 12.766454984655951 73.3602737122156 121.43137149477276 0.5499906198643302
1.8870077276418484 12.732630067365532 66.99014489543373 127.53011898808126 0.5623006749786587
1.9049295600098708 12.696807302457486 61.23699112197412 133.98212295218275 0.5751384192592911
1.9220701080051619 12.658983318715872 56.05849875107142 140.81304506322113 0.5885400472804351
1.9383813050759535 12.619088457113632 51.37623753960141 148.0505660365473 0.6025438115053474
1.9538760331612837 12.577238862867416 47.14860217782507 155.72312135345172 0.6171852345781222
1.9684908934383862 12.533298151588559 43.32607311531391 163.86444143295617 0.6325121785781258
1.9822043092650417 12.48729188384853 39.8675970607881 172.50840358589974 0.6485665234403576
1.9949891722745439 12.439207494724863 36.733205448274425 181.69414182319252 0.6654008776295969
2.006823461618169 12.389041846058792 33.8925276490424 191.4637634687862 0.6830699738619439
2.017668328903309 12.336759149306706 31.318292469391878 201.86332329926765 0.7016330725591812
2.027502624329851 12.282368252287652 28.982131592804855 212.94269088690618 0.7211525422703724
2.036310351986305 12.225891102111978 26.86091425091632 224.75757908467546 0.7416994045912578
2.0440514101208955 12.16729036864051 24.934450941422146 237.3689729928872 0.7633501504922197
2.050708893658756 12.10657414014482 23.180173985083364 250.8438727011398 0.7861877487986774
2.0562787207515036 12.043818467866316 21.58783475707711 265.2555510959358 0.8103008492174895
2.0607210593048215 11.978962432996916 20.136393282100066 280.68539694001 0.8357879143007775
2.064024100609434 11.912058850227497 18.815080415532382 297.2235703811624 0.8627572198278454
2.0661808855295605 11.843148615605186 17.61343325028531 314.9703896624001 0.8913289507188993
2.0671692826100836 11.772246437228132 16.518725203997203 334.03517640872263 0.9216285617341865
