M[M_sun], R[km], Lambda[1], P_c[MeV/fm^3], rho_c[fm^-3]
0.24162668629717493 15.618656898711224 2160425.4255784233 3.5677272577965504 0.1711233750220791
0.2536420081805954 15.27734740188752 1723214.9707305245 3.784802317161695 0.1738879575560585
0.26603789629577956 14.981301571544623 1383022.4657938383 4.011365141768537 0.17666622194187057
0.27881125757168856 14.723610019443331 1116542.3171114645 4.247672361168138 0.17945686640281905
0.29196504922676364 14.498494094845634 905957.9166506617 4.494348869081411 0.18226645189572374
0.30549955931276207 14.30129584109805 738702.5267347014 4.75154856103657 0.18509065121444232
0.3194142525779354 14.128228826938132 605152.9477007734 5.019956526667236 0.18793614479574738
0.3337108543473786 13.976057889085164 497723.9070012499 5.299792938055143 0.19079947977872483
0.34839081811727474 13.842107909573073 411058.81316948915 5.591790888439966 0.19368704354474106
0.36345235753085287 13.724047866366854 340701.26630469516 5.8961119939557225 0.19659379458910997
0.378904148237075 13.620065873914132 279437.9472651546 6.2136226415253475 0.199527462315955
0.39473401995598617 13.528533334918139 236442.35807835023 6.54458416076407 0.20248429488331696
0.41095719096311284 13.447971948515113 197900.2919456044 6.8896911007900234 0.20546787107885792
0.4275642386558962 13.377149601713896 166115.1125208386 7.249651938079716 0.2084813272734542
0.44455711336552145 13.31499669109936 139836.04928829422 7.624731310455036 0.21152030114461084
0.46193597414469195 13.260633484342174 118002.43858135864 8.01586684857791 0.21459077940037954
0.4796987550829636 13.21321687533714 99835.2061564292 8.4237685861468 0.21769449299418847
0.4978534492104673 13.172046893084625 84664.0265668186 8.848885133753368 0.22082902256783934
0.5163894039221223 13.136454836670168 71956.53557335808 9.292074237166878 0.2239975570350192
0.5353059390098247 13.105895323104999 61293.357958221924 9.754227713477169 0.22720312095262526
0.5546103833154387 13.079847751898326 52313.53689895196 10.236154858292311 0.23044706478757648
0.5742906124498592 13.057874902085755 44743.77834333086 10.73833756590772 0.2337262229672937
0.5943446886919055 13.039572743474091 38336.705575296284 11.261998983436317 0.23704651422754366
0.6147789253539966 13.024531103650936 32911.646185293044 11.808086516470333 0.24040968374130128
0.6355787382329696 13.012470812952115 28071.50864089083 12.37757879707311 0.24381736378913973
0.6567485395174036 13.003048076887044 24379.317652643 12.971179577421115 0.24726767302310165
0.6782772462805261 12.996006555052194 21035.048995897283 13.590185948000327 0.250765066527986
0.7001631940626213 12.991058648598957 18042.630101532643 14.235809196120584 0.2543123411361223
0.7223937003535655 12.987997460425547 15735.041900071645 14.909238522528815 0.2579114805371832
0.7449791733384288 12.986658267166042 13639.3163984207 15.611522006262888 0.2615625682701347
0.7678960089175878 12.986755036311688 11839.68852137678 16.343888653764264 0.2652671306424973
0.7911390938097143 12.988130298791093 10293.067330092475 17.107971545026643 0.26903003687500177
0.8147095728124473 12.990650805055306 8959.911465906742 17.905225083296877 0.2728537182806157
0.8385880471131401 12.994123027004193 7809.992709519691 18.73703549690565 0.2767394462417626
0.8627667165955725 12.99839640620246 6817.2402275387285 19.604704774187017 0.2806873252734816
0.8872377847009273 13.003348711873466 5958.129903948284 20.510338089731313 0.2847038977008048
0.9119972252372202 13.008825783508572 5213.437654386534 21.455728709181784 0.28879217515904004
0.9370139182150811 13.014718867280186 4567.1996204564 22.442387232098717 0.29295229557120905
0.9622901462513367 13.020912674731148 4006.4848098678103 23.472285052194174 0.29718762920806757
0.9878114897112427 13.027318031618067 3498.8101907563387 24.54786907644235 0.3015044835998982
1.013550944649252 13.033769495446142 3093.5393021328423 25.671112603774795 0.3059047244780705
1.039511713423417 13.040226245285046 2722.720829572155 26.843913366390904 0.31038914578632465
1.0656608700108805 13.046546886368965 2399.4702841190997 28.069396942702795 0.31496670727547427
1.0919881327137977 13.052675085536542 2116.6850645358118 29.349653781391552 0.31963810289729244
1.118484008774848 13.05851599811919 1869.4752315480162 30.68736653850849 0.3244075219342594
1.1451114455371498 13.063974683156811 1652.883862535806 32.08600920524032 0.3292835269988166
1.171872148072355 13.068985010885717 1462.8681374168789 33.54744019764241 0.33426328274063083
1.198723994799169 13.073447286859727 1296.015154341548 35.07623905448174 0.3393606118374789
1.225668239020914 13.077315163324421 1149.6134211816159 36.67447567416009 0.3445725651643005
1.2526614994838645 13.080484883744415 1020.7039098271713 38.347114685845895 0.34991305407397644
1.279700494596488 13.082929813488951 907.1798599932165 40.0964659211875 0.3553790865854426
1.3067414133269488 13.08451894383911 807.1833552406903 41.92797869117421 0.3609850961486903
1.3337769395767842 13.085229042134147 718.9077978996818 43.8450602363985 0.3667325997012885
1.3607818812052255 13.085037557964036 640.9594851813613 45.852520814414916 0.37263003629726604
1.3877118472092376 13.08378256390306 572.1164410274854 47.955629169087715 0.378687014990521
1.4145665610857756 13.08150083510365 511.10846288128243 50.15906430227106 0.38490880231318503
1.4412885159909212 13.078054353893673 457.1174044066534 52.46818749635678 0.3913031143574319
1.4678805050566717 13.073461439171925 409.248932243924 54.88933925803923 0.3978812619670233
1.4942880859311984 13.067600532348651 366.73826816519187 57.42870465227522 0.40465229811049647
1.5204987156970147 13.06046610623394 329.0210086617348 60.092906423124774 0.41162598518234883
1.5464810122650985 13.051987653982177 295.4543069578744 62.8890443900755 0.418812853404246
1.5721963413204425 13.042117359083827 265.61520267857645 65.82473861564993 0.426224263992624
1.5976195916464977 13.030798131408078 239.0599033597217 68.9081767270521 0.4338724776505824
1.6227002680169236 13.01796061171517 215.35951060101348 72.14816582218626 0.4417707290102804
1.6474581884701416 13.003659981627335 194.20657294157022 75.55418944432775 0.4499333077277273
1.671807400331591 12.987736417166394 175.33548335872806 79.13627751967618 0.4583748424660818
1.6957448080332378 12.97020129221885 158.4552486318529 82.90441550963807 0.46710775958221196
1.7192111476646454 12.95096607696415 143.37330635855514 86.8714268496059 0.4761540025332134
1.7422136268321824 12.930077028174615 129.85962428853927 91.04899897709517 0.4855283743282619
1.7646942745683405 12.907439964800778 117.74932528912083 95.45097325805521 0.4952518333243265
1.7866226984683067 12.88301977193413 106.88237246579727 100.09125160895076 0.5053428512652995
1.807963196394462 12.856777738854142 97.14281041354089 104.98622425835555 0.5158266281504202
1.8286757567509766 12.828660178893402 88.38267842034615 110.15238523829728 0.5267255608299701
1.848757824428379 12.798708251942791 80.5108944832101 115.60730651813174 0.5380628485487085
1.8681471934555658 12.766818935021847 73.42413220781202 121.37135587506017 0.5498684500558664
1.8868206791851798 12.732986413967785 67.04846206296395 127.46583313089664 0.5621717528585386
1.9047469607798282 12.69718816076038 61.29516760719144 133.91330810790376 0.5750025573898648
1.9218936288814923 12.659393411938616 56.10808859711733 140.73913286618586 0.5883960382132224
1.9382111225774319 12.619522731043313 51.42216234210377 147.97111388296548 0.6023909813349416
1.953714432597062 12.577706344027005 47.193164994207876 155.6379047976063 0.6170237406744977
1.968335131478859 12.533792874479625 43.365234586044046 163.77292926921837 0.6323412106235686
1.9820594318860192 12.4878181219934 39.90205052894372 172.40978302189012 0.6483844313518632
1.9948531504748406 12.43976048272 36.76834197207735 181.58804054687312 0.6652076126836035
2.0066903634250495 12.389607477328788 33.92569764326061 191.34949250303873 0.6828645475763456
2.0175500206095043 12.337371342803415 31.344867868591013 201.74012262390565 0.7014144035131581
2.027393867289474 12.28300956748627 29.00853094465457 212.81003186424752 0.7209204632469682
2.0362128404182878 12.226566241636698 26.885064235741304 224.61423389891843 0.7414516290251119
2.0439657501489994 12.167997129808956 24.95641817048311 237.21424332953478 0.7630863222024947
2.050635140180809 12.107316899996743 23.20104631752894 250.67650472848413 0.7859059181835129
2.0562103255659436 12.044573399827721 21.605738253964653 265.07423244645906 0.8099991244503687
2.060675037954687 11.979770262868513 20.15362619288017 280.4893024382624 0.835466273677316
2.0639959287198204 11.91291388579878 18.832135994820018 297.01082275611606 0.8624125305549136
2.066160852305562 11.844025345752662 17.628107124644327 314.7392806341357 0.8909589906202954
2.067162404166004 11.773162804592728 16.531012239393082 333.7841817672554 0.9212321357472995
