M[M_sun], R[km], Lambda[1], P_c[MeV/fm^3], rho_c[fm^-3]
0.24162668629717493 15.618656898711224 2160425.4255784233 3.5677272577965504 0.1711233750220791
0.2536439016469712 15.277286214346253 1723181.3732582892 3.784817773745625 0.17388815021492066
0.2660397309750126 14.98126485141182 1382920.5116819239 4.011397634512329 0.17666661459750338
0.2788149378084411 14.723520888623717 1116460.3890735123 4.2477229892690485 0.17945745361249468
0.2919690667514373 14.498432621277615 905906.1406088525 4.494418960973549 0.18226723238521017
0.30550455593272563 14.301230142113704 738633.0461295599 4.7516404965635894 0.18509164429359573
0.3194206108840921 14.128134817603698 605149.5467220654 5.020070982957111 0.18793733232393092
0.3337180034943991 13.975989811195069 497691.4820321162 5.29993292830514 0.19080088924825647
0.3483989262129529 13.842044157571943 411016.03780610126 5.591956762075622 0.1936886484177963
0.36346103674991953 13.724047770830612 340664.83236710855 5.896307477407412 0.19659563061105692
0.3789145691383679 13.620016843186601 283307.4384463543 6.21385010027087 0.19952953646583602
0.3947456703703264 13.528479669255981 236417.42684709284 6.544843358548037 0.2024865676977233
0.4109712098060928 13.44790273631724 197880.55821194552 6.889987041200793 0.2054703914315826
0.4275784424353139 13.377074538327616 166081.56826785815 7.249987397998543 0.20848410244739166
0.44457330724661503 13.314943033093156 139809.1099570337 7.625105362618318 0.21152327884034533
0.4619562042710345 13.260554324035684 117979.94261544164 8.016286017063898 0.21459402200750183
0.47971885943129433 13.213161489090492 99815.38765969004 8.42423613933785 0.2176980083405578
0.49787515579075553 13.171996746687604 84645.6509659038 8.849399347637277 0.22083274569606554
0.5164138178416181 13.136410310147934 71942.70863742815 9.292643432945319 0.22400156420878464
0.5353314044797868 13.10585538821832 61281.562257955855 9.7548557501655 0.22720742082423276
0.5546368932647066 13.079829151812916 52302.56806595913 10.236845829383443 0.23045166638549472
0.5743198540198176 13.057866775352766 44732.30278159993 10.739088469098668 0.23373104399838027
0.5943756834069195 13.03954849521332 38329.98902582382 11.2628211106673 0.2370516508933603
0.614812373086822 13.024530213951797 32903.63961833263 11.808984724112431 0.2404151463423916
0.6356159350767512 13.01244328428693 28293.55675093233 12.378558244458633 0.2438231631697873
0.6567850413238363 13.003023258707561 24372.31252942596 12.972235766796608 0.24727370976846114
0.678315616405622 12.995984663319502 21029.197610603955 13.591333876688536 0.2507714578873735
0.700204044798241 12.991070853634366 18038.04285395847 14.23705501865583 0.2543190997841784
0.7224382102980432 12.98799194344823 15730.828984272517 14.91058878886623 0.2579186199042959
0.745024409219041 12.986664191101713 13634.818827955027 15.612970513351023 0.2615699720775365
0.7679450799094009 12.986761010910287 11837.200191783742 16.345455016265205 0.2652749385667072
0.79118893386702 12.988134394775484 10289.69806131724 17.10966362357184 0.26903826487998117
0.8147615096651968 12.990663906101332 8956.963764189952 17.907051259642206 0.2728623833567964
0.838645477363785 12.99413129071058 7808.110625977092 18.73898767148824 0.27674841547388734
0.8628252241366821 12.998399895164875 6815.148904532006 19.606808328379305 0.2806967625945002
0.8872998391663497 13.003338926014159 5955.917030724177 20.512603147061057 0.28471382353322644
0.9120594601015724 13.008846599852772 5211.596011095866 21.45816608637703 0.28880261130235735
0.9370798656686089 13.014727479084216 4565.566807981203 22.44498677636621 0.29296309259814013
0.9623563078913173 13.020933251138585 4004.9718731490975 23.475079383638352 0.29719897781833915
0.9878813871341664 13.027332037597816 3516.834194904865 24.550871346583968 0.3015164101939263
1.0136232921231723 13.03378645074639 3092.328454039582 25.674311191812265 0.30591706844532035
1.0395870411793076 13.040239343992257 2721.7396592737928 26.847347372707688 0.3104021188438295
1.065736861024528 13.04656399125294 2398.561690414594 28.073082440303583 0.31498034153367677
1.0920679479586282 13.052699727110543 2115.869168432001 29.353577708972217 0.319652226627279
1.118565342760543 13.058533671436741 1868.7947025310825 30.691575739903012 0.32442237016492803
1.145194729907446 13.063987184023231 1652.2012074686868 32.090489943354264 0.3292989223736411
1.1719588079085344 13.069002646968194 1462.2133591807703 33.55224502640585 0.3342794755089622
1.1988121906630007 13.073463093770133 1295.5579462672724 35.08139064935674 0.33937764676513
1.2257588387009428 13.077326129962337 1149.1913242325288 36.679959086667196 0.3445902538042344
1.2527541086345484 13.080488443516742 1020.2524843093396 38.35299299961872 0.3499316752833542
1.2797940275007278 13.082933918211126 906.7767979368973 40.102723813774865 0.3553984464144811
1.3068382685452529 13.084520690780007 806.8362261708721 41.93464202768702 0.36100524042445953
1.3338753664189602 13.085239018022888 718.6742718221798 43.85220371640254 0.3667538338181963
1.3608819165707156 13.085036407206156 640.6801797347731 45.86012947118835 0.37265216123760525
1.3878128328801782 13.083780360310817 571.8571191682394 47.96373549817328 0.37871008821987845
1.4146690256591112 13.081486237484825 510.87814975371714 50.167757182694764 0.3849331607221075
1.4413921128709506 13.078037183598246 456.93063664379997 52.477453129666074 0.39132855431496644
1.467986314953083 13.07343910068674 409.0626450512251 54.89921866710282 0.3979078555594495
1.4943948818888186 13.067578990225334 366.5742915384953 57.43924218265513 0.4046801229963682
1.5206064141497342 13.060435016951052 328.8758119694981 60.104150040544965 0.41165512505005997
1.5465893556236903 13.051949294772175 295.321990888047 62.90104600757068 0.4188433984749422
1.572305477527949 13.042071901406244 265.49475067113593 65.83755445369883 0.42625631157332305
1.59772959840525 13.03074499008934 238.94686176522708 68.92186771040205 0.43390613274294026
1.6228163256424712 13.017927415670355 215.26237469852214 72.16279801753223 0.4418061049810875
1.6475687311698346 13.003592013275728 194.12669025253086 75.5698345435255 0.4499705270479563
1.671917607309374 12.987660106743833 175.256068362827 79.15293169179235 0.4584136964590927
1.695854861529566 12.970116315363674 158.38242496540693 82.92224122160717 0.46714872301640004
1.719335291076773 12.950907840391826 143.29702152675728 86.89051585163605 0.476197229730844
1.742321340554452 12.929969670988235 129.79559524886437 91.06935921528402 0.4855736683638978
1.764800770952753 12.907325865762745 117.69090150987073 95.47280084348088 0.4952997279206134
1.7867282640086322 12.882894310845213 106.83281637373894 100.11456554669637 0.5053931617315081
1.8080671951849923 12.85664304545174 97.0975819973074 105.01114542779456 0.5158795483059608
1.828779510954776 12.828512117395158 88.34566526736232 110.17907736446155 0.5267814189581113
1.8488589322190194 12.798551710284341 80.47564440888425 115.63595868811106 0.538122034044782
1.8682454516518567 12.766648062247395 73.38887993525091 121.4020520902563 0.5499309363010978
1.886915007863942 12.732804043277508 67.01532746945837 127.4987457081608 0.5622378081384938
1.9048402372648479 12.696992883927186 61.26404300239248 133.94850463988683 0.5750720462724256
1.9219836813927094 12.659182267047347 56.08214453966705 140.7769363902874 0.5884696938541258
1.9382986502189734 12.619299784485419 51.39848349720052 148.01175075131732 0.6024691483730267
1.9537964886055923 12.577462701125665 47.167381364201134 155.68148979706095 0.6171063386113842
1.9684145427369555 12.533541349069932 43.344370448463664 163.8197413020955 0.6324286783621941
1.9821319350866953 12.48754694238122 39.88551639855108 172.46022327022814 0.6484775637553968
1.9949213862480115 12.439479347227408 36.74766687827054 181.64230665442437 0.6653064591509503
2.0067613615340445 12.389324119490963 33.90692539287912 191.4079368116948 0.6829696136109507
2.017610759665317 12.33705793473671 31.33197482491295 201.80313380436868 0.7015262421429396
2.027449930392795 12.282679458975975 28.994421872947736 212.87788026380795 0.7210391599627585
2.036262862803789 12.226221206748004 26.872742355008032 224.68754740454966 0.7415783531649425
2.044010319349763 12.167634460603335 24.945827894811828 237.29337905581792 0.7632212558853392
2.050672831645583 12.106937101509304 23.190077657543664 250.76217031809745 0.7860502748076775
2.056248962283834 12.04419906696866 21.5966842823439 265.166966102832 0.8101534386422852
2.060698182566191 11.979357458843095 20.144208350891613 280.58959260580275 0.8356307728944141
2.064006262517457 11.912468017246795 18.822832420899132 297.119629413992 0.862588816836771
2.0661711479335527 11.843577434109383 17.62082519592873 314.8574773433954 0.8911482003043166
2.06716908376678 11.77269449261109 16.525480837941934 333.9125479659547 0.9214348799043254
