M[M_sun], R[km], Lambda[1], P_c[MeV/fm^3], rho_c[fm^-3]
0.24162668629717493 15.618656898711224 2160425.4255784233 3.5677272577965504 0.1711233750220791
0.25364441854579456 15.277262454893544 1723195.5185719552 3.7848265088012916 0.17388825909317562
0.26604071747079616 14.981251877250621 1382910.1751018248 4.011415997380449 0.1766668365019276
0.2788160288800393 14.723499409046404 1116470.4273732523 4.247751601232957 0.17945778546815871
0.29197128362975383 14.498394393166514 905888.7028768733 4.494458572873109 0.1822676734729052
0.3055072158413873 14.301199747980263 738677.3706669317 4.751692453452111 0.18509220552715297
0.31942343478568086 14.128117626277371 605084.018855938 5.02013566760323 0.18793800345210038
0.3337231132978287 13.975883806717926 497652.7866302259 5.300012043729893 0.1908016858093075
0.3484036268887667 13.842005491644624 410993.1319336793 5.592050505852593 0.1936895554146265
0.3634669976251348 13.72395365601601 335710.51555281156 5.896417955679515 0.1965966682463682
0.3789192426412098 13.62000545914862 283293.1087706814 6.213978650037147 0.19953070868492045
0.39475218523973055 13.528462092093235 236397.24349896403 6.544989846382671 0.20248785219813767
0.41097879303090074 13.44787270112098 197859.22291106184 6.890154295114875 0.2054718158361003
0.4275860742030959 13.377088935339225 166077.57388242215 7.250176987544844 0.20848567087312056
0.4445831570685237 13.314906369455707 139799.99285865776 7.625316763829594 0.2115249617299176
0.4619647556074728 13.260550484990656 117973.49354481649 8.016522917373429 0.21459585462292174
0.4797300040666255 13.21314905223762 99804.27477922599 8.42450038613094 0.2176999951070316
0.4978876459117357 13.171967530974978 84635.59987054294 8.849689966626944 0.22083484990172267
0.516426561468901 13.136396667590626 71934.96614027697 9.292965127369722 0.22400382895758775
0.5353461056132199 13.105833682286619 61272.885772360925 9.75521070128178 0.22720985100746138
0.5546531437817871 13.079812632701852 52303.02726140356 10.237236350994888 0.23045426710708397
0.574335925445707 13.057844552993425 44726.772930101135 10.739512864405931 0.23373376874771412
0.5943930709571252 13.039517389140372 38322.86260128404 11.263285762126293 0.23705455404408454
0.6148309802644226 13.024517395655955 32899.18843928089 11.809492376770155 0.24041823371755033
0.6356361391089949 13.012426678210451 28290.19380235537 12.379111814623176 0.24382644089980812
0.6568070070468918 13.003014251281899 24368.565304167816 12.972832712379027 0.24727712166462118
0.6783394924041761 12.99598475636439 21026.36017461105 13.591982674678473 0.25077507022075807
0.7002286625855155 12.991052404826291 18171.05304997257 14.237759147942059 0.2543229197199212
0.7224600647437999 12.98801256531519 15727.4757280561 14.911351951868538 0.2579226550347656
0.7450512760809247 12.98664638899138 13632.677756180146 15.613789204038202 0.2615741566812704
0.7679726958549941 12.986751014037587 11835.387924242223 16.346340321729713 0.2652793515924055
0.7912179760826064 12.988133023837918 10287.65441332918 17.110619987160977 0.26904291535226327
0.8147936817252157 12.990668848931364 8955.461805087838 17.90808341929918 0.27286728088056583
0.8386761739811287 12.994129758947667 7806.637468737292 18.740091049111143 0.2767534849231617
0.8628569897641838 12.998403068401913 6813.493873900619 19.60799727096867 0.28070209663007184
0.8873387966514048 13.003357241498462 5954.750517897924 20.513883377203587 0.2847194337002138
0.9120951107822644 13.008846853067578 5210.6012145707555 21.459543718538516 0.2888085099243285
0.9371155262617961 13.014738200326642 4564.748680399593 22.446456071734953 0.292969195214612
0.9624001809643411 13.02095056982805 4004.161198466812 23.476658781360683 0.29720539222177433
0.9879215935271409 13.027334028469024 3516.2578323514995 24.552568281035708 0.3015231513089304
1.0136631616116132 13.033793220186645 3091.7344186309047 25.676119094261477 0.3059240454890542
1.039628762407692 13.040253575923453 2721.14002829042 26.84928834577317 0.31040945149056076
1.0657804233977048 13.046575814870334 2397.9280576924402 28.07516556996569 0.31498804793611107
1.0921127548390475 13.05270801024086 2115.5822293055658 29.355795612094763 0.3196602097167207
1.1186118688275803 13.058541737313648 1868.3900284728702 30.693954896767913 0.3244307627949345
1.1452428175022875 13.063996025778312 1651.8851353969073 32.09302258871761 0.32930762429365407
1.1720064165785113 13.069010255468559 1461.85174415992 33.55496086874581 0.3342886281776629
1.1988640564825488 13.073463200997935 1295.248226599241 35.084302507307385 0.3393872754899663
1.2258094410728324 13.077332633095995 1148.9046711991778 36.68305851004652 0.3446002520642757
1.2528061162595723 13.080499244416341 1020.0624347233195 38.35629384957335 0.3499420728284745
1.279850006176474 13.082934483111485 906.6050691129229 40.10626102933715 0.35540938937772343
1.3068928254493217 13.084523931411722 806.6626437501669 41.93840843030323 0.3610166268301758
1.333926901443853 13.085241195961322 718.4780389231511 43.856241534906495 0.36676583630299603
1.3609390940097275 13.085032559374575 640.5502429465295 45.8644302447957 0.3726646673030395
1.3878705096301065 13.083772225846735 571.7444812375948 47.96831759726309 0.3787231303530218
1.4147278886272587 13.081482492820253 510.75157913409606 50.17267085292762 0.3849469293675976
1.4414512827084924 13.078028148507654 456.8276507236478 52.48269057052337 0.3913429343652611
1.4680454216227263 13.0734285973376 408.95440912969207 54.904803070056964 0.3979228877678691
1.4944551217144184 13.067562359254328 366.4804304931311 57.44519861775083 0.404695851266728
1.5206676902958507 13.060416464748924 328.7911605924867 60.11050562459678 0.4116715966954011
1.5466510826666982 13.051928081493049 295.25240349070134 62.907830089143054 0.41886066450190224
1.5723669978891706 13.042045450445952 265.4221204633099 65.84479881673892 0.42627442699490176
1.597792295203138 13.03071592571121 238.89442049560293 68.92960679862128 0.43392515692273265
1.6228783114271603 13.017893473788671 215.19938697565942 72.17106918189086 0.4418261020124265
1.647630211409802 13.003552543317433 194.0691255711531 75.57867831546584 0.44999156617181985
1.6719797026462435 12.987618886398542 175.20085362834314 79.16234590466641 0.45843565971002226
1.6959164955720814 12.970065353012707 158.3468456924449 82.93231772850108 0.4671718787998947
1.7193967514805695 12.95085498029087 143.2522042030354 86.90130652520929 0.476221665297375
1.742379808072998 12.929915828077307 129.76121324219943 91.08086854701783 0.4855992723905728
1.764861530569522 12.907263172249644 117.66373600250918 95.4851397102193 0.4953268021493725
1.7867887413510661 12.882825074722602 106.81012883920458 100.1277446923444 0.5054216017560554
1.8081264284863938 12.856567028910066 97.07082967777947 105.02523319475982 0.5159094637086407
1.8288361803232671 12.82843048827122 88.31763345375023 110.19414829788218 0.5268129282709085
1.848915135180104 12.798462334799067 80.45178680699225 115.652155741905 0.5381554915687466
1.8682910030136353 12.76652241189448 73.37620620802747 121.41940473452826 0.5499662599258008
1.886970438853712 12.732700178297723 67.0000298643394 127.51733357900478 0.5622750859946609
1.9048972688873151 12.696881058894187 61.25059367597637 133.96840153384653 0.5751113289190328
1.9220338753069577 12.659064420359552 56.06667052459002 140.79830716501792 0.5885113322501958
1.9383484121905827 12.619175789845588 51.38472521084971 148.03472338888645 0.6025133373843509
1.953843429808291 12.577329787215088 47.158464411857985 155.70612919647655 0.6171530327397154
1.9684587218109326 12.533397393030906 43.33199770097776 163.84619678126046 0.6324780974171346
1.9821739811308776 12.487395576273302 39.87415821399307 172.48873842619332 0.6485302138731038
1.9949633695217133 12.439319259053924 36.74015269357571 181.67298485941697 0.6653623399267218
2.006799154230342 12.389156959623907 33.8972312015201 191.44097729132486 0.6830290108774426
2.017645319388798 12.33688164165123 31.323397702504042 201.83875632806755 0.7015894686086328
2.027480735173512 12.282495069025869 28.988290618876402 212.9162376922103 0.7211062639888963
2.0362904380233235 12.226027813268894 26.865712053263806 224.72899478049243 0.7416499959409817
2.0440349092627335 12.16743039978981 24.939260453620232 237.33811830579802 0.7632975404163728
2.0506938897699607 12.106722776860698 23.18492431526205 250.8105246810067 0.786131636782737
2.056265951788005 12.043974174951899 21.590930855982815 265.21939373157704 0.8102406812624979
2.0607119688431297 11.979126562028561 20.139535061563674 280.6462927826711 0.8357237743813288
2.064016351316222 11.912226940918032 18.81905522116125 297.18114499303744 0.8626884830972545
2.066176792137862 11.843323672715394 17.616528981344516 314.92430231162854 0.8912551739349982
2.0671687506887055 11.772430502516736 16.52149857937126 333.98512308081223 0.9215495065009837
