M[M_sun], R[km], Lambda[1], P_c[MeV/fm^3], rho_c[fm^-3]
0.24162668629717493 15.618656898711224 2160425.4255784233 3.5677272577965504 0.1711233750220791
0.2536436568511476 15.277297450505646 1723242.3734300751 3.7848132876584613 0.17388809429800833
0.26603843965536267 14.981296544381456 1382917.8910493986 4.011388203865717 0.17666650063370468
0.27881439000010816 14.723516851102204 1116394.4257168288 4.24770829501364 0.1794572831812757
0.2919672993636438 14.498484008984335 905956.9051378656 4.4943986175251425 0.1822670058561907
0.3055036563834035 14.301227439827166 738703.5484159063 4.751613813173182 0.18509135606205332
0.3194184683098542 14.128170740901657 605126.9173224381 5.0200377630732005 0.18793698765481365
0.3337156489549813 13.976015250786272 497704.6783520246 5.299892297346748 0.1908004801619244
0.3483965137562799 13.842064534460906 411028.48161618505 5.591908618602671 0.19368818261645168
0.36345816292416855 13.724032810197517 340675.87410710915 5.896250739820213 0.19659509771963102
0.37891152844439474 13.62002869472939 283326.3564510403 6.213784081974955 0.19952893445846848
0.39474301966973746 13.528487838810257 236427.205695117 6.544768128092666 0.20248590802826108
0.41096708186674025 13.447902697748622 197891.51232699212 6.889901146282871 0.20546965991441718
0.4275752301182278 13.377073794876779 166099.2025651589 7.249890032605859 0.20848329696845058
0.4445686381275661 13.314954051330576 138194.99671652273 7.624996795863572 0.21152241457916934
0.4619494903600184 13.260607559249966 117993.9551569756 8.016164355307527 0.214593080855457
0.47971218637073026 13.213209623733716 99829.26806921208 8.424100433899454 0.2176969880253738
0.49786921374583515 13.172007021768826 84652.85880561147 8.849250098887708 0.22083166507134958
0.5164061287939836 13.136432251153593 71945.71805608958 9.292478225607926 0.2240004011388299
0.5353241618565346 13.105861115547293 61282.29908839938 9.754673464116118 0.22720617279744906
0.5546301934383177 13.07983827034959 52305.708168139296 10.236645276435535 0.2304503307810976
0.5743109030263559 13.057862138224852 44734.79988566624 10.738870520656176 0.2337296447018675
0.5943668802222207 13.03953781933339 38331.09778820072 11.262582489151079 0.23705015998180878
0.6148027332452248 13.024534129495976 32907.19945794138 11.808724019893102 0.2404135608257627
0.635603448794367 13.012438963996734 28297.748658710763 12.378273959965004 0.24382147990020578
0.6567744617517343 13.003026339146539 24374.44603886953 12.971929207505918 0.2472719576012661
0.6783058282836542 12.995995456830862 21030.765734299413 13.591000689464279 0.250769602790175
0.7001923773348604 12.99106881520868 18174.967065588717 14.236693417044842 0.2543171380777908
0.7224246453434079 12.988007400481607 15732.4459442518 14.910196871634048 0.25791654769015504
0.7450119819596478 12.986641358283197 13636.273654994824 15.61255008096801 0.26156782310607835
0.7679311518351677 12.986757716315033 11837.358436982251 16.34500037530872 0.265272672295567
0.7911740730624053 12.988129514163552 10290.365007760935 17.109172492348637 0.2690358766751537
0.8147487755167392 12.990655160702874 8958.004150645877 17.90652120518778 0.27285986828631087
0.8386296404713204 12.994125599656384 7808.86990243141 18.738421044779113 0.27674581211733945
0.8628074002482019 12.998400378420557 6815.7672381902385 19.606197762056144 0.2806940233684722
0.8872821815886499 13.00333927877576 5956.43319486716 20.51194570255955 0.2847109425094824
0.9120407029558463 13.008845161919005 5212.067472587093 21.457458623910185 0.2887995821529462
0.9370602765124277 13.014734385128966 4566.077560471436 22.444232242919178 0.29295995869576735
0.9623367982218274 13.020930560212658 4005.1729664610225 23.474268310597694 0.2971956838097278
0.9878611704809742 13.027320665148 3517.1886374447276 24.54999991641554 0.3015129484155544
1.013602098025109 13.033780167196692 3092.397308215366 25.673382777642207 0.30591348551623565
1.039564783558961 13.040236820010767 2721.960963919194 26.846350624810952 0.31039835330975957
1.0657145584227892 13.046562381622326 2398.78133070343 28.07201269308719 0.3149763840735616
1.0920447947519194 13.052688912827104 2116.130950846746 29.352438753726734 0.31964812708771734
1.1185418892587307 13.058528966622374 1869.0019086101715 30.6903539790949 0.3244180603245093
1.1451714456176745 13.063980528712106 1652.4554335192988 32.08918936445941 0.32929445371266025
1.1719326691776935 13.068997582413187 1462.4192881971187 33.5508503743198 0.33427477538763756
1.1987872347663018 13.073461927186008 1295.6462355793276 35.07989534188292 0.3393727021886928
1.2257319749014133 13.077322337099949 1149.314184612587 36.6783674629509 0.3445851194725037
1.2527265112425936 13.080487269161964 1020.4062294239766 38.35128674789319 0.34992627025193535
1.2797676652524919 13.08293288938183 906.9334337429601 40.10090738176688 0.3553928269806791
1.3068100493908514 13.084519711639386 806.9263437941675 41.932707907303914 0.36099939328552344
1.3338467558921046 13.08523478516036 718.777099787998 43.85013022385226 0.36674767032600547
1.3608541109241081 13.085034338927974 640.7807268101988 45.857920950979285 0.3726457391608421
1.3877837327918805 13.083778961755128 571.9402933741802 47.96138251746578 0.3787033908772262
1.4146393293419683 13.081488652324925 510.9325581307725 50.16523394146008 0.38492609032210096
1.4413623992890612 13.07803913743648 456.9938745848587 52.47476363332815 0.3913211699656897
1.4679550471633946 13.073448635698638 409.117061292292 54.89635100740199 0.3979001363352722
1.4943640247182688 13.06758483864207 366.63591884809534 57.43618348677295 0.40467204635404597
1.5205751438528428 13.060444737805863 328.9139885792255 60.10088638474766 0.4116466666958992
1.5465579908824547 13.051961376035225 295.35853131656154 62.89756232223546 0.41883453221879874
1.5722741519300583 13.042085151723354 265.5339239420662 65.83383441876381 0.42624700916802355
1.597697809566495 13.030762533446389 238.98360117287788 68.91789364016473 0.43389636370754997
1.6227848939447846 13.017945322388261 215.29203086975963 72.15855073358654 0.44179583640625514
1.6475361208190833 13.003611946093658 194.14557786446173 75.56529323447874 0.4499597233813554
1.6718857245621945 12.987681523374741 175.28036746857197 79.14809746991203 0.458402418274753
1.69582294358817 12.97014095852126 158.4038407791311 82.9170669241278 0.46713683249586246
1.719288506590776 12.950900763472424 143.32271709212222 86.88497484418012 0.47618468207518383
1.7422902744249007 12.92999962470644 129.80914650745203 91.06344919139143 0.48556052073613837
1.7647703217831765 12.907359984566106 117.70945713702669 95.46646487318604 0.4952858253870331
1.7866986641741176 12.882930864126134 106.84987458163258 100.10779811319526 0.5053785579036094
1.808034790441837 12.856683900472976 97.1087408705657 105.00391144049526 0.5158641869187677
1.828748991211151 12.828555252654036 88.35529873946408 110.17133854813366 0.5267652391517548
1.8488293943896634 12.798597916645626 80.48395108668893 115.62764164402871 0.538104853901699
1.868217524180633 12.766696860126684 73.39944419069032 121.3931416867683 0.5499127979848948
1.8868876347498809 12.732857169487547 67.02495223489301 127.48919192189197 0.5622186337656832
1.9048133513912664 12.697049852146998 61.273256977624136 133.9382878493569 0.5750518751556343
1.9219575594339773 12.65924328486215 56.090309599093224 140.76596281702783 0.5884483131603773
1.938273346929147 12.61936525607517 51.40618712894591 147.99995468478102 0.6024464580521531
1.9537726457516378 12.57753214388223 47.17351122426199 155.66883791500734 0.6170823620284214
1.9683919422295215 12.533614254228853 43.34983732907421 163.80615693968727 0.6324033026603216
1.982109791009097 12.4876256869387 39.88951751095408 172.44558135855573 0.6484505290664071
1.9949038209666403 12.439559170897255 36.75455750437602 181.62655411846978 0.6652777656882878
2.006742812248274 12.389410544198451 33.91208683075184 191.39097136404686 0.682939114622244
2.0175931145530064 12.337148755775859 31.33571509499282 201.7848426105569 0.7014937770782012
2.0274332459375133 12.28277500212064 28.998457048187028 212.85818484064342 0.7210047039982719
2.036247815442205 12.226321498898043 26.876673449436836 224.6662654683796 0.7415415668316215
2.043997473164688 12.167739299037805 24.948567068924458 237.27040693316027 0.7631820863059527
2.0506615691204315 12.10704751313988 23.19358702622173 250.7373279622863 0.7860084524072863
2.0562380020722366 12.044315291908548 21.598769199249478 265.1400464802295 0.8101086428262775
2.060691264452423 11.979478093805042 20.146662595550048 280.5604793080268 0.8355830203100009
2.0640015725015393 11.912595694255513 18.825610768353187 297.0880437403612 0.8625376423859328
2.06616834897424 11.843708083397738 17.622967822912063 314.82316568183194 0.891093274082738
2.06716395272557 11.772830603276898 16.525752056765178 333.87528403114885 0.9213760244959217
