M[M_sun], R[km], Lambda[1], P_c[MeV/fm^3], rho_c[fm^-3]
0.24162668629717493 15.618656898711224 2160425.4255784233 3.5677272577965504 0.1711233750220791
0.25364445442616174 15.277269039794767 1723226.0236997304 3.7848281037168867 0.1738882789730291
0.2660408645985405 14.981222092561381 1382981.1470740435 4.011419350224753 0.1766668770190723
0.27881674542893997 14.723465588316637 1116347.4728892627 4.247756825451668 0.17945784606122303
0.2919709346314277 14.498395142823682 905860.8890168262 4.494465805567979 0.18226775401064121
0.30550781209915656 14.301171266287568 738587.9784483626 4.751701940222992 0.18509230800238427
0.3194234257980898 14.128135657981606 605073.5000066038 5.020147478346858 0.18793812599312404
0.33372289161035523 13.975901435301736 497688.8216684954 5.300026489409645 0.1908018312533329
0.348404484346359 13.841998256579071 410988.6255928785 5.592067622550885 0.19368972102339113
0.36346787969781247 13.723955465540222 340649.1742927856 5.896438127968712 0.19659685770877727
0.3789221913396334 13.619972348375997 283280.3961163122 6.214002122051557 0.19953092272142975
0.39475455311873403 13.528414502355421 236383.89536581593 6.5450165937673805 0.20248808673656762
0.4109801856446736 13.447863650488584 197858.3345974263 6.890184834254587 0.20547207592022934
0.4275901310403741 13.377010881596496 166065.3957750831 7.250211605039661 0.20848595725478347
0.4445846173489109 13.314902223027957 139797.43283118086 7.625355364014238 0.21152526901220722
0.4619667859215656 13.260550361564503 117975.1118151844 8.01656617356365 0.21459618924452423
0.4797322147972445 13.21312955147654 99804.91444925798 8.424548635660987 0.21770035787604594
0.4978898248709431 13.171963741726707 84636.62037302631 8.849743031604806 0.2208352341148353
0.5164289032866562 13.136384720145365 71933.2498783416 9.293023866599437 0.2240042424854269
0.535348617264325 13.10582504362714 61269.69428483356 9.755275513065158 0.22721029474323726
0.554656119843664 13.079808066072905 52302.52272398277 10.237307657837777 0.23045474198284074
0.5743393177115145 13.057844136302219 44724.86919758874 10.739590356486046 0.2337342662708725
0.5943963633257505 13.039515872892553 38322.9141519457 11.263370604879816 0.2370550841431439
0.6148351345859472 13.024487909412645 32898.16846721659 11.809585071451728 0.24041879745587194
0.6356394663230444 13.012425489070244 28289.7688059394 12.379212893761384 0.24382703939688583
0.6568108190287396 13.003021432385195 24368.550244082217 12.972941711799574 0.24727774466061173
0.6783433556691398 12.995971552262294 21025.562419829537 13.592101142292485 0.25077572981669355
0.7002325477242671 12.991061770567613 18170.59315233505 14.237887719010802 0.25432361722424407
0.7224625472581006 12.988027650319232 15727.418971559962 14.911491302472369 0.25792339183393664
0.74505538149642 12.986642049922846 13632.568640708248 15.613938693981533 0.26157492077470007
0.7679774305807177 12.98675991653614 11753.325987242079 16.346501975550233 0.2652801573961566
0.7912230343035219 12.98813810776958 10287.610521009266 17.110794616240476 0.26904376451434253
0.8147987294762482 12.990670328036302 8955.311330768674 17.908271888816188 0.27286817515494777
0.8386826821211185 12.994122043527922 7806.640323222616 18.74029252310059 0.27675441059189776
0.862863494995882 12.998404932629514 6813.32600429086 19.608214369261237 0.2807030706131939
0.8873452306590608 13.003364052190548 5954.60882828636 20.514117144785725 0.284720458106005
0.9121013304477817 13.008857930095786 5210.5717472222095 21.459795271959123 0.2888095870032289
0.9371222681282734 13.014748495175754 4564.5832843458575 22.446724363069517 0.2929703095440738
0.962407220639881 13.020959524281508 4003.99572062419 23.476947177716468 0.2972065634850661
0.9879278027893074 13.027337212613382 3516.089060022006 24.552878139995215 0.3015243822314796
1.0136713541938362 13.03379408553419 3091.6272396997124 25.6764492163436 0.30592531949374707
1.039636445316578 13.040256855537462 2721.012803530087 26.8496427670877 0.31041079043046654
1.0657882773007399 13.046586666511859 2397.8466307220197 28.07554594970285 0.3149894551261606
1.0921213495591713 13.052709504878496 2115.3142872838885 29.356200602047544 0.3196616674318856
1.1186202947767774 13.05854714843847 1868.3679017736404 30.694389332476916 0.32443229529504874
1.1452518759725332 13.064000662430153 1651.856504506645 32.09348505219248 0.3293092132726029
1.1720155037519433 13.069012776924337 1461.8423227999886 33.555456785051824 0.33429029946674527
1.1988731357000904 13.073466664092146 1295.2158433441455 35.08483421727953 0.3393890337106973
1.2258187853895934 13.0773335857124 1148.8747573855744 36.68362447060622 0.34460207776543245
1.2528148180660494 13.080497101795132 1020.019819680284 38.35689635771443 0.3499439700688504
1.2798589331630883 13.082937826761595 906.5706711393674 40.10690693375827 0.3554113875902196
1.3069020179537378 13.084523582547371 806.6223436789525 41.939096185918594 0.3610187060195956
1.333940101801987 13.085237212282173 718.4768212329438 43.85697885324343 0.36676802799440633
1.3609498279632677 13.085031117040714 640.5281634015508 45.865215580817235 0.3726669509535103
1.3878809023083836 13.083775289505107 571.7022354299866 47.96915430564734 0.3787255118951788
1.4147379817848185 13.081478368740225 510.72955253020336 50.173568109251924 0.384949443578698
1.4414623438480678 13.078028928453326 456.79822279845285 52.48364695031009 0.3913455602258309
1.4680568719554625 13.07342525162639 408.9397493224992 54.90582280841387 0.39792563272013
1.4944661359708633 13.067560014839803 366.4642434596044 57.44628629285275 0.40469872332825335
1.520678065141726 13.060413740160422 328.7784149943789 60.111666188403404 0.411674604506369
1.5466622317307401 13.051923954788482 295.2400155024936 62.90906890118168 0.4188638173770305
1.5723789417890777 13.0420417518243 265.420805787725 65.84612168129371 0.4262777349805686
1.5978026858893708 13.030710801334894 238.87704453846652 68.93102000571227 0.4339286308598453
1.6228896305763987 13.01788725457022 215.19126466548954 72.17257955247184 0.4418297536056644
1.6476417948026145 13.003546842217101 194.0606114147341 75.58029325132632 0.44999540806596067
1.6719910556039292 12.987613335757008 175.19581646537046 79.16406501007347 0.4584396703632691
1.6959281007735245 12.97005833626879 158.33841389900584 82.93415777763117 0.4671761072274366
1.719408464489889 12.950843731918111 143.25341946838637 86.90327699105235 0.47622612743302184
1.7423904195463726 12.929902208405597 129.76228360798373 91.0829702497319 0.48560394790550265
1.764872316066167 12.907250994441169 117.65724798765787 95.48739289829012 0.4953317461471124
1.7867989056879225 12.882812686307238 106.8068097801121 100.1301513277496 0.5054267951708509
1.808137471838889 12.856552701206365 97.06643502790409 105.02780575827843 0.5159149265526647
1.82884677803847 12.828415195672152 88.31532092454484 110.19690040309122 0.5268186821908193
1.848925821787057 12.798445743269863 80.44909893777766 115.6551134956083 0.5381616012672553
1.8683015999144053 12.766504997644972 73.37213929221875 121.4225735185536 0.5499727104088467
1.8869801259119052 12.73268093659377 66.99551322449598 127.52071913729074 0.5622818619215229
1.904902842735904 12.696862915801807 61.24469449208041 133.9720349422556 0.5751185023953956
1.922043454158482 12.659043264264598 56.063633309301615 140.80220973135658 0.5885189359334945
1.9383563463681799 12.619153195916697 51.37962149571088 148.03891848601398 0.6025214068623947
1.953852355291363 12.577305565290557 47.15543611004133 155.710628676425 0.617161559704622
1.9684677797680588 12.53337059756281 43.330353947918475 163.8510279134479 0.6324871220122102
1.9821813890596462 12.487368144977076 39.87153803831458 172.49394569847607 0.6485398285320225
1.9949709186770057 12.439288472475715 36.738515870388746 181.6785871502457 0.6653725445771465
2.00680487678814 12.389126702244681 33.8970139475978 191.4470109850701 0.6830398577210517
2.0176522035555426 12.336848735556067 31.32207569580045 201.84526156117832 0.7016010147557161
2.0274873785001537 12.282460629071501 28.98679531950975 212.92324238126952 0.7211185182733282
2.036296144252922 12.225991650400063 26.865124487070595 224.73656376778527 0.7416630791157094
2.044039051739434 12.167393135047249 24.937623342518147 237.34628846913105 0.7633114712953796
2.050697494769724 12.106683229092392 23.183390753617925 250.81935505432833 0.786146494937632
2.0562688433623006 12.04393361582372 21.590357901733803 265.2289679895885 0.8102566133840816
2.060713948093426 11.979080986482092 20.13880509374508 280.65664732010214 0.8357407582327132
2.0640191571849678 11.912182988298474 18.818988038863168 297.19237895470906 0.8627066841280764
2.0661780008394293 11.843277162713955 17.615691728889786 314.9365059175573 0.8912747095078256
2.067168953525512 11.77238469765173 16.520812861744197 333.9983768290219 0.9215704397375788
