M[M_sun], R[km], Lambda[1], P_c[MeV/fm^3], rho_c[fm^-3]
0.24162668629717493 15.618656898711224 2160425.4255784233 3.5677272577965504 0.1711233750220791
0.2536413649129997 15.277379644139087 1723238.3305172129 3.7847885445121894 0.17388778588662654
0.2660363740773946 14.981332135438098 1383201.6682295152 4.011336189140843 0.17666587206645154
0.2788089684681151 14.723634461877872 1116493.3898699158 4.247627249286877 0.1794563431729786
0.2919621098447578 14.498517376495368 906043.641587172 4.494286414421833 0.18226575644859436
0.30549492742183676 14.301348954288944 738760.2204418009 4.751466643259182 0.1850897663461041
0.3194082422102855 14.128311205531618 605207.1637538424 5.019854542604988 0.18793508667173933
0.3337053524120401 13.976074604059022 497769.21975450934 5.299668203087778 0.1907982239045762
0.34838363260662286 13.842167665472312 411092.88384184655 5.591643091402795 0.19368561356774885
0.36344297785439506 13.72413265088184 340737.93199496897 5.895937814792635 0.19659215866155
0.37889461393189305 13.620127411192009 283377.84621466656 6.213419972820234 0.1995256142213934
0.39472334428343375 13.528590226544653 236469.3998549238 6.544353213205243 0.20248226978522094
0.4109450196033009 13.448027246597919 197930.6968207288 6.889427416498259 0.20546562543277844
0.4275490468005998 13.377197786322713 166128.68628756658 7.249353043161538 0.20847885459239632
0.4445424828755688 13.315053482703352 139853.84431603376 7.624398031269966 0.21151764802799988
0.46191978271599043 13.260698682336203 116709.54595458113 8.015493372675248 0.21458789026233016
0.4796804209756179 13.213274228481774 99847.10420993369 8.423352001808746 0.21769136086234053
0.4978339374248072 13.172090324741635 84680.86659828188 8.848426977191705 0.22082570531857768
0.5163704043430082 13.136474168222149 71969.5949662542 9.291567094954361 0.22399398672222645
0.5352829753993682 13.105922913814588 61303.68201455804 9.753668147771092 0.22719928986960608
0.5545853645557017 13.079884848213409 52320.98364132995 10.235539222383993 0.23044296489258745
0.5742634678691702 13.057907046037958 44752.01345150843 10.737668534833618 0.23372192758055807
0.594318051609136 13.039595979970642 38347.37273811049 11.261266497347053 0.23704193764120265
0.614750251251021 13.024571764476057 32918.96858740764 11.807286249109668 0.24040481678053183
0.6355466409246121 13.012465423822134 28308.72610508435 12.376706152320004 0.24381219679480376
0.6567148402201891 13.003061576906546 24384.766731318967 12.970238562537492 0.2472622945679082
0.6782429398252154 12.996005381010656 21039.36674732711 13.589163202379543 0.2507593721543795
0.7001258196979898 12.991084289681785 18183.37917476906 14.234699237162141 0.2543063195546012
0.7223546423249486 12.988012665988034 15739.396560208947 14.908035515414769 0.25790511978509434
0.7449385730036922 12.986641784563625 13545.632042715008 15.610231477351245 0.26155597194238
0.7678537677215824 12.986752579555944 11842.711175491017 16.34249312945053 0.26526017430380294
0.7910936776660563 12.988125282418572 10295.769074023105 17.106464023025723 0.26902270630600106
0.8146633359369828 12.990651459988596 8962.21333152009 17.903598097145785 0.2728459983476639
0.8385404224774757 12.994104373071176 7812.161310600891 18.735296262311675 0.27673145535870747
0.862716205715779 12.99838118233263 6819.330446362272 19.602830680883574 0.2806789173987579
0.8871861706523068 13.00332092110374 5959.602960367508 20.508320119827918 0.28469505464379696
0.9119419178588046 13.008813956280102 5214.97068024863 21.453557227351734 0.2887828775026766
0.9369558195754515 13.014701803551615 4568.491898624387 22.440071282907358 0.29294267643676963
0.9622298485232574 13.02089856209709 4007.65078565385 23.469795577722607 0.2971775187125436
0.9877489496035182 13.02729801710377 3519.4054102619943 24.545194361769994 0.3014938582282516
1.0134867164400942 13.033752694542482 3094.1814291386986 25.668263000974953 0.3058937273120634
1.039445173023251 13.04020583970938 2723.5437303138815 26.840854045628507 0.3103775882233748
1.065593944141946 13.04654541810947 2400.082242728028 28.06611358694735 0.31495456071482236
1.0919180274346276 13.052666828711573 2117.4551982559974 29.346158025660458 0.31962552032306546
1.118411221538067 13.058501200605411 1870.1122257444722 30.68361665612247 0.32439429398115643
1.1450378618474069 13.063964305823681 1653.4327092031608 32.0820174330119 0.3292698116626135
1.1717949694457295 13.068978160714344 1463.375347240285 33.54315972321423 0.3342488571004725
1.1986439695311844 13.073442342557735 1296.3511646026295 35.071649680294605 0.3393454360212242
1.2255883499235405 13.077303698458113 1150.0151219187533 36.66959071578464 0.3445568070447566
1.2525797018074913 13.08047479485761 1021.055783452323 38.34187795283096 0.34989646525179113
1.2796164051615941 13.082918410759781 907.5151937419866 40.09089106200051 0.3553618398335582
1.3066570368703168 13.084516741889585 807.4781276015343 41.92204266724325 0.3609671506490433
1.3336888906242934 13.085232870167907 719.2067582193656 43.8386965120903 0.3667136834215687
1.3606939176616024 13.08503682823775 641.2215542456443 45.84574272099736 0.37261032652234216
1.3876203319909872 13.083790310013693 572.3202829213293 47.9484077627294 0.37866646053690456
1.4144739355282099 13.081511845037735 511.2791909510662 50.151320419375814 0.384887103099919
1.4412025268332667 13.0780850564644 457.29145685549855 52.45993342726905 0.3912804517762495
1.4677861805820231 13.073481665314986 409.4034025865143 54.880538464436306 0.39785757181343245
1.4941930359371596 13.067624967979137 366.876933244519 57.419317636663045 0.40462751121748947
1.5204031565438356 13.060495346412523 329.1600863270328 60.082890463943315 0.41160002701295906
1.5463844781039568 13.052021851762428 295.5795107677308 62.87835325037722 0.4187856436037306
1.5720993666837648 13.042155751952146 265.7210793607616 65.81332222240921 0.42619571589594246
1.5975225753094278 13.030845466946973 239.1567131034316 68.8959808178048 0.4338424977403295
1.6226091102989262 13.018044326580815 215.45009663518675 72.13513155529343 0.44173921631965607
1.6473612435313982 13.003721190700254 194.28452685266663 75.54025296869999 0.4499001531824799
1.671709984003377 12.987805669958066 175.40782150036063 79.12144224573282 0.4583402319416985
1.6956485480270116 12.970277906060975 158.5229271558431 82.88853674169283 0.4670712702197203
1.7191145274811725 12.95105255578462 143.43362754211213 86.85442287404607 0.4761154968946855
1.7421180600550825 12.930170735193073 129.91688217828377 91.03086271516344 0.48548802782118183
1.7646029228360334 12.907551875664865 117.79386685608586 95.43153005488692 0.49520917059511893
1.7865288238795218 12.883130491705222 106.92967624931592 100.07048453659502 0.5052980368241098
1.8078695993103036 12.856898246220576 97.18340454498389 104.9640256624688 0.5157794893855246
1.828584072284185 12.828788887223276 88.41828897573593 110.12854380505777 0.5266755615672316
1.8486679222344908 12.798850205041017 80.5474816506578 115.58178486216718 0.538010129614332
1.8680593170346955 12.766971937289824 73.45607248253408 121.34401368170928 0.54981279137
1.8867358155653635 12.733149627625405 67.07425907694049 127.43651694229601 0.5621129155019351
1.9046650484165861 12.697361122479554 61.31990205574342 133.881957724208 0.5749406619982417
1.9218132551743154 12.659578003786445 56.13171269964901 140.7054606133887 0.588330431859863
1.9381411928255161 12.619749144436827 51.445246273729104 147.93491818824398 0.6023213571152968
1.9536357299513794 12.577905736596009 47.210881418938776 155.5990834347986 0.6169501703059039
1.9682651571521819 12.534015951781221 43.383613198655716 163.73112509450553 0.6322629350642506
1.9819921642327771 12.48805537820256 39.9182991739108 172.36485633952546 0.6483014791450588
1.9947913031730449 12.440009966853683 36.78200471510986 181.53970657382487 0.6651195716815077
2.0066320782566494 12.38987122701766 33.93960084554534 191.29743748339615 0.6827709676432281
2.0174960242113227 12.337650475811733 31.35890352992701 201.68400045584679 0.701314792200849
2.027345782955372 12.283305228358214 29.019882799019776 212.74960180213466 0.7208147444687176
2.0361689110619077 12.226874479889128 26.896274710530477 224.5489368461241 0.7413387615148546
2.043926439088116 12.168321871366707 24.965855367495095 237.14376128440801 0.7629661438409626
2.050600646350322 12.107655073954298 23.20972014085066 250.6001757333988 0.7857772447511212
2.0561826744978324 12.044926664323784 21.61405686143651 264.9916409825291 0.8098616874559262
2.0606520190825783 11.98014049498974 20.16082371611124 280.3999093887194 0.8353195307572938
2.063980025147273 11.913297773580846 18.839077080817418 296.9139180165601 0.8622555275133337
2.066151369667338 11.844426059637117 17.634543946173988 314.6340140749719 0.8907904795634128
2.067162838530327 11.773575387818472 16.538350170531217 333.6698593806781 0.9210515726697084
