M[M_sun], R[km], Lambda[1], P_c[MeV/fm^3], rho_c[fm^-3]
0.24162668629717493 15.618656898711224 2160425.4255784233 3.5677272577965504 0.1711233750220791
0.2536432693466203 15.277291806462225 1723259.16378984 3.7848076975620155 0.17388802462015288
0.2660379918522879 14.98130788253352 1383239.33097832 4.011376452394461 0.1766663586241098
0.27881279022062705 14.72357613410186 1116443.0199552176 4.2476899846249205 0.17945707080835974
0.29196626728959285 14.498478643181674 905938.2557998255 4.494373267769361 0.1822667235807767
0.3055007508043034 14.30129285137283 738669.6810436511 4.751580563342721 0.18509099690042607
0.31941659848465964 14.128192176339773 605151.0338289717 5.019996368272595 0.18793655816778046
0.33371339405991507 13.976000395416802 497708.1930306664 5.299841667806025 0.19079997040645894
0.34839335346146283 13.842089138295115 411038.137266886 5.591848627944665 0.19368760219033263
0.36345532958057375 13.724043931066433 340686.6192166352 5.8961800403227596 0.19659443369498933
0.3789080300785418 13.620051931139058 283333.7187232723 6.213701818124514 0.1995281843112046
0.394737965753529 13.528528801099117 236424.65049601602 6.544674385332248 0.20248508603089246
0.41096256611876436 13.447912502214876 197886.9637905293 6.8897941149853485 0.20546874839097354
0.42756858490515487 13.377107680945635 166101.11688055718 7.249768708466391 0.20848229328493748
0.4445631997474196 13.31497273346393 139822.16291542674 7.62486151423893 0.2115213376504514
0.4619424574658907 13.260615302025483 118001.82127591471 8.016012756660128 0.21459190811735715
0.47970534283577226 13.213202977372251 99827.00019130296 8.423931336164438 0.21769571664680076
0.4978616652698452 13.172018361616782 84655.30569690271 8.849064125578632 0.22083031854513158
0.5163982882860008 13.136435501456008 71950.32558704756 9.292272367227183 0.2239989518829957
0.5353156191688607 13.105888154611305 61288.9410020527 9.75444632498584 0.22720461768273145
0.5546194814026738 13.07985350922457 52312.23406045005 10.236395376074926 0.2304486665421824
0.5743003980842701 13.057879840538511 44739.454870760084 10.738598944893578 0.23372790110134797
0.5943557387921149 13.039556403069604 38336.0163917846 11.26228515407019 0.23704830222684273
0.6147900636288768 13.024525128600578 32908.86359970764 11.808399169104446 0.2404115851909661
0.6355905940618423 13.012443723570104 28301.160817678818 12.377919727507757 0.24381938246354132
0.6567614883668195 13.003034465511336 24376.305126560776 12.971547220063384 0.2472697743176859
0.6782923344312755 12.995985076554863 20871.44268319375 13.590585523003512 0.2507672912545512
0.7001776341148109 12.991057739041164 18040.726147041107 14.236242845672091 0.2543146937061035
0.7224096238573083 12.988008248493927 15733.941617519244 14.909708526444446 0.2579139656250545
0.7449953008235463 12.986655582791707 13637.830834476044 15.612026205395688 0.26156514540165304
0.7679137307870388 12.98674620170757 11838.809298776734 16.344433875377185 0.2652698484354914
0.7911565470652643 12.988134680591587 10291.890171807281 17.108560525122755 0.26903290088576376
0.8147286169532494 12.99066037520583 8958.807077342783 17.905860739258255 0.27285673442270086
0.8386089296359157 12.994124292369454 7809.756960373544 18.737715009487545 0.27674256825048715
0.8627863131571879 12.998389284834415 6816.631179256568 19.6054369777899 0.2806906102092711
0.8872606518678744 13.003329586289405 5956.795093098922 20.511126507965077 0.28470735267175135
0.9120193865511631 13.008827981419683 5212.783149669422 21.4565771069251 0.288795807752492
0.9370375387170021 13.014729737147865 4566.654010538282 22.443292075473828 0.29295605377544953
0.9623124155914005 13.020925296805872 4005.645403578739 23.47325769505735 0.2971915793997353
0.987836233827423 13.027317202611886 3517.6591542976957 24.548914096295906 0.30150863496768215
1.0135761038736513 13.033770804721632 3093.1247128242 25.672225955807143 0.3059090211179828
1.0395378555137509 13.040229189059959 2722.403139970713 26.845108659909947 0.31039366139000363
1.0656870003423127 13.046556509562219 2399.1157280348393 28.07067977202575 0.3149714530189568
1.0920153850399494 13.052683510270596 2116.5575930798673 29.35101960035495 0.31964301900694353
1.1185122150929803 13.058524624151522 1869.250664794513 30.688831651494542 0.32441269021525465
1.1451403555749395 13.063977083762017 1652.643828969596 32.087568830894604 0.32928888571894777
1.171901895857771 13.06899082539926 1462.6300706790942 33.54911262770494 0.3342689190023763
1.198755866216667 13.073447820600602 1295.9034343207775 35.078032181216955 0.33936654122147447
1.2256992930505521 13.07732167485417 1149.4595508480577 36.676384294620945 0.34457872207845913
1.252693013849395 13.080489387231289 1020.5151290169508 38.34916075653927 0.34991953557738975
1.2797324001907708 13.08292757047243 907.0506446927403 40.09864410903242 0.35538582517094924
1.3067753601531742 13.084523516235066 807.0595968152038 41.93029799859137 0.36099210776638585
1.3338099386828526 13.085237867709658 718.8279442016882 43.84754666266748 0.3667399906460449
1.360817955885959 13.085036776458333 640.8769969558299 45.85516915031363 0.37263773729831023
1.387746698290512 13.083780676386015 572.0380690272708 47.95845072469561 0.378695046048599
1.4146024100519925 13.081492856922875 511.0279045081716 50.16209001180173 0.3849172806847301
1.441324476142375 13.078047718422244 457.06852624401876 52.471412557250794 0.391311969166321
1.467917163219366 13.073454295175273 409.18454733291117 54.89277794820423 0.39789051830251254
1.4943256709093033 13.06759406561673 366.6788434131024 57.43237240603449 0.40466198300117556
1.5205363958362454 13.06045406517498 328.9676904008015 60.096819934743294 0.4116361277553828
1.5465186991256992 13.051974347489429 295.40953423965914 62.8932217276148 0.4188234850603966
1.572235957632784 13.042100120396023 265.575230541979 65.82919934630146 0.42623541859874386
1.597658194303614 13.03078060285642 239.01918540634895 68.91294205523988 0.43388419175147463
1.6227452785793905 13.017966205039812 215.3169124132773 72.15325874188673 0.4417830420620397
1.647496170231491 13.003635995946619 194.17683597321613 75.55963490723576 0.4499462623549372
1.6718458681065216 12.98771043470182 175.30856036622046 79.14207419267721 0.4583883660378749
1.6957835844535076 12.970170119998146 158.43009313433382 82.91061993750894 0.467122017339389
1.7192480698364958 12.9509323967961 143.34295570980595 86.87807096488544 0.4761690481853546
1.7422513308605927 12.930038871364504 129.8321665415263 91.05608554557962 0.4855441393346677
1.7647317106517446 12.907399664435678 117.72980089712667 95.45857053333256 0.49526850344267415
1.786659549562044 12.882976400266463 106.86721199124399 100.09936620575611 0.5053603622131637
1.8079992448233417 12.856730032735836 97.12514326856787 104.99489824701041 0.5158450473835102
1.8287116405099997 12.828608850387914 88.37047995383217 110.16169638264651 0.5267450799486121
1.8487922822482237 12.798653928270614 80.4957747872139 115.61727906224738 0.5380834483835909
1.868181445759013 12.7667603906979 73.41192987773516 121.38203983641888 0.5498901986859577
1.8868543597730918 12.732923544934964 67.03732738683104 127.47728848103664 0.5621947436548658
1.90477930406817 12.697120613327284 61.283018349119416 133.92555837178074 0.5750267432144311
1.9219250258183873 12.659320621193809 56.09908781087827 140.7522904694906 0.5884216742280437
1.9382416430956342 12.619444250454347 51.41431680208744 147.9852576022918 0.6024181874827598
1.9537528517345681 12.577652761876305 47.18304188376252 155.6530745825621 0.6170524889355059
1.968362884371117 12.533708343343328 43.358040946500985 163.7892318452471 0.63237168644325
1.9820837865922876 12.487721423777133 39.89614974054674 172.4273386883175 0.6484168459704245
1.9948784570881037 12.439662082315772 36.7622264038807 181.60692774928535 0.6652420159846834
2.0067126245224465 12.389503574134462 33.919713120187915 191.36983386391185 0.6829011154847451
2.017571841063334 12.337262138411246 31.34215157674498 201.76205340831885 0.701453328492198
2.027413537165645 12.282894103356952 29.00326246217415 212.83364615946516 0.7209617750436531
2.0362300078630997 12.22644607392641 26.881461446758863 224.63975021911176 0.7414957345920234
2.043980966740215 12.167870396129825 24.952489102838587 237.2417859576003 0.7631332849134554
2.050647750296776 12.107184925073877 23.197349923088037 250.7063323847094 0.7859562008696981
2.0562208494866194 12.04443590592019 21.60190459329241 265.1065075294375 0.8100528320635876
2.060223306205984 11.981501690244606 20.213037488992946 280.84620130647556 1.1661998206563937
