M[M_sun], R[km], Lambda[1], P_c[MeV/fm^3], rho_c[fm^-3]
0.24162668629717493 15.618656898711224 2160425.4255784233 3.5677272577965504 0.1711233750220791
0.2536444157535897 15.277262512387013 1723199.08545148 3.784826436835447 0.17388825819615608
0.2660407404540704 14.981249644545038 1382876.2805434272 4.011415846093328 0.17666683467371203
0.27881655259689714 14.723466993658109 1116467.933784201 4.247751365505699 0.17945778273407775
0.29197121977876084 14.498381926341665 905868.1936164664 4.494458246519459 0.18226766983888157
0.3055064433526148 14.301208495969513 738606.4644935891 4.751692025390163 0.18509220090326697
0.3194235759058029 14.128112560375806 605082.9160869884 5.020135134679175 0.18793799792280763
0.333722996533711 13.975887645852408 497656.25819014804 5.300011391912528 0.1908016792465882
0.34840358819902545 13.8420058180926 410993.33534735686 5.592049733513841 0.19368954794203663
0.36346676750539436 13.723963116146106 340642.0945473001 5.896417045466799 0.19659665969745777
0.37892009099411145 13.619984199035486 283289.6338081443 6.213977590934752 0.19953069902718187
0.3947514675138281 13.528462649128578 233284.17067390122 6.544988639489578 0.2024878416153157
0.41097872828613075 13.447873019686577 197859.38667201131 6.89015291713094 0.20547180410061086
0.42758598302159107 13.377078324129348 166070.0916746928 7.2501754255382 0.2084856579510399
0.444583152973636 13.314903742465887 139798.640286375 7.625315022116926 0.21152494786476486
0.46196470400203976 13.26055119594151 117974.19129976575 8.016520965573589 0.21459583952417202
0.47972978718065584 13.213137794454969 99802.3953603068 8.424498209022897 0.21769997873822264
0.4979026907328191 13.171893348675102 84500.08414350454 8.849687572237565 0.22083483256532052
0.5164275463629862 13.136400069165342 71935.11249336896 9.292962476948349 0.22400381029845604
0.5353461802202504 13.105832533744541 61272.663037696846 9.755207776856473 0.22720983098529776
0.5546529828487813 13.079813928038206 52301.68653103792 10.237233133501572 0.23045424567983364
0.5743357151924693 13.05783136081559 44726.84131982292 10.73950936782434 0.23373374629857718
0.5943927038346654 13.039524150949603 38322.441135294925 11.263281933870127 0.23705453012507074
0.6148306385275006 13.024496128216022 32899.64929956244 11.809488194222093 0.24041820828067967
0.6356358641525526 13.012425924963868 28289.63525614652 12.379107253754784 0.24382641389456794
0.6568068248617928 13.003008939563403 24368.48553169835 12.972827794134675 0.24727709355395328
0.6783392663105712 12.995977850375601 21026.40886707864 13.591977329214044 0.2507750404586443
0.7002285215132088 12.991059776515304 18170.86074645098 14.237753346593752 0.2543228882473235
0.7224584857339714 12.988020784864291 15727.944811547091 14.911345664130657 0.25792262178912523
0.7450508383501424 12.986643698053456 13632.913040755631 15.613782458797433 0.26157412220407383
0.7679723136999153 12.98675326598197 11835.458696400246 16.34633302763598 0.26527931523317766
0.791218684106349 12.988135196065322 10288.071722728537 17.110612107603643 0.2690428770366442
0.814792382066121 12.990661113188729 8955.29824609866 17.908074915240334 0.27286724052941463
0.8386759115888239 12.994132576704661 7806.797119872935 18.740081958270725 0.2767534431554537
0.8628560762337065 12.998415754793243 6813.501488966104 19.607987475136397 0.2807020526823504
0.8873391170642493 13.00336617807417 5954.956394319913 20.5138728292283 0.28471938747735065
0.9120949844313814 13.008852676976687 5210.582499184013 21.4595323680402 0.28880846132478166
0.9371157525545333 13.014744050450414 4564.85550305829 22.446443965997425 0.29296914493427023
0.9623999120175019 13.020948902776114 4004.1421013830236 23.47664576845568 0.2972053393725006
0.9879212820349481 13.027333946174092 3516.2485707634187 24.55255429970751 0.30152309576775077
1.0136637414599798 13.03379814239761 3091.744761156062 25.676104198632302 0.3059239880039525
1.0396282817708409 13.040253436457709 2721.087669233763 26.849272353728658 0.31040939107549625
1.0657799095216134 13.046578414338027 2397.8520023595433 28.07514840664128 0.31498798444151094
1.0921111705635003 13.052704311103142 2115.5461203244768 29.355777338323353 0.3196601439423638
1.1186118557816935 13.05853831048736 1868.4223330693592 30.693935294364042 0.32443069364618465
1.145242021316655 13.06399651604511 1651.898187812775 32.09300172166288 0.32930755259650935
1.17200632227055 13.069010821219365 1461.914747731546 33.55493849225486 0.3342885527665813
1.1988633430361761 13.073464431633578 1295.2919649989974 35.084278515759394 0.3393871961564212
1.2258090059166613 13.07733509492682 1148.9336612013058 36.68303297306695 0.3446001696859326
1.2528052334426263 13.080493596592824 1020.063085863541 38.35626666351934 0.34994198722219666
1.2798490023146543 13.082932896271224 906.600254700647 40.10623188518795 0.3554092992154622
1.306892823458393 13.084525250104646 806.6629971123476 41.938377397774836 0.3610165330141411
1.3339256535791522 13.085246105465469 718.4481800739115 43.85620826604674 0.3667657374107394
1.360938743815122 13.08503020652764 640.5322245077331 45.864394809318526 0.3726645642614854
1.3878703279281195 13.08377408257254 571.7303760346638 47.9682798438018 0.37872302289448395
1.4147268938579685 13.08147971970327 510.76229800217214 50.17263036747116 0.384946815922887
1.4414507896538298 13.078027992306918 456.8249371960541 52.482647417345596 0.391342815882803
1.4680449675805478 13.073429834899713 408.95999459604906 54.904757058065776 0.39792276391186393
1.4944546405675947 13.067563820214648 366.476918913982 57.44514954037461 0.4046957216754155
1.5206668662155969 13.060415013998078 328.7948440372103 60.11045325839856 0.4116714609789291
1.5466505068915124 13.05192646088724 295.2510082825257 62.90777419229602 0.41886052223998255
1.5723658875336775 13.042047068186754 265.4227049036599 65.84473912734876 0.4262742777342338
1.5977910770218366 13.03071677210814 238.88802247883723 68.92954303287677 0.43392500017416563
1.6228777159262509 13.017892698594443 215.19847767383513 72.1710010320248 0.44182593724783614
1.6476296391088046 13.00355350133273 194.069971613787 75.5786054475034 0.4499913928206641
1.6719792440448922 12.987619357532113 175.2015533951819 79.16226833646293 0.458435478744291
1.6959162405158517 12.970065556084952 158.34671283140284 82.932234703193 0.4671716880079786
1.7193963278016788 12.950854293491943 143.25914569348998 86.90121761536759 0.476221463960328
1.7423793842187751 12.929915851221807 129.7588316279554 91.08077371563613 0.48559906142565473
1.7648602926265098 12.907264088143112 117.66206893487015 95.48503804367161 0.4953265790702659
1.7867883666551316 12.882826778269791 106.81006334541871 100.12763610210447 0.5054213674230287
1.8081258906928899 12.85656702452744 97.07238420619586 105.0251171176857 0.5159092172187304
1.8288356062584508 12.828430112266638 88.31731413915837 110.19402411971984 0.5268126686474034
1.8489157163174987 12.798462704551254 80.45544784400201 115.6520222847 0.5381552158922137
1.8682906991684447 12.7665236998382 73.37722249297332 121.41926175544853 0.5499659688727905
1.8869706036510463 12.732700190058372 67.00016549566304 127.51718081887877 0.5622747802573633
1.9048932970813304 12.696883894173855 61.24756577503101 133.96823759051418 0.5751110052439908
1.9220342027645119 12.659065786471382 56.0670111932522 140.79813107705908 0.5885109891638891
1.9383470258416788 12.619176940473398 51.384947956371946 148.03453410170593 0.6025129732810415
1.9538435071127604 12.577330540995828 47.15564524079854 155.70592617530252 0.6171526479942679
1.9684591678703083 12.533397742023036 43.3327520468422 163.8459787956835 0.6324776902182653
1.9821736290440193 12.487396531070942 39.87458661261108 172.4885034689033 0.6485297800501575
1.994963075538386 12.439320836054947 36.740935907069236 181.6727320786083 0.6653618794829738
2.0067988977431295 12.38915801637817 33.89821389957191 191.44070504532 0.6830285214575346
2.017645223598326 12.336882374726343 31.323930260041077 201.83846280589512 0.7015889476357303
2.027480503786481 12.282496764959953 28.988959875393544 212.91592163426142 0.7211057110644239
2.0362902180378306 12.22602881372986 26.86555338914767 224.7286532610655 0.7416494056165217
2.0440352174449052 12.167431538493123 24.93799533264944 237.33774966095316 0.7632969118430479
2.0506933399511094 12.106724443219619 23.184669659692343 250.8101262471166 0.7861309663702596
2.056265708730066 12.043976297445571 21.590689620510243 265.2189617332253 0.810239962392142
2.0607118460909835 11.979125321733058 20.139035889993536 280.6458255777129 0.8357230080564564
2.064016664343838 11.912228845403458 18.819173415554904 297.1806381080475 0.8626876618527467
2.066177213942905 11.84332546062767 17.616207775943572 314.92375167586965 0.89125429247545
2.0671692918138795 11.772432351524143 16.521485758484562 333.9845250622025 0.921548561978359
