M[M_sun], R[km], Lambda[1], P_c[MeV/fm^3], rho_c[fm^-3]
0.24162668629717493 15.618656898711224 2160425.4255784233 3.5677272577965504 0.1711233750220791
0.2536441818174092 15.277289710182925 1723251.4671523306 3.784823220487579 0.17388821810593152
0.26604054661027704 14.981233751928519 1382938.5089621563 4.011409084667472 0.17666675296587087
0.2788159963770131 14.72350012189687 1116390.6140814032 4.24774083023095 0.179457660540767
0.29197036980255525 14.498393002819297 905842.8774982766 4.4944436609201555 0.1822675074248482
0.3055060767543362 14.301209703395969 738662.7871463356 4.75167289419238 0.18509199424981848
0.31942194838409294 14.128141341027426 605104.5033452683 5.020111316934907 0.18793775080451802
0.3337199926796958 13.9759301686242 497679.8051171679 5.299982260536922 0.19080138594197354
0.348401859091241 13.842020406857479 411002.4255530519 5.592015215749779 0.19368921397317382
0.36346524439635314 13.7239693032413 340640.03599315 5.896376365791342 0.19659627762533713
0.37891860285260304 13.620023408860607 283309.7959391446 6.213930257034358 0.199530267399004
0.3947507745515389 13.528438042612752 236403.2616523587 6.544934700485796 0.20248736864312053
0.4109753940253002 13.447868003119334 197856.26763405083 6.890091331692314 0.2054712796131722
0.42758417976614355 13.377042495104837 166072.4918120828 7.250105615717745 0.208485080432286
0.4445791431566188 13.314923302058022 139800.05027874745 7.625237180840331 0.2115243281981514
0.4619609128667151 13.260565131983531 117979.33537436914 8.016433735048842 0.21459516472554024
0.47972589263372545 13.213145567183249 99809.87365357626 8.424400908996295 0.21769924717804556
0.49788300972917 13.171981493968783 84641.9301175507 8.849580561451717 0.2208340577615088
0.5164217483362318 13.136396724834878 71937.01428668741 9.292844023564898 0.22400297637925184
0.5353408349948757 13.105838256576344 61276.96472607426 9.755077077679312 0.2272089361495478
0.5546468317384885 13.079803884564159 51812.682687497654 10.237089336526749 0.23045328804807672
0.5743292496490798 13.05785365337422 44728.804398613065 10.739353097840551 0.23373274299687488
0.5943874909501566 13.039514140406396 38327.568980158765 11.263110840703092 0.23705346113186695
0.6148241904988802 13.024513564608394 32900.77892001441 11.809301267069605 0.24041707145171148
0.6356287715559008 13.012429325209006 28290.792138158133 12.378903418750486 0.24382520697238233
0.6567989236546393 13.003030939777101 24370.12657977671 12.972607987325498 0.24727583722836805
0.6783307514043382 12.99599849309194 21026.869976870177 13.591738429154004 0.25077371032711515
0.7002192931958447 12.991063566308219 18171.79914609011 14.237494072255007 0.25432148167138197
0.7224533219716346 12.988007939896496 15729.321118736667 14.91106465217325 0.25792113597297817
0.7450408916105459 12.986646850012134 13633.651845689315 15.613481000220814 0.26157258134779554
0.7679620099931921 12.986754938753137 11836.138145905426 16.346007039868518 0.2652776902659174
0.7912072389403807 12.988137562032515 10288.575593307067 17.110259954469562 0.2690411646352022
0.8147804340744613 12.99067302827224 8955.79683467514 17.907694852082777 0.27286543715690786
0.8386627396745397 12.994142668208458 7807.086700689711 18.739675670861345 0.27675157647502635
0.862845573843055 12.998401365538525 6814.581607647866 19.607549680491026 0.28070008857387924
0.8873256892707613 13.003359926578328 5955.28229737227 20.513401420107957 0.28471732168949215
0.9120822161052863 13.008854654953979 5211.0693850234675 21.45902509290119 0.28880628931953667
0.9371027145035427 13.01473971831485 4565.061608736714 22.445902938027192 0.2929668978120965
0.9623859807441522 13.020959249831847 4004.4759878725017 23.476064197789906 0.2972029774412254
0.9879067640271608 13.027333203154168 3516.5493821039504 24.55192944876054 0.3015206135315691
1.0136492075794128 13.033795137420176 3091.77981368355 25.6754384862022 0.3059214188914758
1.039613194009195 13.040246359049043 2721.3735786153043 26.848557640916873 0.3104066910191913
1.065762501953181 13.046577866940035 2398.202763681439 28.074381347675743 0.3149851467568546
1.0920957581781363 13.052708917859759 2115.7495288056116 29.35496065190167 0.31965720437269374
1.1185936526339935 13.058540376726315 1868.4977424191854 30.693059229553512 0.3244276032707979
1.1452251359607888 13.063993410211395 1652.061733058798 32.09206913787358 0.32930434833046507
1.1719897203822818 13.069006612052215 1462.0259541914666 33.55393844979524 0.3342851825203837
1.1988443910417734 13.073468674281346 1295.4530811869797 35.083206294338794 0.3393836506108632
1.2257895367026443 13.077332173287793 1148.9983354636954 36.6818916843255 0.3445964880651204
1.2527863504317127 13.080498048995839 1020.129884768117 38.355051675564 0.349938161341602
1.2798288245839942 13.08293258769231 906.6895451528088 40.104929387626285 0.35540526972314274
1.3068725225278053 13.08452704814375 806.6982090579694 41.93699050628153 0.3610123402310437
1.3339107115354476 13.085236424699561 718.5737060787017 43.85472143037543 0.36676131776618953
1.3609185635662748 13.085030750261314 640.6124202084364 45.86281114503708 0.3726599591808795
1.3878485673847507 13.08377467443 571.7888649332485 47.966592586233865 0.378718220414787
1.4147054325451947 13.081483497564397 510.800257503503 50.17082101419452 0.38494174591561103
1.4414292860680646 13.078031034091795 456.87075395060197 52.4807188408081 0.39133752073420625
1.4680231278146154 13.07343322530751 408.9911173467941 54.90270071824486 0.39791722861489065
1.494432405558643 13.067567192069543 366.5085438823657 57.44295620547016 0.4046899300628465
1.5206445692856365 13.060422403519508 328.8191851157842 60.10811294289337 0.4116653956281016
1.5466279648117522 13.051934611552857 295.2805155338813 62.905276088836565 0.4188541643680702
1.5723450476040979 13.042054492522837 265.4575756688494 65.84207153175556 0.42626760708306616
1.59776830537335 13.030728004492515 238.90521237244417 68.92669326151521 0.43391799488346294
1.6228551252411354 13.017906980408593 215.22823979891024 72.16795533066681 0.4418185737155855
1.6476072228282144 13.003566699765775 194.09011361665824 75.57534889070774 0.4499836455492221
1.6719564402722535 12.987632297438651 175.22509158632442 79.1588017221494 0.4584273911727582
1.6958934111361639 12.9700844185816 158.3560915001621 82.92852420694399 0.46716316129840507
1.719373510381036 12.950873071996194 143.27186334114592 86.89724413532218 0.47621246598301453
1.7423549116563322 12.929932676605734 129.77093784122678 91.07653559790829 0.48558963317370535
1.7648382707892358 12.90728643311344 117.67286632131824 95.48049445823668 0.4953166094292883
1.7867648017625761 12.88285342148526 106.81672478074267 100.12278309264894 0.5054108948391656
1.8081040774705976 12.856594605179435 97.08333619583632 105.01992951735677 0.5158982013385583
1.8288143684436708 12.828461829626175 88.32670339836267 110.18847447748078 0.5268010658217295
1.8488941797847793 12.7984964798507 80.46307448792192 115.64605795787641 0.538142895651127
1.868271298867912 12.766557456307401 73.38702890497102 121.41287189181998 0.5499529614520665
1.8869498444783586 12.73273929697662 67.00562740454683 127.51034678847853 0.5622610914141247
1.9048741717443785 12.696923346144372 61.255298426581724 133.96091082608066 0.5750965399360589
1.922015410966953 12.659109035968315 56.072590356272656 140.79026156545785 0.588495656362666
1.9383287949713601 12.619221682505607 51.39010208489973 148.02607471334872 0.6024967012266557
1.9538265673030835 12.57737828279589 47.16055426710774 155.6968530112603 0.6171354534401714
1.9684428474516502 12.533450407284944 43.33718364010015 163.83623686933103 0.6324594922188778
1.9821579567917698 12.48745339280794 39.87814044277343 172.47800307453804 0.6485103922200514
1.9949483902422558 12.439378383116532 36.743389172497665 181.661435149264 0.6653413019695323
2.0067848773772914 12.389220183280138 33.902526696173986 191.42853821525355 0.6830066490012049
2.017633075142747 12.336947493929369 31.327971985036044 201.82534514381715 0.7015656650794926
2.027469154347455 12.28256357103187 28.990269517503293 212.90179684875199 0.7210810005972342
2.036281063078826 12.226100288202717 26.869428089830954 224.71339060474415 0.741623023751718
2.044025831043801 12.167507407975908 24.941919738877967 237.3212747732783 0.7632688206461533
2.050685027818877 12.106803492316102 23.186402916328685 250.79232009267187 0.786101005394524
2.056258994386552 12.044059537667763 21.593524973080754 265.1996555922706 0.8102078358519302
2.0607064282792042 11.979211639655269 20.141956167139885 280.62494606362463 0.8356887607936873
2.064012778772194 11.912316995470778 18.820738626034576 297.15798530820405 0.8626509602580463
2.066175416396035 11.843419116771868 17.618225957692143 314.89914367344244 0.8912148999035856
2.0671689411723597 11.77253025063564 16.52297727732295 333.95779954316146 0.921506351155853
