M[M_sun], R[km], Lambda[1], P_c[MeV/fm^3], rho_c[fm^-3]
0.24162668629717493 15.618656898711224 2160425.4255784233 3.5677272577965504 0.1711233750220791
0.2536450844986488 15.277256227184004 1723090.5139747688 3.784851864794023 0.17388857514339287
0.2660430075389808 14.981202158347038 1382857.2523449862 4.011469301188046 0.17666748064698465
0.2788198842521508 14.723434412079515 1116310.663640525 4.247834656669708 0.17945874878606316
0.2919771428499831 14.498302826821606 905765.925259175 4.494573559856189 0.1822689538796489
0.3055145932415616 14.301099707508687 738536.2291224222 4.751843276875571 0.1850938347079772
0.3194331597174976 14.128010425922781 605000.5870825882 5.020323438971333 0.18793995165251753
0.33373387955214423 13.975784589197334 497583.7024550817 5.300241707193744 0.1908039981393079
0.3484172657332914 13.841890332107086 410921.602592527 5.59232263533893 0.19369218834226706
0.3634832642493597 13.723827770053193 340595.5979892288 5.896738665715992 0.1965996804229003
0.37893830037889403 13.619874897662907 283231.16187769757 6.214351822401544 0.199534111567555
0.39477288461174603 13.528343180656492 236342.67056888423 6.545415094138007 0.2024915810464704
0.4110014086182675 13.447765001738652 197811.73644054003 6.8906398286329535 0.2054759508432865
0.4276117299290308 13.376944761035883 166038.53114424009 7.2507273638831045 0.20849022399551762
0.44461130313786457 13.314813847448502 139752.02737257435 7.6259304622764095 0.21152984716416107
0.4619930068436956 13.260461236771834 117933.92029169238 8.017210643592394 0.2146011747412282
0.47976275930369455 13.213063677162326 99775.18843108928 8.425267503946321 0.21770576276059223
0.4979233483481353 13.171895724007285 84608.25120466162 8.850533647944339 0.2208409585149379
0.5164649777533645 13.136321938130155 71913.94306441011 9.293899027283715 0.22401040367120412
0.5353874800728888 13.105777413788577 61250.67173509504 9.756241153120943 0.22721690602620223
0.5546973167467897 13.0797621367248 52278.52326878936 10.23836353529351 0.23046173319219565
0.5743844306610884 13.057779328836261 44709.91241099922 10.740744930717245 0.23374167899507914
0.5944451416806733 13.039479478499274 38311.654553683606 11.26463470369555 0.23706298225542013
0.6148864204246551 13.024454347446053 32887.14558613092 11.810966164097428 0.24042719680346
0.6356937149062712 13.012403627738795 28277.145104547177 12.38071891553589 0.24383595666356397
0.6568679737707567 13.003001804710973 24358.915979500565 12.974565746710235 0.24728702697819419
0.6784034729453908 12.995957675770118 21016.774168836244 13.593866255360314 0.25078555749335313
0.7002962637436915 12.991050457845795 18162.962590326897 14.239803376496333 0.25433400975959675
0.7225359821785209 12.987996093736456 15720.58430908635 14.913567578945122 0.25793436989030644
0.7451268814234557 12.986643778161978 13626.517761545178 15.616166050457771 0.2615863055435427
0.7680518083087122 12.986751344252758 11829.446927077135 16.34891057978776 0.2652921636841819
0.7913016490178785 12.988145086474779 10284.105037229312 17.113396559155 0.26905641688164406
0.8148789614244669 12.990685808867491 8950.719088250331 17.911080063045723 0.27288149974087283
0.8387672669216549 12.994139501482739 7802.91761721564 18.743294472269643 0.2767682029950793
0.8629501442654397 12.99842435509949 6809.942572604611 19.611449132488968 0.2807175829557383
0.8874375807223338 13.003378004395925 5951.764257442444 20.517600294368574 0.2847357218075479
0.912196995498125 13.008872955446465 5207.702461042256 21.46354344669303 0.28882563560201685
0.9372229506025385 13.014773338525988 4562.507581023852 22.450721947784114 0.2929869132350987
0.9625107742664256 13.020983706130352 4001.777883685851 23.481244348136574 0.2972240155709559
0.9880351650707017 13.02736155179476 3514.225245964906 24.55749512708765 0.3015427233294112
1.0137835631722236 13.033826830943712 3090.0496336606097 25.68136814619651 0.30594430259138183
1.0397505096945037 13.040287483503882 2719.5406542120713 26.854923785773696 0.3104307411681116
1.0659063333507741 13.046612191856546 2396.659230225461 28.08121378317641 0.3150104229067422
1.0922433609515216 13.052741866465183 2114.223975488624 29.36223515974736 0.31968338813436764
1.1187456694829214 13.058572805840681 1867.0620303209146 30.700862674882096 0.32445513042984514
1.1453817554255628 13.064024386359531 1650.8094154316832 32.10037604855183 0.3293328900573578
1.1721486936517693 13.069034526229014 1461.041465531355 33.562846282078475 0.3343152028336141
1.1990093964911552 13.07348879986728 1294.4234968956648 35.092757100001016 0.3394152325359589
1.2259580649424298 13.077351099518303 1148.1725149220285 36.692057743731574 0.3446292821990922
1.252958014780704 13.080511872570886 1019.4140977315012 38.365874252623044 0.3499722405992378
1.2800042989475442 13.082946524078979 905.9956106572173 40.11653151533761 0.35544116283026117
1.3070576951818715 13.08455252783169 806.1292539178542 41.94934442846816 0.3610496880094249
1.334091534109576 13.085238161469526 717.9935933337498 43.86796568172571 0.366800686530625
1.361101871828532 13.085027676662872 640.1060899245067 45.87691796992503 0.3727009799113864
1.3880428358985382 13.083778930967348 571.2997027929366 47.98162225057805 0.37876099969119176
1.4148897415718509 13.081452362976869 510.38744824944877 50.186938356448294 0.3849869084847739
1.4416225516292778 13.078003608440115 456.4890238660444 52.49789827066114 0.3913846890120065
1.4682187402283293 13.07339779723989 408.6704728483063 54.92101831948835 0.39796653630308937
1.494629513803111 13.067518421573652 366.2138217783487 57.46249422552934 0.4047415212003053
1.5208439871765103 13.060360838437887 328.5719165058496 60.12896034474986 0.4117194254398175
1.5468284808531596 13.051864338432866 295.039025897284 62.927529158029294 0.41891080019836313
1.5725293733382786 13.04197397349631 265.2675312382164 66.20151365056694 0.42695541690972033
1.581915019860686 13.025287443281782 252.74186611995233 70.04396705132933 1.479979747276883
