M[M_sun], R[km], Lambda[1], P_c[MeV/fm^3], rho_c[fm^-3]
0.24162668629717493 15.618656898711224 2160425.4255784233 3.5677272577965504 0.1711233750220791
0.2536414058457017 15.277355419368302 1723233.1564040408 3.7847897710934304 0.17388780117536998
0.2660371646271111 14.981315523505382 1383079.1171427546 4.011338767632842 0.17666590322600564
0.27881050904279564 14.723621940441811 1116518.7780349175 4.247631266896678 0.17945638977119788
0.2919614089104245 14.498567445524708 906002.6123289469 4.494291976546259 0.18226581838414074
0.3054964424772803 14.301319359107161 738771.6862340464 4.751473938725221 0.18508984515106094
0.319409574686642 14.12827645874753 605194.329733982 5.0198636251229365 0.1879351809063686
0.3337052706247952 13.976115895666828 497769.4275146303 5.299679311736301 0.19079833575023425
0.34838392823404835 13.842169335304462 411090.2790952141 5.591656253886608 0.19368574091840063
0.36344340905893313 13.724146251812957 340729.71067988867 5.895953326778225 0.19659230435340136
0.3788954456452585 13.620129883145957 283372.38541451504 6.2134380219789564 0.19952577880798833
0.39472357870443464 13.52862446322034 236467.46663638085 6.544373780766793 0.2024824501349503
0.4109461141260047 13.448022256129553 197928.54849079944 6.889450899455351 0.20546582542349526
0.42755046702471716 13.377187111514534 166134.38753533326 7.249379661819679 0.20847907480173336
0.44454393572509615 13.315062574422917 139851.3856901754 7.624427712029742 0.21151788430593235
0.4619211458283357 13.260683345381477 118025.33396966751 8.015526633156231 0.21458814755904052
0.47968222413490386 13.21327142807 99844.10706366827 8.423389101303783 0.21769163979867906
0.4978356397127041 13.172084859060911 84678.03497658686 8.848467778886082 0.2208260007402782
0.5163702886209292 13.136496550908905 71967.15423143515 9.291612259035693 0.22399430468017467
0.5352845243266158 13.105925711358426 61302.28533091407 9.753717980382328 0.22719963105004054
0.5545866850685149 13.079908238073642 52323.01576450762 10.235594048267002 0.23044333001158063
0.574265700802059 13.057906438532726 44752.03044561153 10.73772811575857 0.2337223101085521
0.5943196342953515 13.039589864798566 38347.93023270021 11.261331729164352 0.23704234521077758
0.6147519140098923 13.024545829217582 32918.104628825204 11.807357517072825 0.2404052502086558
0.635549708639308 13.01246341451935 28308.418567137873 12.376783865713026 0.2438126569415704
0.656717775879622 13.003045616363849 24384.615591193753 12.97032236449512 0.24726277354553336
0.6782459011816405 12.995996801866076 21039.50486836647 13.589254282679116 0.25075987926508564
0.7001290243524269 12.991077861117244 18182.423505200044 14.234798084025469 0.25430685580365897
0.7223586135346804 12.988012789773205 15738.919647624052 14.908142648426992 0.25790568623771404
0.7449409872081998 12.986651059720502 13642.246972835668 15.610346404373518 0.26155655937308375
0.7678574543066468 12.986756480859615 11842.701945264982 16.342617406510865 0.2652607937937789
0.7910970822330913 12.988122862388655 10295.480912274363 17.106598273667178 0.2690233591214094
0.8146674601379317 12.990647787488276 8962.146519068781 17.903742986244016 0.2728466858360749
0.8385445720410787 12.994114169654264 7812.037811162101 18.735451147296644 0.27673216697507375
0.8627213906196725 12.998379439936844 6819.106170216513 19.602997575181963 0.28067966614822004
0.8871918367975253 13.003323713183597 5959.618576257493 20.50849982646195 0.2846958421461312
0.9119469153150149 13.008810798361335 5214.808743595313 21.45375060432295 0.28878370548686794
0.9369609609902518 13.014703020339933 4568.367807552536 22.440277524794865 0.292943533048154
0.9622341329381853 13.020902805037894 4007.295485616445 23.470017272082398 0.29717841907921055
0.9877562736857565 13.027300611803081 3519.2756409927256 24.545432551778664 0.30149480444408194
1.0134920964623815 13.033757457194008 3094.1049769117803 25.668516764787796 0.3058947066354893
1.039450865856293 13.040203744300536 2723.568068786511 26.841126484753463 0.3103786174493309
1.0655999883299108 13.04654727635881 2399.9839166676775 28.06640597626123 0.31495564239003504
1.0919238275760876 13.052666285282323 2117.300143650421 29.3464693290843 0.31962664082424996
1.1184177551199317 13.058502448239445 1870.0547248369617 30.683950589277497 0.3243954719519991
1.1450429163664262 13.063960251692109 1653.218730629951 32.082372906238035 0.3292710330336058
1.1718022963681622 13.068972798682662 1463.3288542982039 33.54354090497025 0.3342501417222917
1.1986527091284984 13.073437967030836 1296.4792842142194 35.072058369072565 0.33934678744421715
1.2255953446098202 13.077302179960986 1149.9825187132208 36.67002572587577 0.34455821031997247
1.252586018829077 13.08047875353493 1020.9975102760274 38.3423442877302 0.34989794249852113
1.2796256012030722 13.082920882495129 907.4860403413675 40.091387506364384 0.35536337566656867
1.3066638015666183 13.084514387915807 807.4434517827502 41.922571272538576 0.36096874870293444
1.3336964615212286 13.085230811099883 719.1704248897481 43.83926320294541 0.366715367919861
1.3607011788249832 13.08504120648859 641.1726933900316 45.84634631032696 0.3726120816781212
1.387628327659635 13.083788662480154 572.3104833446292 47.94905082781066 0.3786682909077117
1.4144817131273208 13.081506754887652 511.2723949550301 50.15201000921737 0.3848890354066494
1.4412104644027894 13.078082873846673 457.27325968624194 52.460668447486626 0.39128246986637866
1.467796026588129 13.073476845512648 409.3916614039007 54.88132216852077 0.3978596814038817
1.4942004787087344 13.067622000499355 366.86367666220053 57.4201535415881 0.4046297184670347
1.5204104026270908 13.060493384752164 329.14182258768653 60.083782373750815 0.4116023385585079
1.546393401747727 13.052018951881108 295.56760951620447 62.8793052821148 0.41878806660019263
1.5721079683325005 13.042152171424547 265.7110247988369 65.81433883468291 0.42619825806008005
1.5975298252980514 13.030843531339794 239.13829228521038 68.89706684223991 0.4338451673990189
1.6226181686927403 13.018039379537838 215.4420879661166 72.13629223123489 0.44174202246304406
1.647369625250145 13.003713532984815 194.2829516805438 75.54149398152008 0.44990310552256896
1.6717183411674617 12.987801791853007 175.39867502289016 79.12276329182272 0.4583433139271125
1.6956576030530148 12.970271607010922 158.51733487221915 82.88995070481818 0.4670745195028642
1.7191301820486207 12.951071984457322 143.42937169123397 86.85593702999871 0.47611892571293934
1.7421264261728389 12.930161779791138 129.9133222656998 91.03247769430894 0.48549162055532813
1.7646112346563287 12.907540992724845 117.78976988334757 95.433261408384 0.49521296957128397
1.786536669390429 12.883119560042559 106.92437605563256 100.07233377178093 0.5053020273934142
1.8078780247863202 12.856886643948338 97.17857143547019 104.96600236482632 0.5157836869171242
1.8285920850651232 12.828776368307675 88.41702177111621 110.13066678960234 0.5266800138021693
1.8486758066702014 12.798838055777203 80.54370905975593 115.58405745773001 0.5380148240125524
1.8680672172111485 12.766956418574239 73.45592243313075 121.34644838166388 0.5498177475268896
1.8867421992120115 12.733136598397843 67.07264497735393 127.43912741020152 0.5621181546901922
1.9046726822759361 12.697345414341312 61.31779121929706 133.88474932031278 0.5749461734757354
1.9218202321330453 12.659562020342364 56.128884889241654 140.70845895122562 0.5883362737621796
1.9381475745449495 12.619732668575969 51.44264512080682 147.938141215177 0.602327556767958
1.9536409892345488 12.577865367378134 47.209671087683674 155.60254025290283 0.6169567213222438
1.968271321672825 12.533996260242436 43.38092925261833 163.7348475022175 0.6322699050271231
1.9819976310263143 12.488032432458198 39.916728265937714 172.3688567749772 0.6483088655117217
1.9947968454252178 12.439987016151564 36.78018168758861 181.5440103927781 0.6651274111474068
2.006637325657188 12.389847237503925 33.93768917352436 191.30207262107248 0.6827793002858189
2.017501082526902 12.337625769180724 31.35714114006233 201.68899772721298 0.7013236618645838
2.027350243307485 12.283279284314938 29.019625995381197 212.75498264213746 0.7208241579263771
2.0361727366081386 12.226847370772168 26.895789027680127 224.55475103277408 0.7413488114748952
2.0439307268498403 12.1682915448646 24.96531673874682 237.15003713078286 0.7629768447355408
2.0506035317744002 12.107625039607322 23.2089982496875 250.60697217485276 0.7857887020151524
2.05594252768915 12.045839470381686 21.64820329212624 265.1442231974756 1.0012273612285352
2.0570553439235506 11.987106312895268 20.527243526940644 282.13086082080935 1.488498414467561
