M[M_sun], R[km], Lambda[1], P_c[MeV/fm^3], rho_c[fm^-3]
0.24162668629717493 15.618656898711224 2160425.4255784233 3.5677272577965504 0.1711233750220791
0.2536443664372707 15.277259005889334 1723098.749230687 3.78482698092792 0.17388826497800627
0.2660407651096545 14.981242202820447 1382974.9009655996 4.011416989888613 0.17666684849580302
0.27881583140918265 14.723481701332735 1116436.2678644664 4.247753147704599 0.17945780340489928
0.2919713857723338 14.498398714177428 905870.3697214032 4.494460713892835 0.18226769731365677
0.30550807041469774 14.301163270160993 738615.9153719485 4.75169526172205 0.185092235861828
0.3194237025700791 14.128114956148384 605082.0587697006 5.0201391638139405 0.18793803972663592
0.3337241580527276 13.975862594506033 497672.3689839444 5.300016319932305 0.1908017288635703
0.34840388071098655 13.84200334997995 410991.797905647 5.592055572727559 0.19368960443803565
0.36346719801403427 13.723962521538866 340630.51765787305 5.896423927067551 0.19659672433090833
0.37892129892022935 13.620000499778262 283282.92230460513 6.213985598206387 0.1995307720438578
0.39475172911178213 13.528469844759044 236402.15718313394 6.544997764123365 0.20248792162602722
0.4109792135971469 13.447870519273081 197857.77875291233 6.890163335286351 0.20547189282599415
0.4275872137754261 13.37704801880964 166072.32147604035 7.2501872349858 0.2084857556475734
0.44458384709096466 13.31492432690336 139798.5499512341 7.625328190221083 0.211525052691341
0.4619653563557798 13.260548064908177 117974.28131746883 8.016535722029115 0.2145959536772856
0.47973080831600057 13.21316635699052 99801.33893520299 8.42451466890765 0.2177001024935455
0.49788821620471296 13.171967497107012 84634.86818008723 8.849705674865124 0.2208349636360787
0.5164273782798792 13.136387362164447 71933.84170692462 9.292982515290774 0.22400395136963597
0.5353465651579336 13.105831100361542 61270.11244739051 9.755229886789948 0.22720998236160578
0.5546539519755469 13.079792868462768 52301.686339184715 10.237257459159206 0.230454407679224
0.5743368862075934 13.057844547369289 44324.924027822315 10.739535803513098 0.23373391602388777
0.5943942353928491 13.03952847715116 38324.51602410721 11.263310877166054 0.23705471096330746
0.6148306279525623 13.024527427330263 32898.652544304394 11.809519816122437 0.24041840059459374
0.6356369942871035 13.012426229990485 28289.7631384277 12.379141735925531 0.24382661806605962
0.6568081767782236 13.003008712663924 24368.638814372283 12.972864978227284 0.24727730608297857
0.6783406306090246 12.995972704971345 21025.9857319523 13.592017743281287 0.2507752654733431
0.7002297325942427 12.991062369090443 18171.20289945597 14.237797207347533 0.2543231261940534
0.7224636834193582 12.987996323026014 15728.277766514359 14.911393202207789 0.2579228731408586
0.7450525998710149 12.986654365058323 13632.860115580148 15.613833455801807 0.2615743828669326
0.7679737127824899 12.986756460690495 11835.116803790921 16.34638817421557 0.26527959012504565
0.7912201716952993 12.98814117966429 10219.248077837807 17.11067168055154 0.26904316671971673
0.8147953091520086 12.9906646415091 8955.507989603317 17.908139209701748 0.2728675456020368
0.8386788224590352 12.99413224534529 7806.7112895911105 18.740150689065285 0.27675375893789245
0.8628589117019546 12.998413962850707 6813.497815863274 19.60806153598841 0.2807023849466856
0.8873406906761742 13.003356889141106 5954.66408263439 20.513952576622067 0.2847197369427951
0.912097695128072 13.008846496114725 5210.706626356671 21.45961818287244 0.28880882875904246
0.9371174711772271 13.014739015310887 4564.658019534508 22.446535490780686 0.2929695250761136
0.9624022518895426 13.020954584000352 4004.0578975713734 23.476744151837696 0.29720573893664753
0.987923741726212 13.027339609194117 3516.176683868255 24.552660004810384 0.3015235156839439
1.0136660025944282 13.033800704268021 3091.680288530021 25.676216816267146 0.3059244226170943
1.0396317564279722 13.040248869628554 2721.1381456573085 26.849393260764188 0.3104098478405048
1.0657818329463105 13.046584641130677 2397.869276053589 28.075278169088868 0.31498846448922957
1.092115150722473 13.05270581259018 2115.5651113398367 29.355915496258408 0.31966064122610055
1.1186106171370869 13.058551506316242 1868.2877642173803 30.694083497369817 0.3244312164418908
1.1452455175263017 13.064005364697145 1651.8672151549752 32.09315948600945 0.32930809465926497
1.1720092094447196 13.069009468315404 1461.8859993925155 33.55510766863321 0.33428912290841917
1.1988661849119748 13.073466711561755 1295.2379382497325 35.08445990271407 0.3393877959539062
1.2258123302044324 13.077338344264348 1148.917735536376 36.683226044196395 0.34460079250350945
1.252808876570784 13.080496972515828 1020.029819659355 38.356472202412654 0.34994263444446744
1.279853451487872 13.082938299040174 906.5852301163789 40.106452228187514 0.35540998088309106
1.306895477241143 13.084525654153355 803.2741879235174 41.93861201779468 0.36101724230600585
1.3339308523131712 13.08523877751554 718.4819525936706 43.85645979377023 0.3667664850812142
1.360941138842855 13.085032444814969 640.5194006193866 45.86466271767659 0.3726653433025981
1.3878737531690326 13.083771559668454 571.7359914640318 47.96856527719718 0.3787238353300671
1.4147303215046079 13.081481260446159 510.74973559081764 50.172936456025134 0.3849476736167469
1.4414545043151754 13.078028581853193 456.8160160712457 52.482973675116824 0.39134371166440457
1.4680486649248947 13.073427588128718 408.95074729035275 54.9051049298022 0.397923700320015
1.494458370344639 13.06756160888338 366.47648492343984 57.44552058785622 0.40469670144519615
1.5206708758978218 13.060415225301153 328.7915514609536 60.11084917091599 0.4116724870578103
1.5466543202795897 13.05192583583159 295.2476627982499 62.90819679817573 0.41886159780554505
1.5723703231473318 13.04204370307621 265.42181651579875 65.84519040663868 0.42627540621365173
1.5977956255678603 13.030714966552198 238.8887043633482 68.93002513132598 0.4339261852656539
1.6228812564338049 13.017891582524559 215.19566198793285 72.17151627650198 0.4418271829442714
1.647633290670315 13.003551444387796 194.06124921515953 75.57915636302 0.4499927034356223
1.671982723780762 12.987618686029151 175.20055616006076 79.16285478802305 0.45843684692907133
1.6959200106896926 12.970062886957642 158.34196014433047 82.93286241305505 0.46717313048341336
1.7194010502910695 12.950851472272745 143.25626042798618 86.90188981509952 0.47622298616199227
1.7423828782758408 12.929911693690919 129.7580803286906 91.08149068502543 0.485600656418639
1.764864558334945 12.90725939758742 117.66083974156402 95.48580669017787 0.495328265652331
1.786791870345684 12.882823829794601 106.80693281056921 100.1284570950295 0.5054231390901431
1.80812978676692 12.856561438209743 97.07108685135572 105.02599471465587 0.5159110807977361
1.8288393155205787 12.828425956774735 88.31663679210081 110.19496296479603 0.5268146315227176
1.848918823167936 12.798456725520523 80.45194442633823 115.65303128380259 0.5381573001361808
1.868295210630219 12.766516942847938 73.37742519122163 121.4203427445073 0.5499681693703758
1.8839727047926431 12.734229751507277 67.77555170548702 127.92709186092952 0.9827924088490765
1.8880720166301475 12.698084128125192 64.96225029534563 136.23644026606357 1.534064423539995
