M[M_sun], R[km], Lambda[1], P_c[MeV/fm^3], rho_c[fm^-3]
0.24162668629717493 15.618656898711224 2160425.4255784233 3.5677272577965504 0.1711233750220791
0.25364391879767406 15.277265321520739 1723208.2918406615 3.784818041350089 0.1738881535504812
0.26603973642451606 14.981249094828991 1383000.6922828408 4.011398197070569 0.17666662139568773
0.27881476869337507 14.723526512829237 1116478.8732784002 4.2477238658135805 0.17945746377909033
0.29196908631848645 14.498427263920806 905880.1502962909 4.494420174505837 0.18226724589817384
0.3055038913900743 14.301255790028028 738675.316292791 4.75164208828899 0.1850916614872679
0.31942078004278074 14.128145231274729 605150.6066052731 5.0200729646009075 0.18793735288425015
0.3337182606660709 13.975955692230283 497690.91744119965 5.299935352038883 0.19080091365123356
0.3483990701613693 13.842042937127193 411015.3039211047 5.5919596339510385 0.19368867620398098
0.363461549349512 13.724004713954862 340671.3534848108 5.8963108619454 0.19659566239935397
0.378914736449973 13.620011951437467 283317.0552100059 6.213854038429348 0.19952957237709948
0.3947454608136244 13.528484512221858 236409.55953260118 6.544847846238462 0.20248660704870577
0.4109717109259265 13.447874451558857 197872.6222410003 6.889992165057895 0.20547043506849982
0.42757866584675663 13.377096127282668 166091.67663061683 7.249993206104095 0.20848415049636038
0.44457356191364217 13.314942206391537 139806.84473495613 7.625111838919572 0.21152333039586754
0.46195485787055024 13.260580891645752 117985.65135742938 8.016293274523095 0.21459407814981613
0.4797192391599694 13.213161242210818 99817.2995637294 8.424244234547608 0.21769806920521828
0.49787536005708005 13.171996471641293 84642.37587443483 8.849408250749496 0.220832810158402
0.5164136184577174 13.13641875737502 71942.06360229946 9.292653288040144 0.2240016335892666
0.5353317042763844 13.105852079114822 61279.15022536771 9.754866624063036 0.22720749527269118
0.5546374368395413 13.07982189042968 52302.810912344205 10.236857792964042 0.2304517460582745
0.5743203195366552 13.057857581125564 44731.67875785159 10.73910147038075 0.23373112747063854
0.5943771124286594 13.039522254564575 38330.94200124375 11.262835345171196 0.23705173983079822
0.6148125443862437 13.024511031117436 32903.18045973195 11.80900027592875 0.24041524092338246
0.6356171496717496 13.012433526702589 28293.56417864022 12.378575202924168 0.24382326358212011
0.6567858222323422 13.003043129367299 24178.55499342839 12.972254054035432 0.2472738142908192
0.6783180485994715 12.99598822515243 21029.848416453147 13.591353752383156 0.2507715685499161
0.7002047903956544 12.991066877679899 18173.401040863002 14.237076589376452 0.2543192168063905
0.7224392513669047 12.988004060233568 15730.835851928512 14.910612168030385 0.2579187435187496
0.745025381955795 12.98665684081661 13634.927975054516 15.612995593553963 0.26157010027089755
0.767945922182538 12.986759193430109 11837.257130245216 16.345482137144543 0.26527507375748854
0.7911898448582164 12.988140297608584 10289.48596674447 17.10969292124154 0.2690384073446279
0.8147627381321025 12.990672124127032 8956.981255959774 17.90708287924039 0.27286253338952887
0.8386430444892669 12.994140071992424 7807.603727554052 18.739021472769707 0.27674857077328646
0.8628259066926641 12.998401334529326 6772.906700648945 19.606844750841113 0.28069692599911594
0.8873008909401002 13.003348176280932 5955.906269015286 20.5126423660032 0.2847139953967119
0.9120611549208352 13.00884395289148 5211.635392829763 21.458208289103883 0.28880279200221237
0.9370802851872737 13.014735741627055 4565.662112388217 22.445031787077145 0.2929632795470082
0.9623586893829336 13.02093112139325 4004.973078320147 23.47512776718224 0.2971991743182871
0.9878819263986228 13.027329573707856 3516.783984695882 24.5509233306968 0.30151661670212854
1.013624629180021 13.03378242213155 3092.147859189897 25.674366575271495 0.30591728218075576
1.0395882826263234 13.04023828694433 2721.699730977971 26.84740683258201 0.31040234347252776
1.0657383458858607 13.046570810430886 2398.555734303918 28.073146254920704 0.31498057761169423
1.0920692724247711 13.052703232178626 2115.998866664413 29.353645652163355 0.3196524711810498
1.1185667627088745 13.058532952432898 1859.6375846400442 30.69164862283267 0.3244226272641851
1.1451971095303275 13.063987541029238 1652.2732100693095 32.09056752814958 0.32929918894735605
1.1719595289985958 13.069005874654987 1462.212262747128 33.55232822311627 0.3342797558904542
1.1988145101839767 13.073465915060284 1295.5059922881126 35.0814798506478 0.339377941729617
1.2257612796082331 13.077325406286999 1149.1934962711696 36.680054033686034 0.34459056008861966
1.2527549562111675 13.080492533040482 1020.2667510659061 38.35309478476528 0.349931997716385
1.2797963964567367 13.082931292126966 906.8144102368403 40.10283217171814 0.3553987816377575
1.3068385844390142 13.084520617370767 806.8228636473882 41.93475740632766 0.36100558923157
1.3338763149095947 13.085237527065097 718.6798717417875 43.85232740930526 0.36675420149747245
1.3608832403285251 13.085034612826192 640.6752365195794 45.86026121917876 0.37265254434286477
1.387814545799639 13.083777303094369 571.8597588068086 47.963875863976206 0.37871048774626465
1.4146708234058516 13.081488748963999 510.8730177521555 50.1679077054381 0.38493358250342224
1.4413946998838392 13.078035512903753 456.9340527014935 52.47761357040272 0.39132899482511735
1.4679878191252584 13.073441099086233 409.0599809476814 54.89938973623362 0.3979083160467835
1.4943970125348705 13.067576658363727 366.57157858457373 57.4394246481235 0.4046806048057343
1.5206083055623312 13.060432472340796 328.8730581114036 60.10434473298909 0.4116556296307349
1.5465912513319833 13.051948963032856 295.31983527657036 62.90125382598958 0.41884392738934056
1.572307231185159 13.042070013602288 265.492515187618 65.83777637168916 0.42625686650657646
1.5977315092510949 13.030744755713156 238.94721044879026 68.92210478303119 0.4339067155134415
1.6228186367456283 13.017926491662788 215.25911654703646 72.1630513889186 0.4418067175521034
1.647570655803422 13.00358969021761 194.1223798714244 75.57010545520754 0.4499711715404277
1.6719194242247988 12.987658990765773 175.25621061455539 79.15322007741102 0.4584143692594417
1.6958584994045809 12.970113812571311 158.38301815358167 82.92254989474469 0.4671494323463711
1.7193371251196987 12.95090466515377 143.29436765694774 86.89084640121739 0.47619797826301224
1.7423231423388854 12.929967806584077 129.7920576420235 91.06971177889993 0.48557445268816923
1.7648028575064152 12.907323846775439 117.69360649152354 95.47317881740888 0.4953005572798089
1.786729536550955 12.882891883083817 106.83974453927428 100.11496926004631 0.5053940329274026
1.8080691602643724 12.856641448644826 97.09475297752287 105.01157697396957 0.515880464695168
1.8287811411991834 12.828509249006906 88.33910659227746 110.17953902685484 0.5267823841713698
1.8488603225315876 12.798548977101179 80.47348697522928 115.63645484550682 0.5381230589347509
1.8682479852530585 12.766645686253092 73.38906008332982 121.40258364536174 0.5499320183524993
1.8869180439106765 12.732800499496602 67.01810018980495 127.499315645246 0.5622389519976762
1.9048414489725454 12.696990558950764 61.26534315983327 133.94911412950515 0.575073249594177
1.9219856844978425 12.659178347187272 56.082105351988695 140.77759102705667 0.5884709693354983
1.9382997461315707 12.619296786370775 51.397052403900055 148.01245445538555 0.6024705019828134
1.953799239327534 12.577457982593067 47.167539990333 155.68224455634373 0.6171077689557776
1.9684162223219375 12.533536681772244 43.34406797311365 163.82055169025577 0.6324301921740123
1.9821331031482992 12.487542074831563 39.884464921422 172.46109674865775 0.6484791765378128
1.9949226129442894 12.439474378697659 36.74776954327717 181.64324638946204 0.6653081708913516
2.0067625309677384 12.389319311690635 33.90764805750128 191.4089489056293 0.6829714330643549
2.017612388964078 12.337052748971235 31.332424503602475 201.80422498872244 0.701528178887531
2.027450666258105 12.282673778609297 28.993499604630603 212.8790552207363 0.7210412154796092
2.0362632414497486 12.226215786965751 26.87305202901862 224.6888170088687 0.7415805477062329
2.044010832863245 12.167628355359701 24.945187324752464 237.29474949252045 0.7632235926058074
2.050673425735134 12.106930656715985 23.19064002223466 250.76365148784586 0.7860527670522006
2.0562494351014413 12.04419170363019 21.596403733298683 265.16857203849764 0.8101561110125356
2.060699602524045 11.979349584998362 20.144871692225507 280.59132941140933 0.8356336216598469
2.063889909698302 11.913228587219608 18.84294757068067 297.2702722288345 1.0833929592304794
