M[M_sun], R[km], Lambda[1], P_c[MeV/fm^3], rho_c[fm^-3]
0.24162668629717493 15.618656898711224 2160425.4255784233 3.5677272577965504 0.1711233750220791
0.25364533904782405 15.277265191963314 1723157.3164642204 3.784843298958552 0.17388846837438604
0.2660421484274946 14.981226535191201 1382990.0793993718 4.011451293883532 0.17666726303933677
0.27881917146280566 14.723456823417534 1116370.9697858854 4.247806598466066 0.1794584233531837
0.29197459250905267 14.49832099318172 905805.1581360885 4.494534714262556 0.1822685213249482
0.3055116630360866 14.301125984823987 738592.9979008324 4.751792324647221 0.18509328432666722
0.31942955224452035 14.128054253577636 605019.2682866707 5.020260004548619 0.18793929349589844
0.3337302112157749 13.975888256272446 497624.6409569656 5.3001641202215435 0.1908032169672379
0.3484126697726219 13.841928944709554 410945.3631784422 5.592230701862928 0.19369129886059672
0.3634778896994005 13.72387126441261 340624.6480866285 5.8966303199677315 0.1965986628167042
0.3789323773591596 13.619906932625478 279330.89261381736 6.2142257529016875 0.19953296196551387
0.3947659289406019 13.528371878665286 236361.36856983652 6.545271431541247 0.20249032131957548
0.4109937817836795 13.447779941931678 197821.27922851164 6.890475799077463 0.2054745538987596
0.42760378285367967 13.376985117082551 166047.13513786808 7.250541427727006 0.20848868579334956
0.44460196638161176 13.31483426395629 139768.284806364 7.625723133208849 0.21152819669147113
0.4619825457339717 13.260489715598043 117948.54458931767 8.01697830468936 0.2145993774119753
0.47975150653655446 13.213090241426988 99789.96166327236 8.425008342975238 0.21770381423239007
0.49791185813266026 13.171914988697527 84620.68652905208 8.850248620291692 0.2208388947929498
0.5164528508440283 13.136336895719563 71922.41361922763 9.293583519512454 0.22400818247682483
0.5353721136946853 13.105804033296748 61257.890431814594 9.75589302542009 0.22721452255968747
0.5546817558844207 13.079772259826091 52289.72859230207 10.23798424287125 0.23045923034141919
0.574367439869504 13.057817165082131 44715.93017847794 10.740328687555486 0.23373900658504465
0.5944274858974752 13.039487874393243 38316.93695425303 11.264178974017648 0.23706013484814556
0.614869410088824 13.024457511317141 32891.138247150026 11.81046825491682 0.2404241686848988
0.6356744619401966 13.012421553849364 28281.507501507705 12.38017596582523 0.24383274181803866
0.656847346093993 13.002995147174868 24361.86263242076 12.97398024983017 0.24728368051812205
0.6783819359965211 12.995974954989714 21019.66636798431 13.59322989549155 0.25078201441209486
0.7002731326376528 12.991057223076345 18165.82961566029 14.239112740605114 0.2543302630261804
0.7225103437231527 12.988004753973234 15724.379108812527 14.912819034663146 0.2579304120545217
0.7451008006420643 12.986654029396986 13628.541815009892 15.615363036865064 0.2615822010707167
0.7680247580724454 12.986758671532051 11831.320208850388 16.348042220117346 0.265287835129017
0.7912734269929039 12.988150878766778 10285.864253662621 17.112458494013847 0.2690518553885181
0.8148494254071758 12.990677373251218 8952.350088017805 17.910067643965434 0.2728766958847283
0.8387363530236328 12.994135253027778 7804.466282334114 18.742212190222055 0.27676323046905843
0.8629183844737035 12.99842423686964 6811.059019775549 19.610282912015183 0.2807123508599692
0.8874047371996577 13.003366932048335 5952.608076279561 20.51634452079754 0.28473021881304883
0.9121633768941217 13.008874503252965 5208.8102598581445 21.462192120803653 0.28881984961588497
0.9371873550517545 13.014762744118428 4563.0846722671495 22.4492806995097 0.2929809271102891
0.9624737569064422 13.020979351098651 4002.5692421573813 23.479695086494996 0.2972177235590989
0.9879975406767868 13.027356588732642 3514.8121874706367 24.555830557615707 0.3015361107851074
1.0137429166135132 13.033808155109822 3090.6191371350537 25.679594713284114 0.30593745857222904
1.039709825565951 13.040277782938656 2720.0718535712613 26.853019803377666 0.31042354826546864
1.0658640354993494 13.046601884413995 2396.9654907409003 28.07917033604403 0.31500286330724064
1.0921994362656127 13.052736301779467 2114.719226595889 29.360059491568617 0.3196755570647912
1.1187007549581554 13.058559695272312 1867.5929903531596 30.69852880351966 0.32444689754738304
1.1453344995378194 13.064015343535276 1651.0523712480394 32.097891592802746 0.329324353712113
1.1721004854580852 13.069029177850481 1461.248335717263 33.560182091627446 0.33430622423710465
1.1989586055059327 13.073486271460542 1294.7139760587245 35.089900596416314 0.33940578685300415
1.2259076019136979 13.077348826997898 1148.4209570779292 36.68901721818506 0.3446194739343424
1.2529064657043336 13.080511667003977 1019.6016403625158 38.362637362430895 0.34996204794233227
1.2799508832860835 13.082944595994793 906.1877365471989 40.11306145914689 0.35543042763567795
1.3070043105804918 13.084552467071948 806.3056711570295 41.94564950852201 0.36103851770664974
1.334036515430809 13.085239218332221 718.1553300506793 43.8640044594136 0.36678891172932004
1.3610472429068992 13.08503251447423 640.253423451443 45.87269874742011 0.3726887109854801
1.3879872000116604 13.083785389462347 571.4278289564834 47.977127000974555 0.37874820475972204
1.4148333305365934 13.08145567659733 510.56456085901067 50.18211777235285 0.38497340067689917
1.4415647745258102 13.078009287931094 456.59913631843955 52.492760006698724 0.3913705812643069
1.468159243056275 13.073407219464924 408.7513267384171 54.915539616920974 0.3979517886211012
1.4945713137527439 13.067534119572086 366.3118969212313 57.456650481783676 0.40472609049719704
1.5207839773758962 13.060381114887917 328.6539026208579 60.12272494829786 0.4117032652823746
1.5467683359526518 13.051886915324742 295.1060169917505 62.92087330679077 0.4188938605277975
1.572485605121003 13.041995549549615 265.298031150064 65.85872704602545 0.42630925624682836
1.5978996498896805 13.030652993275284 238.76735788205767 68.94448627219687 0.43396173355456563
1.6230078797215446 13.017840543742857 215.0907175423829 72.1869717233453 0.44186454927402663
1.6477505223190267 13.003479528415035 193.9630247610114 75.59568186483747 0.4500320172128195
1.6720984401167238 12.987535548597501 175.1224311903301 79.1804462939612 0.4584778877111651
1.6960354402442679 12.969971990777246 158.2577061517623 82.95169158964171 0.46721639987637004
1.7195150540538304 12.95075075246577 143.18769952804323 86.92205360908865 0.4762686472346022
1.7424972401485341 12.929802615895932 129.69725815463707 91.10299748872741 0.485648501140506
1.762751144878653 12.907613082033855 118.58503290830309 95.72238800546019 0.8351440655175579
1.7689299554283415 12.879015099897835 113.5010703231299 101.80050046324457 1.4129288911814477
