M[M_sun], R[km], Lambda[1], P_c[MeV/fm^3], rho_c[fm^-3]
0.24162668629717493 15.618656898711224 2160425.4255784233 3.5677272577965504 0.1711233750220791
0.25364455941263 15.277266697757636 1723092.9370171917 3.7848426405465085 0.17388846016759754
0.2660421834758841 14.981211190110532 1382911.775052324 4.011449909756348 0.17666724631297662
0.27881913380527235 14.723431620022923 1116310.5335205449 4.247804441782511 0.17945839833890453
0.2919743815127422 14.498329555507581 905830.625029444 4.494531728415069 0.18226848807684345
0.3055116615586096 14.301134535858537 738581.0870473471 4.751788408235678 0.18509324202194796
0.31942946408254635 14.12805185509475 605031.4296539829 5.020255128708526 0.1879392429071756
0.33372871174111557 13.97589756029526 497626.66833819164 5.3001581565657805 0.19080315692311986
0.34841228012060727 13.841928241125043 410924.07154215564 5.592223635486106 0.1936912304914571
0.36347741515060034 13.723863211515416 340618.2385324844 5.896621992090748 0.19659858459952123
0.37893241617311213 13.61993570441943 283258.901298648 6.214216062723098 0.19953287360275285
0.3947660861198696 13.528370620884132 236366.76641243402 6.545260389106416 0.2024902244923396
0.4109932039159958 13.447805272603839 197825.49036489957 6.890463191182683 0.20547444652463695
0.42760319121105356 13.376979186550829 166046.30438516085 7.250527136034749 0.20848856756184217
0.44460118207979893 13.314837736913018 139768.39547864263 7.625707197205567 0.21152806983063818
0.4619819317867271 13.260491517232689 117945.33341820352 8.016960446373474 0.21459923926346408
0.4797515567899751 13.21308577055478 99790.61511924866 8.424988423058522 0.2177036644624639
0.49791015997237775 13.171924590069148 84619.30106284416 8.850226712210219 0.2208387361690793
0.516451765923603 13.136336896606782 71921.38014779027 9.293559268673125 0.2240080117494041
0.5353724951510165 13.105797243880462 61258.92427478876 9.755866267357883 0.22721433935982974
0.5546806072014885 13.079786252455296 52287.78709181639 10.237955089438866 0.23045903796559886
0.574366209885514 13.057809895376986 44314.66909456993 10.740296694036573 0.23373880117674287
0.5944260205677855 13.039489153448335 37983.200767264716 11.264143945514366 0.2370599159894232
0.614867167392721 13.024487003305172 32891.592578136224 11.810429984448602 0.24042393593659914
0.6356728149554768 13.012420877908966 28282.30302217899 12.380134233496454 0.2438324947178233
0.6568457619028543 13.003008124321605 24361.836569825402 12.97393524728552 0.24728342330203099
0.6783805970680598 12.995959213123646 21021.01552229765 13.59318098357897 0.2507817420836699
0.7002712091496198 12.991043510995233 18165.39826099295 14.239059657003576 0.25432997504505134
0.7225073188188927 12.987994066212181 15724.024245802999 14.91276150019437 0.2579301078480975
0.7450991139641495 12.986646742941364 13628.679190211626 15.615301315860046 0.26158188559388024
0.7680226682324087 12.986758429113834 11831.460774091338 16.34797547659672 0.26528750242930654
0.791270546111974 12.988150017112154 10286.052298279083 17.11238639292294 0.2690515047853285
0.8148472080347399 12.99068500775442 8952.351256860262 17.909989828032383 0.2728763266536901
0.8387346319057518 12.994136317906557 7805.195454268994 18.742129004623244 0.2767628482742733
0.8629159159971161 12.998416458892246 6768.828345792739 19.61019327493107 0.2807119487149039
0.8874020174167678 13.003366990752408 5952.699464190481 20.516248000698102 0.28472979584700747
0.9121607766565721 13.008868941292734 5208.786134121941 21.462088256603998 0.28881940489945973
0.9371835921317215 13.014761534434149 4563.130422136158 22.449169923922177 0.2929804670115646
0.9624721014560021 13.02096818262535 4002.7052034235307 23.479576009084244 0.29721723995035254
0.9879944148939219 13.027350982186313 3514.8534010597714 24.555702617750867 0.3015356025407603
1.0137385468124647 13.033813944493748 3090.70033453152 25.67945840627196 0.3059369325372179
1.0397068516109242 13.040269507066858 2720.138897928699 26.852873462484553 0.310422995415926
1.0658605334485283 13.046601312736433 2397.0547778690857 28.07901327607374 0.31500228227411564
1.0921963393529286 13.052730877921247 2114.599737546045 29.359892269256676 0.3196749551671433
1.1186964349389024 13.058562834430008 1867.3357309669618 30.698349421958703 0.32444626476730315
1.1453302803298324 13.064016918697636 1651.2012685914706 32.09770063755529 0.32932369760869107
1.1720970978645722 13.069022341938894 1461.2946158958466 33.559977322299616 0.33430553414335723
1.1989549865598552 13.073479993179696 1294.737201508988 35.0896810462816 0.3394050608602288
1.2259043546064474 13.077348808001371 1148.4682068583877 36.688783524478005 0.34461872007461847
1.2529025735116288 13.08050554725404 1019.6228635321664 38.36238857654079 0.34996126453941456
1.2799470109493891 13.08294897764944 906.2030031096656 40.11279475267275 0.3554296025349478
1.3070001596397935 13.084548002146546 806.3295305730771 41.94536551954474 0.36103765916494734
1.3340323933902105 13.085237842826148 718.121149775604 43.8637000031468 0.36678800672784195
1.361043921257935 13.08503014316044 640.2739629002903 45.872374461935735 0.3726877680073424
1.3879829959605021 13.083780635506647 571.4503013452199 47.97678150080932 0.3787472213547219
1.4148280132217115 13.081458622647425 510.55986920575583 50.18174726798872 0.3849723624828404
1.4415603236913435 13.07801016964133 456.6074819706162 52.49236508643469 0.3913694969612257
1.4681555474975723 13.07340687963905 408.7655484389136 54.915118531639884 0.397950655135255
1.4945665523998573 13.067537167169432 366.321684409294 57.45620134066487 0.4047249045171884
1.520779387083261 13.060382283689153 328.65939083293114 60.12224570612827 0.4117020232396315
1.5467637095889113 13.051888665215014 295.1105706673377 62.92036175000923 0.41889255857511787
1.572481599417109 13.041998148887137 265.3065977648865 65.85818077735942 0.4263078902347821
1.5978950040275073 13.030654891725172 238.7706539287556 68.94390269373393 0.4339602990055222
1.6230043591281025 13.017841005870418 215.0990300678812 72.18634801786054 0.4418630413535472
1.6477458444188693 13.003480807870357 193.9719682239029 75.59501497517881 0.4500304306981257
1.6720937784436085 12.987539353068607 175.13303067129854 79.17973638365636 0.4584762314985458
1.6960303818492382 12.969977035777502 158.26022092931726 82.95093173033827 0.4672146537219038
1.719510407484613 12.950754821933142 143.19056066053327 86.92123988806112 0.47626680455683323
1.742492146824612 12.929807173175172 129.69889017864008 91.10212956731459 0.4856465703348329
1.7649735086575982 12.90714245449398 117.59990076095976 95.50793324378887 0.4953768162515729
1.7868845900306363 12.882666346397249 106.75679952219285 100.15209058742794 0.5054741391414289
1.808235114768343 12.856426992529794 97.02353277742624 105.05125772045345 0.5159647268435006
1.8289397646068175 12.828271924157741 88.2748195413638 110.22198918456748 0.5268711361590754
1.8490211012590392 12.798295461472625 80.41672332772494 115.68207711965151 0.5382172988100973
1.86839163270011 12.766344922528182 73.33661237931908 121.45146105115774 0.5500315148391289
1.8870684359185002 12.732512632894045 66.96463688029483 127.55158294463676 0.5623436333883226
1.904988660877958 12.696683678486833 61.216875951115746 134.00515835527312 0.5751838982974207
1.9221280769129319 12.658846838169737 56.03916076441863 140.8377870218097 0.588588254024657
1.9384389578929069 12.618940152850316 51.35987278274922 148.077162754895 0.6025949716163584
1.9539305622767043 12.577081094412842 47.135137657164364 155.75164798101744 0.617239295392915
1.9685424751989011 12.53313766978363 43.314132180974134 163.89507088258014 0.6325693946445718
1.9822526872269175 12.487119153429509 39.85448782721781 172.54141795800143 0.6486274808687266
1.995035858758435 12.4390212204182 36.722773907699775 181.72966082344166 0.6654655759810495
2.006868333262532 12.388844533103049 33.88267588158273 191.5020178131293 0.6831387441555614
2.0177083973016425 12.336553656317008 31.308375184936104 201.9045674981447 0.7017062769437832
2.027540306366585 12.282156242556256 28.973878962266753 212.98710195890217 0.7212302367837994
2.036342639749511 12.225665795677559 26.853064909866934 224.8055682142497 0.741782354944186
2.04408016657607 12.167053879211469 24.92757204360596 237.4207740271243 0.763438476014118
2.050732782738212 12.106326786286285 23.173630714215218 250.89985999322573 0.786281954086231
2.0562983312128216 12.043559664783839 21.58102743023055 265.31616992610594 0.8104015864278455
2.06073794622102 11.978690635994832 20.130687229589306 280.7510487725287 0.8358955985864384
2.0640353520516745 11.911774564562599 18.810989381721335 297.29479860901205 0.8628726223197151
2.0661845827132264 11.84284945376857 17.609594100571137 315.0477664236289 0.891452815694789
2.0671722073021184 11.771945019201658 16.51401508688563 334.11921218430473 0.9217612895289881
