M[M_sun], R[km], Lambda[1], P_c[MeV/fm^3], rho_c[fm^-3]
0.24162668629717493 15.618656898711224 2160425.4255784233 3.5677272577965504 0.1711233750220791
0.25364502177880704 15.27726882924474 1723267.1025098392 3.7848390392825086 0.17388841527957907
0.2660417999548091 14.981249319386137 1383002.438559356 4.011442339112041 0.17666715482620807
0.278817867869471 14.723458627101628 1116411.1142167486 4.247792645560545 0.17945826152050626
0.29197371418302837 14.498345466919455 905855.7869191079 4.494515397000543 0.1822683062227524
0.305511091581802 14.301148391941652 738621.5441410067 4.7517669870170245 0.1850930106319035
0.3194282443764748 14.12808056678774 605058.0985670529 5.020228459815256 0.18793896620711464
0.3337261260692082 13.975933245709964 497640.8585691477 5.300125537780514 0.19080282850607658
0.3484103839795021 13.841948292241748 410957.9352208356 5.592184985289408 0.1936908565401717
0.3634745257014318 13.723916143084898 340626.3085027366 5.896576442036069 0.19659815678376827
0.3789284784005484 13.61995268990981 283247.4159167121 6.214163061478458 0.19953239029521938
0.3947635820910487 13.528360875879853 236368.75882337635 6.545199991622623 0.20248969488799975
0.4109900093793311 13.447797308827605 197834.99325689508 6.890394231338702 0.20547385923366773
0.427600681189067 13.376979637885587 166050.71716384872 7.2504489665867045 0.2084879208860316
0.44459700508853306 13.314860429013818 139778.67453064348 7.62562003413381 0.21152737595654134
0.46197995086303095 13.260533679716909 117960.00299473772 8.01686276914747 0.2145984836511523
0.47974654783630133 13.213097757449193 99790.75101584244 8.424879469846994 0.217702845286627
0.49790581022642555 13.171954012921749 84626.04079476814 8.850106884681376 0.22083786856657214
0.5164452409304835 13.136362105791335 71924.49116697568 9.293426627383713 0.2240070779464574
0.5353670522286975 13.10579368493562 61261.45615079366 9.75571991277502 0.22721333733888546
0.5546744393664956 13.07977336856716 52290.98282102419 10.237795633349975 0.2304579857568742
0.5743597722977622 13.057805504320095 44717.33480512827 10.740121704076207 0.23373767768699222
0.5944185890188737 13.039493065747623 38319.425485438085 11.263952355701383 0.23705871893280459
0.6148581038376072 13.024475474963827 32892.22271692595 11.810220662717308 0.2404226629112273
0.6356644161769287 13.012418359679748 28283.941383733512 12.379905977144066 0.24383114319502353
0.6568371425796072 13.002999061531257 24364.006417388522 12.97368910451735 0.24728201645090372
0.678370858766142 12.995973320039132 21021.97471507034 13.59291345858328 0.2507802525761681
0.7002613424607599 12.991061094922907 18167.471938798535 14.23876931503814 0.2543283999257187
0.7224973120481452 12.988007322973617 15724.20725229298 14.912446814318862 0.25792844398525194
0.7450884474195365 12.986645002332352 13629.738756360946 15.614963731830656 0.2615801600882503
0.7680117694610087 12.986762054514681 11832.72540943854 16.347610422080386 0.2652856827241014
0.7912584541318934 12.988150125878699 10286.622992632834 17.11199203537262 0.26904958715810195
0.8148365416486373 12.990674152270318 8953.436855585263 17.90956421338811 0.27287430714263594
0.8387210624830157 12.994132318804528 7755.327381346321 18.74167402081375 0.2767607578590836
0.8629042444551878 12.998416805697575 6811.632304122918 19.609703005039254 0.2807097491830964
0.8873880068070956 13.003364945042753 5953.24324716996 20.51572008452211 0.28472748243646956
0.912146447462725 13.00885665745658 5209.30340540427 21.46152017229798 0.2888169725269712
0.93716786620949 13.014754383523316 4563.519458666803 22.448564038176855 0.29297795050711756
0.9624538671994111 13.02096863518953 4002.988563263952 23.47892471706472 0.29721459485994356
0.9879775574163897 13.027357180275944 3515.064766813606 24.555002853163717 0.3015328227082494
1.013722633863194 13.033804390857151 3090.572717264192 25.67871287815491 0.30593405540063356
1.0396890268541592 13.040271557922656 2720.3586538162863 26.85207305484579 0.3104199716199958
1.0658430145117643 13.046596353694955 2397.3091377957408 28.078154241336275 0.3149991043310848
1.0921777929198815 13.052724994516465 2114.806450475704 29.35897765242636 0.3196716631081317
1.118678247460899 13.058555234448077 1867.5986987395393 30.697368301232977 0.3244428038003681
1.145311622693334 13.06401094832702 1651.2459031830197 32.09665621559829 0.3293201090777182
1.1720769555427448 13.069020114629897 1461.4185233863998 33.55885734561848 0.33430175970646736
1.1989344781639646 13.073485223445267 1294.8125034410448 35.088480227535086 0.3394010900781768
1.2258830799391884 13.077343638546266 1148.550404454643 36.68750534893287 0.3446145968781672
1.2528808082124403 13.080502026907796 1019.7056918366395 38.36102785592878 0.34995697976065493
1.2799252710822575 13.082943725993655 906.2775139611233 40.111336017552546 0.3554250896958178
1.3069707374497823 13.084523798572706 806.4153812283856 41.94381225979695 0.3610329634254119
1.3340097124882162 13.085237365068462 718.2803505297891 43.862034800180524 0.3667830568834466
1.3610205241037139 13.085032197583924 640.3321454776326 45.87060080557542 0.3726826104555796
1.3879530056972478 13.083766233737887 571.5459694148198 47.97489181353356 0.37874184269473077
1.4148032663834837 13.081458425946584 510.5772637045622 50.179720823808054 0.38496668416292745
1.4415345489769278 13.078015831215657 456.6612879831806 52.490205102938596 0.3913635664558213
1.4681314444990001 13.07341203862274 408.81531531689126 54.91281544240232 0.39794445563322906
1.494541569752979 13.067541729619212 366.35710945593604 57.45374480425567 0.4047184179076355
1.5207543655920392 13.06039042421125 328.69082487926335 60.11962453671405 0.4116952300051124
1.5467383551800429 13.05189688264508 295.14264793733906 62.917563841027345 0.41888543767431535
1.572455610835881 13.04200946984762 265.3400198766877 65.85519301749575 0.4263004189734432
1.5978693066625744 13.03066764818059 238.7949372029815 68.94071087433787 0.43395245289441253
1.6229673453249562 13.017846266423902 215.12863746072054 72.18293673082546 0.4418547939519978
1.6477201875615293 13.003497599461772 193.9898799950465 75.59136750019671 0.4500217534415823
1.672067844711092 12.987556809301072 175.14076621787285 79.17585361504052 0.45846717304378687
1.6960048469506501 12.969995647811258 158.28428075934224 82.94677577534453 0.4672051033494323
1.7194852426347962 12.950777152922187 143.20694873878 86.91678934712279 0.4762567262713157
1.7424653412390316 12.929825468242063 129.70591871137134 91.09738258814487 0.48563601005348045
1.7649481299773937 12.90716983009197 117.61266957592721 95.50284408402803 0.4953656494987035
1.7868746752033187 12.882728764341776 106.76870548229523 100.14665481539703 0.5054624089812105
1.8082112242482677 12.85645764921499 97.03694714636674 105.04544714148479 0.5159523880668812
1.8289239836188298 12.828322719263005 88.28441203481651 110.21577304466983 0.5268581398640909
1.848997019053762 12.798332248558314 80.42173649676432 115.67539644011092 0.5382034988314917
1.8683702579132428 12.766384015695554 73.34559958417628 121.44430367441457 0.5500169450429658
1.8870463257843029 12.732554944817656 66.97227565995885 127.54393589560874 0.5623283284251386
1.904968541195571 12.696725033321957 61.22624921420844 133.99695142810592 0.5751676952749644
1.9221078332080856 12.658894561718967 56.04583234455031 140.82897207838315 0.5885710791627085
1.9384179171984708 12.618993757625898 51.364108640176546 148.06768699121986 0.6025767445134806
1.9539112519805946 12.577135132342224 47.13939474303426 155.7414846222527 0.6172200348106892
1.9685235616702308 12.533196538684043 43.318829152609425 163.88415832115385 0.6325490098891379
1.9822348241321932 12.487182078972118 39.8587877569447 172.52965568281454 0.6486057631136546
1.9950195210323232 12.43908944454441 36.72659307896462 181.71700618433877 0.665442525380457
2.006851720130483 12.388915074002064 33.88425284903342 191.4883886070363 0.6831142427683102
2.0176938752808145 12.33662735716686 31.311566898650934 201.8898730438561 0.7016801957369093
2.0275272377470754 12.282231198911274 28.9769801056614 212.97127918575902 0.7212025557888319
2.036330508958631 12.225747086548738 26.855836230306583 224.7884706173739 0.7417528013409501
2.0440704367101303 12.167138146985193 24.930395792397807 237.40231828758007 0.763407007282822
2.0507244014547137 12.106414034210891 23.176608439485037 250.87991272897523 0.7862483904382206
2.056290800118944 12.04365189215603 21.582558675532574 265.29458316393453 0.8103657302992644
2.0607323640731 11.978787216357285 20.132760691845032 280.72765810844567 0.8358572324532129
2.0623696689920203 11.919816032309095 19.010278212318433 298.86448774384087 2.035350047161746
