M[M_sun], R[km], Lambda[1], P_c[MeV/fm^3], rho_c[fm^-3]
0.24162668629717493 15.618656898711224 2160425.4255784233 3.5677272577965504 0.1711233750220791
0.2536454087206574 15.277267333675452 1723087.801585505 3.784856023771889 0.17388862698304564
0.2660434216919742 14.981203341781297 1382917.3860218648 4.0114780443118105 0.1766675863024755
0.2788213828664062 14.723387954846782 1116420.089817234 4.24784827985867 0.17945890679452542
0.2919783068902079 14.498290139594287 905780.8819215544 4.494592420723303 0.1822691638997816
0.30551560043903436 14.301089420695968 738539.8764932203 4.751868015985117 0.18509410193757558
0.31943499679082127 14.127966032366109 604984.3603789967 5.020354238694174 0.18794027121152962
0.33373658580960336 13.975750847134053 497560.31972273486 5.300279378578468 0.19080437742764392
0.348419501196587 13.841871471811867 410909.9234279315 5.592367272581678 0.19369262021986994
0.3634856981545508 13.723804494510121 340561.40571126627 5.896791271863026 0.19660017451096587
0.37894046157476224 13.619867946089382 283204.9793639015 6.214413034262912 0.1995346697460268
0.3947781957106912 13.528283040428972 233231.14759533788 6.545484848299475 0.20249219269623323
0.4110052737368347 13.447722725460572 195312.55529401544 6.890719471967416 0.2054766291193438
0.4276164421782935 13.376923723268016 166022.16913503996 7.250817643994491 0.2084909708597423
0.4446149724004518 13.31479659608109 139754.2908577193 7.626031129768226 0.21153064854212492
0.46199744799626447 13.260452138096438 117929.85025871475 8.017323454705458 0.21460204742639163
0.4797689973521169 13.213042178261537 99767.71412513396 8.425393338652798 0.21770670886167123
0.49792910514776617 13.171920418627876 84607.85741104315 8.850672042377656 0.22084196054976651
0.5164720929430585 13.136314577325761 71908.71272484296 9.294052221569652 0.22401148216852768
0.5353937833758868 13.10577062221512 61248.004023565205 9.756410186302215 0.22721806331683572
0.5547033828326958 13.07975724168104 52277.35453650145 10.238547700806528 0.23046294845190085
0.5743915778900711 13.05778997814776 44708.15272481229 10.740947038073672 0.23374297658691243
0.5944516791822116 13.039469192541688 38305.66206412443 11.26485598421815 0.23706436482012969
0.6148938131712189 13.024460742790621 32885.023937704726 11.811207925450264 0.24042866711585514
0.63570115283336 13.012404572736559 28275.876481301217 12.380982546983757 0.24383751764492903
0.656877241603743 13.002988258631058 24356.400785508333 12.974850037586569 0.24728865186826435
0.678413929491316 12.995966970026121 21015.548162941584 13.594175243622884 0.25078727785721616
0.7003082816419139 12.99104648412628 18161.84599774855 14.240138719465463 0.2543358290115707
0.7225478106856786 12.987986318065863 15719.109090266842 14.913931040451326 0.25793629164829757
0.7451392634875685 12.98663729077208 13625.378572748952 15.61655596060358 0.2615882985055704
0.7680643280718572 12.986755264634027 11827.999828733624 16.349332220121344 0.2652942654554937
0.7913145929613669 12.988150997064539 10282.910467058471 17.113852046554438 0.2690586317626265
0.8148931279802394 12.99068833595197 8950.098334055223 17.911571654766995 0.2728838323084398
0.8387819199726788 12.99414551848866 7802.178107421839 18.74381998761761 0.2767706174661943
0.8629676957077738 12.998431596315264 6809.38917342894 19.612015406310853 0.2807201234692469
0.8874537275683747 13.003385857104306 5950.9928737775945 20.518210053118473 0.28473839386493455
0.9122150548270153 13.00887270999119 5207.457891398645 21.464199603567952 0.2888284450757408
0.9372402911730577 13.014773816145986 4562.309226284189 22.451421768998447 0.29298981989400524
0.9625280440990701 13.02098740960022 4001.4641381189754 23.481996618520323 0.2972270707645056
0.988036944418352 13.027365545041222 3514.0807511531166 24.548112508410973 0.3007297951124531
0.9975002722655136 13.019203060021606 3327.2501179629908 26.08585008960965 1.0496537388163591
