M[M_sun], R[km], Lambda[1], P_c[MeV/fm^3], rho_c[fm^-3]
0.24162668629717493 15.618656898711224 2160425.4255784233 3.5677272577965504 0.1711233750220791
0.2536439269167589 15.277300468159858 1723200.9641032168 3.784818667162861 0.17388816135093552
0.2660397834516292 14.981272739049341 1383063.366736743 4.011399512654754 0.17666663729374618
0.27881495940935497 14.72351964912013 1116453.2350733967 4.247725915678299 0.179457487554432
0.29196933519349816 14.498412786219141 905900.8465777382 4.494423012442 0.18226727749925167
0.3055041680459713 14.301256407189003 738637.9599273393 4.75164581065863 0.18509170169596428
0.3194207319015197 14.128128827269986 605120.0440192668 5.020077598824829 0.187937400966112
0.33371880463998616 13.975998123948372 497695.2978199096 5.299941020124444 0.19080097071945012
0.34839940679451864 13.842040083556121 411013.58775633946 5.591966350050918 0.19368874118409485
0.3634610499045127 13.72401866983155 340654.26158173854 5.8963187769470755 0.19659573673872469
0.3789152280358032 13.620013291982765 283307.8427245999 6.2138632481164136 0.19952965635835634
0.39474646761104015 13.528471863643114 236409.42501039122 6.5448583410497205 0.2024866990740227
0.4109719485789557 13.447879072895207 197867.82434980766 6.8900041475959695 0.20547053711682234
0.4275789593671604 13.377075430273406 166082.28138402323 7.250006788812367 0.20848426286262497
0.4445743532722734 13.314934717446693 139804.81589221026 7.625126984257618 0.2115234509624968
0.4619547902241364 13.260592785619389 117985.63209065767 8.016310246662682 0.21459420944303723
0.47972007348634826 13.213181656655127 99816.0064918972 8.424263165835555 0.2176982115420382
0.49787667932033325 13.171993605610588 84648.07561874084 8.849429071383868 0.22083296090869084
0.5164148199513674 13.13641262727196 71941.329227072 9.292676334964632 0.22400179584105182
0.5353329808997401 13.105847675532626 61280.31079691524 9.754892053542443 0.22720766937636783
0.5546385106554176 13.079836145752703 52302.68974163119 10.236885770758466 0.2304519323794712
0.5743215153105216 13.057844058318478 44731.48497802915 10.739131874927084 0.23373132267724414
0.5943772413079345 13.039528571628765 38329.01830841469 11.262868633710887 0.2370519478181966
0.6148141345782798 13.02450897355502 32903.11856998599 11.809036645115288 0.24041546210871725
0.635617968323002 13.012438311209943 28292.792314307226 12.37861486167979 0.24382349840455494
0.6567880070015136 13.003029295781822 24372.352851994692 12.972296820240805 0.247274058724912
0.6783205006000715 12.995978464972733 21029.17640549269 13.591400233329065 0.25077182734336995
0.7002070104349836 12.991060074096652 18173.39617401494 14.237127034287049 0.25431949047249247
0.7224408940271596 12.987996407688454 15730.83770368082 14.910666842142922 0.25791903260139215
0.7450275139898241 12.986642210095924 13634.856990105198 15.613054245693569 0.2615704000617297
0.7679484339495066 12.986752764125274 11836.993762589089 16.345545561584338 0.2652753899124135
0.7911918821823922 12.988137288815267 10289.328202594816 17.10976143629684 0.2690387405101407
0.8147653417191559 12.99066923250236 8956.995559622384 17.907156824330485 0.27286288425369404
0.8386485362536161 12.994125396917175 7807.891109355832 18.739100519918757 0.27674893395403627
0.8628279762046959 12.998407843806634 6815.174080763949 19.606929927853503 0.28069730813465216
0.8873035628923859 13.003343139199417 5955.80568666604 20.512734082835014 0.2847143973140898
0.9120631609947963 13.008840606464705 5211.547130747828 21.458306983783796 0.28880321458425107
0.9370827913107541 13.014736797131102 4565.578814739949 22.445137048479793 0.292963716742948
0.9623606114268572 13.020932567334311 4004.674311071891 23.475240916260233 0.29719963385031267
0.9878853643548768 13.027326642735897 3516.780127076094 24.551044900032437 0.30151709963938733
1.0136262243915732 13.033795977474522 3092.05502220096 25.674496094287385 0.30591778201958203
1.0395914626159863 13.040240801093384 2721.7041292385256 26.84754588466804 0.3104028687862697
1.065741355002464 13.046569639339161 2398.471999009241 28.07329549097374 0.3149811297007472
1.0920724433084121 13.05269401595437 2115.9782581764107 29.353804543266254 0.3196530430914606
1.1185699036144587 13.058534246358033 1868.7229110252222 30.69181906597263 0.32442322851340577
1.1452001350521803 13.063996283917223 1652.1077967371148 32.09074896703813 0.3292998123535061
1.1719635110268802 13.069005195255116 1462.1683604857058 33.5525227859936 0.3342804115874111
1.1988179345203527 13.07346109426691 1295.525462733115 35.08168845580152 0.33937863153030734
1.2257645471121301 13.077324192443095 1149.1507319135649 36.68027607576368 0.3445912763619908
1.2527594078744937 13.080495974122497 1020.2485811922028 38.35333174032188 0.3499327454304088
1.2798006744204433 13.082935601991855 906.7787360343991 40.10308557651344 0.3553995655875371
1.306844157217174 13.0845216063129 806.8343362632479 41.9350272296914 0.36100640494847663
1.333876039359452 13.085240713454432 715.6599845554582 43.85261667636965 0.3667550613487857
1.36088815215884 13.085033093165368 640.6678660524888 45.86056932383835 0.372653440269362
1.3878187218509328 13.083779914342996 571.849841795477 47.96420412222028 0.3787114220751914
1.4146757030225983 13.081486817633717 510.87481656392356 50.168259716676154 0.3849345688777037
1.4413985744205515 13.078033637049225 456.92312216294886 52.47798877583253 0.39133002499865027
1.4679926784760844 13.073440343027288 409.05669176742396 54.89978979720098 0.3979093929389583
1.4944011471216048 13.06757462177954 366.5730481502164 57.43985136054452 0.4046817315616237
1.5206128505546712 13.060433040606968 328.86896795667434 60.10480003939817 0.41165680963962636
1.5465960396479184 13.051945908325935 295.31771504484067 62.90173982879009 0.4188451643051068
1.5723116158841606 13.042068510769006 265.48977149232496 65.83829534774006 0.42625816427007884
1.5977360071627098 13.03074334351797 238.94178227936382 68.9226591997197 0.43390807837718764
1.622823274486352 13.017925865830637 215.25770500516506 72.1636439218881 0.441808150107406
1.6475745240511392 13.003588562904323 194.11760144570823 75.5707390079294 0.4499726787473389
1.6719237350919274 12.987654276443283 175.25082413935135 79.15389449469536 0.4584159426672502
1.6958639031473175 12.970108146426812 158.37348886063154 82.92327175645988 0.4671510911824902
1.7193414873355493 12.950900836087401 143.29136430225466 86.8916194232388 0.4761997287775566
1.7423275119005108 12.929962327434508 129.78995838301356 91.07053628299462 0.48557628690629084
1.7648072571325895 12.90731918043603 117.68606612830767 95.47406274614968 0.4953024968168379
1.7867340875112487 12.882885596642112 106.83597789148156 100.11591338308975 0.5053960703039707
1.8080732854024584 12.856635929293729 97.09264477737483 105.01258618697067 0.5158826077610912
1.8287843294686308 12.828504487747507 88.33902948499968 110.18061866978269 0.5267846414175386
1.8488648008957367 12.798543559646081 80.47206542763203 115.63761515864617 0.5381254557413034
1.868251753139168 12.76663776749418 73.38607677093947 121.40382673979268 0.5499345488372174
1.8869218367493141 12.732793030538932 67.01475795656505 127.5006485000223 0.5622416270265771
1.9048455762959347 12.6969824259656 61.263949979315264 133.95053948209272 0.575076063682753
1.9219888839836512 12.659170342915475 56.08069515124718 140.77912196111828 0.588473952177235
1.9383039345193487 12.619298739312802 51.39674443769935 148.01410013864188 0.6024736675364347
1.9538018648904119 12.577448029244737 47.167456450744865 155.6840096377582 0.6171111139617451
1.968419700582992 12.533526349550678 43.34323407082397 163.8224468658729 0.6324337323778151
1.982136279011297 12.487530833306232 39.883707496940524 172.46313946783079 0.6484829481954195
1.9949265840117765 12.43946200433913 36.74770172274523 181.6454440570417 0.6653121739733203
2.0067656355065 12.389306604081522 33.906347504111004 191.41131579254625 0.6829756880453521
2.017614680394554 12.337040378519518 31.330912277894196 201.80677683745023 0.7015327081673037
2.0274528802194016 12.282659978002458 28.994778087464603 212.88180298104578 0.7210460225218773
2.036265573297183 12.226201516196543 26.872362625168588 224.69178611285489 0.7415856798731574
2.0440135941172155 12.167613242323805 24.945038122924245 237.2979544045332 0.7632290572751974
2.050674807145427 12.10691513433883 23.189996710552883 250.76711536180295 0.7860585954327137
2.056249606687878 12.044176568054086 21.593789708685748 265.1723276920349 0.8101623606382206
2.0606993569083993 11.979333621411167 20.143435479933025 280.59539111951517 0.8356402838064948
2.0640081919334516 11.912441795018598 18.82327905083711 297.12592036390964 0.8625990093028569
2.0661715089105104 11.84355188338424 17.619926847609218 314.8643112440823 0.8911591400351915
2.06716634656696 11.772669110908058 16.52439343360788 333.9199698889203 0.9214466022387906
