M[M_sun], R[km], Lambda[1], P_c[MeV/fm^3], rho_c[fm^-3]
0.24162668629717493 15.618656898711224 2160425.4255784233 3.5677272577965504 0.1711233750220791
0.2536438366652181 15.277302602004056 1723229.9053729852 3.7848170490585105 0.17388814118204537
0.26603964327797475 14.981260387543045 1382946.2085728627 4.0113961110749425 0.17666659618766165
0.278814558903481 14.723524236512807 1116463.5541879763 4.247720615540679 0.17945742608082274
0.2919681828467893 14.498452426675462 905915.9438795273 4.494415674665314 0.18226719579140527
0.30550451709089166 14.30119570180451 738642.6029786355 4.751636186089633 0.18509159773225034
0.3194204460412527 14.128142076658389 605117.568830951 5.020065616564998 0.1879372766455415
0.33371895358246934 13.975917926844431 497686.01260136324 5.299926364712137 0.1908008231637659
0.3483985364340496 13.842047457597788 411018.0342868098 5.591948984893696 0.19368857317142174
0.3634597609054624 13.724034598036319 340661.81589557935 5.896298311911161 0.19659554452677652
0.3789142194122934 13.62001023851602 279402.83371155296 6.213839435544739 0.19952943921637487
0.3947460068899098 13.528471889141924 236411.0938212368 6.544831205664388 0.20248646113335145
0.41097009778273014 13.44789479954225 197877.60059060503 6.889973165549113 0.2054702732607102
0.42757757499548055 13.377076721916882 166083.9682599574 7.24997166937167 0.20848397232849242
0.4445726352472049 13.314962370321368 139811.98250796704 7.62508782448822 0.21152313922555274
0.4619537103263978 13.260581698070967 117986.97131564199 8.016266363524316 0.21459386997148397
0.47971783584869626 13.213164723039544 99817.04142352285 8.424214217134 0.21769784351623153
0.49787491586250976 13.171992265914037 84645.29900513453 8.849375237599387 0.2208325711290898
0.5164129738524885 13.13640481723823 71941.41113670684 9.292616744898961 0.22400137632327446
0.5353292536189217 13.105869548711059 61279.85554303095 9.75482630315958 0.22720721921444303
0.5546360314365482 13.07983871234662 52303.4901783937 10.23681343147157 0.23045145062804012
0.5743178591045662 13.057849613041823 44732.33225676485 10.739053261049557 0.2337308179517989
0.5943742152455351 13.03953184825075 37996.31328055633 11.262782563004698 0.23705141004686678
0.6148104141569343 13.02452910831377 32904.1063665902 11.8089426091164 0.24041489021294843
0.6356144852420927 13.01245287356485 28294.19807242472 12.378512320202399 0.24382289124885845
0.6567832313717289 13.003029020924087 24372.246282179887 12.972186244171533 0.2472734267174439
0.6783156492861624 12.995982070461293 21029.2867521569 13.591280052465374 0.2507711582085193
0.700202479057279 12.991055344175091 18173.357973582028 14.236996604239552 0.25431878288311915
0.7224365511549597 12.98800529143605 15731.0447138366 14.910525477118975 0.2579182851512226
0.7450226157882 12.986644271761357 13634.993769117806 15.612902595128698 0.2615696249246359
0.7679428361421274 12.986754273629597 11837.54357871403 16.34538157181854 0.2652745724645611
0.7911865425573728 12.9881333921999 10290.012911270876 17.109584284300578 0.26903787907997156
0.8147590741384386 12.990673271804607 8956.990324827231 17.90696563250823 0.2728619770621683
0.8386440710548533 12.994122986427666 7808.3024005295965 18.7388961362805 0.2767479949169694
0.862822746794742 12.998397636772744 6815.266270696617 19.606709694927037 0.2806963200884048
0.8872971656183555 13.003337793968957 5955.925437538351 20.512496940647125 0.284713358120253
0.9120569250725111 13.008846902726967 5211.733676288916 21.458051799777028 0.288802121960232
0.9370757700122377 13.014731790059606 4565.492529208974 22.4448648856535 0.29296258633351363
0.9623539103342211 13.020933415504476 4005.0125552476616 23.47494835918679 0.2971984456891102
0.9878787286054477 13.027323273586806 3516.947888060766 24.550730571679487 0.30151585096205974
1.013619911604075 13.033779559614931 3092.1124289242366 25.674161211371306 0.3059164896419141
1.0395831400870974 13.040237071811816 2721.7541232458625 26.847186353211537 0.3104015105411677
1.0657333343782984 13.046569016816152 2398.607735230965 28.072909628034488 0.31497970222594884
1.092064319704757 13.05269737933707 2115.8807796686615 29.35339371640154 0.3196515643669966
1.1185614391094176 13.058533354302998 1868.8160528749208 30.691378370378363 0.32442167393114063
1.145191714212073 13.063986492012692 1652.3139097870624 32.09027984104162 0.3292982004827891
1.1719545490355643 13.069003312627085 1462.2637012130444 33.55201972687139 0.3342787162263017
1.1988088400745152 13.073461543485498 1295.5924383058607 35.08114908925489 0.33937684799136025
1.2257546631759144 13.07733035611412 1149.2353475121276 36.67970196697718 0.34458942437591566
1.252749741101163 13.0804956270918 1020.2638134684321 38.352717362100464 0.34993080212412214
1.2797896653963214 13.082935879160495 906.7440222513904 40.102430376950245 0.3553975386189766
1.306833179677646 13.084525682719589 806.8378664444646 41.9343295786325 0.3610042958436319
1.3338707233469984 13.085234156369385 718.6953917026079 43.85186875212214 0.3667528381311242
1.360877585388066 13.0850333306959 640.7072294110465 45.859772693531404 0.37265112377664344
1.3878082494337725 13.083777857223678 571.872856736139 47.96335538327172 0.37870900629016485
1.4146644062040785 13.081489745940713 510.8821827572589 50.16734956256593 0.38493201852558584
1.4413868958004061 13.07804146180586 456.9450716968454 52.47701865138292 0.3913273614003859
1.4679815472388322 13.073439893262858 409.07937563047005 54.898755406889485 0.39790660854627075
1.4943900622858102 13.067577170344068 366.5771797850075 57.43874806090956 0.4046788182427227
1.5206012237330768 13.060435870433357 328.88639563495093 60.10362280788766 0.41165375863128983
1.5465842480610277 13.051951081893888 295.3309104621371 62.90048322950152 0.4188419661600133
1.5723003251939398 13.042072575213666 265.501849633549 65.83695349370612 0.4262548087988818
1.5977245962052335 13.03074836186504 238.9596363734053 68.92122571135144 0.433904554584762
1.6228109560518287 13.01793193820455 215.2672525922719 72.16211188113918 0.4418044461226294
1.6475635867024137 13.003593785738664 194.12243924227374 75.5691009076917 0.4499687817456936
1.6719129046341108 12.987663001889764 175.25979590835416 79.15215073621575 0.45841187449866716
1.6958500149253455 12.970118995987367 158.3850269602539 82.92140532708463 0.4671468021332218
1.7193301662452996 12.950911922296328 143.30089247226408 86.8896207153469 0.4761952026875645
1.742315986594202 12.92997390070968 129.79364532630936 91.06840446462894 0.48557154439512135
1.764796162861518 12.907332539822304 117.69616372639162 95.4717772813206 0.4952974819966834
1.7867235663955106 12.882901275559297 106.8380618738929 100.11347228179623 0.5053908025132835
1.8080624776050687 12.856650008243356 97.09785426937448 105.00997679120694 0.5158770667037174
1.8287746727768048 12.828519176773918 88.34384684269229 110.17782717274709 0.526778805139797
1.8488542738103857 12.79855998426903 80.47678507914826 115.63461508351332 0.5381192586213254
1.8682413204868653 12.766655716984879 73.39141969119035 121.400612628237 0.5499280060839304
1.8869118331151025 12.732811967916703 67.01870046337798 127.49720230731172 0.5622347105453046
1.904835482368069 12.697002796672479 61.26478621850121 133.94685413033844 0.5750687876540984
1.9219791595478188 12.659191789018484 56.0825629879745 140.77516362181998 0.5884662398270015
1.9382946881018257 12.619311021931322 51.39945453838184 148.0098451081744 0.6024654827736297
1.9537930407058182 12.57747356642805 47.16936705208183 155.67944589596033 0.6171024652142012
1.9684113833618468 12.533555600482567 43.34631350306094 163.81754675756594 0.6324245789347749
1.9821280605006664 12.487559890229784 39.88522921863057 172.4578578768597 0.6484731963151686
1.9949191518717089 12.439491876646386 36.74978073614686 181.639761837774 0.6653018237321358
2.006759144514303 12.389337387092143 33.909071056757256 191.4051960467962 0.682964686505022
2.017607795504401 12.337073319809972 31.331553692935987 201.8001788623032 0.7015209974122543
2.0274465073606307 12.282695336760998 28.994571964540093 212.87469846531536 0.7210335935966566
2.036260771803637 12.226237408403334 26.874504404633704 224.684109300737 0.7415724103206527
2.0440078520429292 12.167651654816051 24.945758625947818 237.28966789776374 0.763214928019944
2.0506707241782314 12.106954681623504 23.19082310678107 250.7581592949122 0.7860435257834173
2.0562454398185777 12.044218390317694 21.594973854118745 265.1626172136913 0.8101462018380898
2.060695993737991 11.97937743627201 20.144067363228494 280.58488932104206 0.8356230584127267
2.0640056210587745 11.91248825696505 18.823719325811883 297.1145267076803 0.8625805495382374
2.0661708149411884 11.843598463939962 17.621339736930906 314.85193424281556 0.8911393268905323
2.067166667806381 11.77271781372749 16.52512074290098 333.90652791326596 0.921425371711982
