M[M_sun], R[km], Lambda[1], P_c[MeV/fm^3], rho_c[fm^-3]
0.24162668629717493 15.618656898711224 2160425.4255784233 3.5677272577965504 0.1711233750220791
0.2536445116434295 15.277254022386805 1723220.4337672703 3.7848294651628005 0.17388829594279565
0.2660402641755382 14.981259511355754 1382998.8162316428 4.011422212268799 0.17666691160518552
0.27881711430344214 14.723490688159144 1116393.9414292965 4.247761284934652 0.17945789778450535
0.29197136723790745 14.498387876363267 905901.8562219389 4.494471979523972 0.1822678227590741
0.3055083166334972 14.301185440692333 738640.0597108223 4.751710038302341 0.18509239547709666
0.3194246127666315 14.128109789292685 605068.2885789569 5.020157560216427 0.18793823059641207
0.3337225388084317 13.975931718372522 497647.985894283 5.300038820515871 0.1908019554071116
0.34840521630350285 13.841992080154297 410984.77950878453 5.592082233696223 0.19368986239024166
0.36346914602448266 13.72393948624181 340646.5675706847 5.896455347434361 0.19659701943764268
0.37892280486369756 13.619967395243792 283290.50859534735 6.214022158238013 0.19953110542732508
0.39475580655839726 13.528421873451443 236399.92152184944 6.545039425886628 0.20248828694340876
0.41098132551096067 13.447845582881227 197851.4093935887 6.890210903106887 0.2054722979335149
0.4275905238680325 13.377023912543537 166071.60698480386 7.250241155276113 0.20848620171631657
0.444586152406682 13.314914296528048 139792.76849249867 7.625388313974592 0.2115255313150784
0.46196841054508203 13.26054680426121 117973.77382275443 8.016603098009705 0.2145964748849666
0.4797345270609505 13.213120899687606 99799.62145830832 8.424589822552646 0.217700667543893
0.4978915436086448 13.171962963221976 84633.09345892562 8.849788329090753 0.22083556208798769
0.5164315979951802 13.136373718924295 71931.5363472608 9.293074007780925 0.2240045954824705
0.5353507947269303 13.105823617450877 61269.362056061116 9.755330837946573 0.2272106735266606
0.5546585854391993 13.079817058993568 52301.79295186203 10.237368527085149 0.23045514734828307
0.5743418244863845 13.057827732145174 44723.63198991273 10.739656505628233 0.23373469096885577
0.5944001546699492 13.039503575612704 38321.667882964284 11.263443028770872 0.23705553664892584
0.6148381846300575 13.024485574544254 32896.953337420135 11.809664197981181 0.24041927867719073
0.6356425631601877 13.012424859741676 28288.606203094714 12.379299177515426 0.243827550289396
0.6568142950373669 13.003029093194945 24368.308248671055 12.97303475654672 0.2472782764662316
0.6783466884322847 12.99597199906004 21025.247607312805 13.592202269383034 0.2507762928652401
0.7002357618411594 12.99106407575654 18169.97989586591 14.237997470728324 0.2543242126326681
0.7224713460705325 12.987998382936484 15727.693466250861 14.911610255945515 0.257924020785789
0.7450603843385356 12.98663828513173 13632.174202335731 15.614066302720024 0.26157557302592505
0.7679814638988778 12.986762804880145 11834.632312903927 16.34663996777347 0.2652808452527798
0.7912272437472601 12.98814774572978 10287.341739380608 17.110943684576828 0.2690444893831834
0.8148018734032743 12.99067841929025 8955.016501710797 17.908432771817473 0.2728689385332852
0.8386869066814562 12.994129689433128 7806.376758809929 18.740464507159068 0.27675520076965954
0.8628665868061595 12.998416611894699 6813.039725516366 19.608399690765996 0.28070390203390955
0.8873508331915757 13.003372587082515 5954.507013187823 20.51431669578155 0.28472133256940957
0.9121069663711106 13.008857264343993 5179.511983285878 21.460010005579726 0.2888105064304083
0.9371289216236399 13.014741070964522 4564.463323923069 22.446953384768328 0.29297126076982555
0.962413100037487 13.020952323176187 4004.0625514587705 23.477193361794622 0.2972075633117559
0.9879347593124154 13.027338304381239 3515.9836192139624 24.553142645345215 0.3015254329856686
1.0136782584596358 13.033796900231131 3091.6158870110708 25.67673101904196 0.30592640702463214
1.039642725133309 13.040253838831605 2720.946672900503 26.84994531253062 0.31041193339267065
1.0657946620949361 13.046587221343607 2397.6789916174475 28.075870654250874 0.31499065634947615
1.0921268893712226 13.052712147558283 2115.2116625843646 29.356546314816242 0.3196629117855842
1.1186276594065956 13.0585451540681 1868.2621008039232 30.694760181299458 0.32443360348830064
1.145258425616681 13.064009114925055 1651.7779956246366 32.09387982661244 0.32931056967862615
1.1720238693181264 13.069014929631537 1461.7829393086397 33.55588011615362 0.3342917261362056
1.198880654619556 13.07347489069285 1295.1606429258652 35.08528810331284 0.3393905345887607
1.225826884601159 13.077341197468739 1148.856695578856 36.684107594330996 0.3446036362477826
1.2528219995157086 13.080498062410177 1019.835409811923 38.35741067995346 0.34994558962027483
1.279867076652256 13.08294168721267 906.5239333168951 40.10745830089165 0.35541309333593046
1.3069111108704143 13.084518242871821 806.6123795243226 41.93968327898943 0.36102048089089295
1.33394923064754 13.085240649448874 718.4413325525227 43.85760825519426 0.36676989890250694
1.3609580902060365 13.085029782686584 640.4973735965939 45.8658859727304 0.37266890036212796
1.3878896391978262 13.083769754317842 571.6800645870004 47.96986855124501 0.3787275448687132
1.4147409045376405 13.081460140682324 510.76524050552297 50.17433404128084 0.38495158980465044
1.4414476292153102 13.07802755358925 456.7886837068731 52.382249611176185 0.390896397159391
1.4622563564160156 13.069823118400288 417.4709076770374 55.14006465179871 0.6840601419569328
1.4745166905360068 13.0503378096302 391.85978252093827 58.274785860661524 0.9257931386694652
1.4809520341354436 13.019815854956914 373.553176397035 61.88540877172475 1.1495086775229548
1.4831261217715086 12.979147898777113 359.59893293184103 65.96512046670009 1.3572689078261395
