M[M_sun], R[km], Lambda[1], P_c[MeV/fm^3], rho_c[fm^-3]
0.24162668629717493 15.618656898711224 2160425.4255784233 3.5677272577965504 0.1711233750220791
0.2536402075320194 15.277383649222768 1723271.354737313 3.7847659579890274 0.17388750435651143
0.2660335527761498 14.981409114861478 1383093.2068293404 4.011288708462655 0.17666529829047684
0.2788055098869629 14.723719913500828 1116598.7652127773 4.247553268830301 0.17945548511116846
0.2919566809109752 14.498616797186042 906075.4110739956 4.494183993630232 0.18226461596930926
0.3054879627205478 14.301464364178662 725621.2411554868 4.751332305339782 0.18508831524018682
0.319399986553935 14.128400970081413 605229.7472328469 5.019687298779501 0.18793335145249973
0.33369474050040276 13.97617145408633 497847.7238666155 5.29946365131412 0.19079616440762825
0.34837174759487416 13.842206806565883 411179.7541773914 5.591400721777309 0.1936832685749487
0.3634291465734141 13.724232263744522 340788.51125788316 5.895652183377162 0.19658947595084983
0.37887662384041665 13.620269024658057 279508.69427384844 6.21308762426591 0.19952258360275166
0.3947041175063808 13.528707006997825 233404.0426081373 6.543974493382331 0.2024789489239994
0.41092475064555484 13.4481004113885 197973.47512463527 6.888995015884848 0.20546194292770473
0.4275277324931338 13.377288064392566 166173.33237363386 7.2488629056169875 0.20847479981010175
0.4445176121067916 13.315126314582377 139896.51741308623 7.623851512226608 0.21151329738500416
0.46189254319750334 13.260758878884225 118056.11653436477 8.014880941719802 0.21458315261376062
0.4796520857995514 13.213348769413546 99878.71492889064 8.422668885052897 0.21768622477931626
0.4978010810688962 13.172161503194937 84699.71534840362 8.847675694002163 0.22082026570728677
0.5163337101950818 13.13655454033659 71991.64525644568 9.290735490117232 0.22398813217232855
0.535246780535721 13.105974478232156 61322.673325747965 9.75275058490536 0.22719300774853293
0.5545466493012746 13.079943887525072 52344.66099637049 10.23452972271253 0.2304362420185826
0.5742225074355914 13.057941077021624 44766.51752942321 10.736571484933668 0.23371488418037686
0.5942715390454116 13.039628510567898 38361.59086433525 11.260065403350202 0.23703443318417497
0.6147014761368159 13.024576713357087 32930.1694263683 11.805974018256402 0.24039683622753513
0.6354954513094762 13.012492285900505 28319.00097681175 12.375275249467807 0.24380372431283867
0.6566599187010781 13.003072655326486 24394.027140903498 12.968695558438418 0.24725347538921646
0.6781839483673163 12.996038421742899 21047.80841921679 13.58748619198552 0.25075003500980353
0.7000652413016006 12.991091478133919 18191.045894642346 14.23287923215517 0.254296445938613
0.7222915090542813 12.988008268135351 15746.13187491467 14.906062950107966 0.25789469008875315
0.7448703109514193 12.986659817892452 13551.930064582277 15.608115412895781 0.2615451560245247
0.7677828563406113 12.986754195525835 11848.339871819417 16.340204918320506 0.2652487681452229
0.7910186784183071 12.988123165130302 10301.034172133903 17.103992185789373 0.26901068659855504
0.8145864195145136 12.990630092388633 8966.996221341586 17.900930393491603 0.27283334028457473
0.8384580317853865 12.99410427921745 7815.8527478035185 18.73244452273702 0.2767183530908916
0.8626320764646384 12.998366554698153 6822.682425952142 19.59975783761342 0.28066513148894556
0.8870977626092811 13.003301651503993 5962.616012772654 20.50501138947308 0.28468055527435526
0.9118494121323425 13.00879291229236 5217.223425278891 21.449996814449964 0.2887676328456805
0.9368607537597348 13.014677458306037 4570.917484275746 22.436274015811858 0.29292690475109096
0.9621295278898339 13.020875221026294 4009.643653220997 23.46571381979197 0.2971609414807789
0.9876457517229117 13.02727730269682 3521.029777378846 24.540808908799157 0.3014764369054707
1.0133860187788772 13.033736539151784 3096.1645202080995 25.663590824415692 0.3058756964829108
1.039335354956417 13.040184746864462 2725.0635041108703 26.83583804797361 0.310358638687463
1.0654816323470846 13.046517509204353 2401.544570166415 28.06073029887016 0.3149346455913918
1.09180234330849 13.052634123168882 2118.676424719969 29.340426521317138 0.31960489042659107
1.118291758042285 13.05847641690077 1871.1790708266192 30.67746853358406 0.32437260608051377
1.1449155057790799 13.06393739136179 1654.2774994507395 32.075458713615866 0.32924723397079486
1.1716696638150448 13.068953748054566 1464.1869791949873 33.536141747448816 0.3342252057985594
1.1985162463688608 13.073412538107725 1297.2700323451186 35.064125301388756 0.33932055494004626
1.225455301882025 13.077286343073723 1150.6699898151846 36.66158176184084 0.34453097139909333
1.2524431740592938 13.08046150088894 1021.6581573453199 38.3332923157822 0.34986926783577943
1.279478631114096 13.082906701906078 908.0757060753988 40.08175111520801 0.3553335638916411
1.306514875458877 13.084506931509948 808.0267568324691 41.912310646098426 0.3609377292747277
1.3335450840938832 13.085229782460766 719.6968389167367 43.8282633535771 0.3666826706788352
1.3605478380690454 13.0850430969088 641.6004871480418 45.83463027782364 0.3725780130471043
1.3874730058116074 13.083796654670502 572.6944659641856 47.9365685916636 0.3786327624342837
1.4143226458696931 13.081523682254256 511.6124107049522 50.13862476177222 0.38485152846822335
1.4410492611436938 13.078107230406486 457.5912541247021 52.44640142890684 0.39124329797874846
1.4676324386024147 13.073509095980514 409.6674403803488 54.866110235238644 0.3978187336152928
1.4940371718500234 13.067664198115516 367.13487290627205 57.403928436760815 0.4045868752510439
1.5202457077654987 13.060542728682819 329.3657165394849 60.06647026959768 0.4115574711100729
1.5462256879634186 13.052080017748045 295.7676804913333 62.860826276603014 0.41874103606201907
1.5719401996856928 13.04222098907363 265.9011437661073 65.79460639747955 0.4261489146717467
1.5973564750135598 13.030912125129783 239.29049946880585 68.8759872042292 0.43379334956051985
1.6224489474398391 13.018130523050699 215.5807371755336 72.11376371119897 0.4416875557033902
1.6472006142229259 13.003818185586882 194.42103839377435 75.51740624279122 0.44984580136297186
1.6715494783947604 12.987918078546464 175.52306153562256 79.09712222451955 0.458283493610447
1.695488972640528 12.97040255623326 158.63722096877814 82.8625062757627 0.4670114522848259
1.7189536432630244 12.951188938599957 143.52449351714873 86.82654803987789 0.4760523741099739
1.7419676610870742 12.930340152640179 130.00446096683365 91.00113190726361 0.48542188771712175
1.76444618309583 12.907715816830436 117.88056960291618 95.3996570320278 0.49513923406606586
1.7863738434661036 12.883310439302981 107.00191676295285 100.03644155115882 0.5052245735384516
1.8077168909526165 12.857093215630174 97.24803143448426 104.92763627973346 0.515702216455011
1.8284442725100067 12.829028444417624 88.48322091632343 110.08946171599818 0.5265936002346377
1.848520838763083 12.799078096607929 80.60086069752107 115.5399487927513 0.5379237107314365
1.867915500429197 12.767218696511037 73.50842748463776 121.29919367903942 0.5497215542692628
1.886594919201487 12.7334199305124 67.1206341250634 127.38846151718906 0.5620164686471865
1.9045278874090714 12.69764635439491 61.36146175900073 133.8305682104437 0.5748392031417685
1.921680240782529 12.659885385269526 56.169768235248135 140.6502655845816 0.588222890954138
1.9380136683868523 12.620073545070493 51.47871949434716 147.8755873169037 0.6022072312323787
1.9535103535602518 12.578229998061156 47.24333117027711 155.53544918697185 0.6168295770363942
1.968149059209987 12.534384942873436 43.412222508338246 163.66260222436503 0.6321346305103832
1.9818828433385267 12.488442784006235 39.94815673753134 172.29121591558905 0.6481655101539375
1.9946858193508867 12.440420646166992 36.80706766680865 181.46048192700061 0.6649752628888054
2.00653579797125 12.390308574404937 33.96232004817323 191.21211447522452 0.6826175814481423
2.0174076585697294 12.338106289933716 31.380596703900682 201.59201195301813 0.7011515216822457
2.0272637756926373 12.283782987800556 29.041417929645192 212.6505532950946 0.7206414650315349
2.036095655838267 12.227380655931134 26.91471330634423 224.44191222537285 0.7411537669099911
2.0438629031627684 12.168852487866754 24.981861987798673 237.02823946287185 0.7627691685232282
2.050540776930489 12.108216764315207 23.22039275868552 250.47507209422074 0.7855663482937562
2.056136875109172 12.045504483523912 21.62788464490371 264.85627467223975 0.809636430050988
2.06061519726206 11.980744773012145 20.173821272091402 280.25325174634224 0.8350785493309234
2.063954355769916 11.913930199461394 18.85066729592661 296.7550961819133 0.8619982076833325
2.066136831283846 11.845084211445448 17.645858516486605 314.4614898783961 0.8905143022575928
2.0671578823220225 11.774262487778886 16.548556600320765 333.4824957272537 0.9207556467456276
