M[M_sun], R[km], Lambda[1], P_c[MeV/fm^3], rho_c[fm^-3]
0.24162668629717493 15.618656898711224 2160425.4255784233 3.5677272577965504 0.1711233750220791
0.25364434397910735 15.277270259964252 1723187.5989239723 3.7848421024199825 0.17388845346011
0.26604212297516344 14.981221213435298 1382964.03593081 4.011448778496079 0.1766672326423639
0.27881799892098885 14.72346228140112 1116364.9200457067 4.2478026791049714 0.1794583778945014
0.29197428808564796 14.498345336811111 905847.6024391187 4.494529288054658 0.18226846090286392
0.3055116309004857 14.301153189563204 738563.1477038382 4.751785207317436 0.1850932074459219
0.31942916981675706 14.1280637170659 605041.7503033595 5.020251143641531 0.1879392015605674
0.33372858500404406 13.975933469363618 497638.2690385408 5.300153282418484 0.19080310784854426
0.3484119307360003 13.841887863473028 410952.28837371146 5.592217860076513 0.19369117461278051
0.3634769272521891 13.723893611872882 340615.9941962764 5.8966151856477635 0.1965985206719683
0.3789318251333883 13.619908754342534 279344.86549110746 6.214208142861319 0.19953280138314958
0.3947658160795344 13.52836291760832 236368.56972749034 6.545251364036299 0.20249014535466694
0.4109927117371577 13.447803922097211 197829.45507764132 6.890452886651698 0.20547435876692696
0.42760297270994696 13.376972088891467 166043.5722651669 7.250515455325212 0.2084884709303257
0.44460067223011246 13.314841917691671 139770.12097613048 7.625694172590336 0.21152796614632616
0.4619815324166471 13.260494062904332 117952.29377083195 8.016945850640546 0.21459912635366976
0.4797503345085306 13.21309472848102 98719.54714808577 8.424972142367222 0.21770354205442533
0.49790934764157135 13.171924132793125 84619.51677983803 8.850208806580556 0.22083860652467008
0.5164507882319191 13.136339707025645 71921.25902245103 9.293539448294748 0.22400787221270466
0.5353715326943899 13.105812323334149 61260.52009074178 9.755844397813084 0.2272141896293498
0.5546809435304608 13.079761590089177 52289.551805666684 10.237931262145743 0.23045888073556842
0.5743651650748639 13.057827444889211 44315.08645362407 10.740270545526876 0.23373863329521083
0.5944251271880386 13.039489917197766 38318.04420559834 11.26411531649772 0.2370597371148091
0.6148652729306489 13.024494815864182 32892.08225033492 11.81039870575943 0.24042374570998165
0.6356716197806931 13.012424410460405 28283.25865567954 12.380100125413772 0.24383229276133483
0.656844413934169 13.00300990244086 24362.779623001145 12.97389846644155 0.24728321307780954
0.6783786144753784 12.995964010719625 21020.375502815525 13.59314100759308 0.25078151950809063
0.7002702996824387 12.991059230112029 18165.985599996 14.239016271480562 0.25432973967647154
0.7225065639842105 12.988005726372615 15723.208034832816 14.912714476961579 0.25792985921854017
0.7450978523179116 12.98664469426185 13629.045673900853 15.615250870956345 0.26158162775299393
0.7680209765176071 12.986763710090576 11831.900743220978 16.347920926774616 0.2652872305121249
0.7912696669895175 12.988146384702887 10286.351541685583 17.112327464342208 0.2690512182355953
0.8148470433960731 12.990675638603443 8952.725516055 17.909926228694683 0.2728760248793803
0.8387320241102258 12.99414719126151 7804.532231415148 18.742061016642253 0.2767625359046786
0.8629142687394478 12.998429305280716 6811.243532922702 19.610120014134683 0.2807116200399137
0.8874003096442499 13.003370287372398 5952.853073148013 20.516169114396966 0.28472945015500434
0.9121590801595935 13.008867307173679 5209.059992760073 21.462003367953866 0.2888190414308425
0.9371813259143711 13.014757852399171 4563.140193159286 22.44907938657948 0.2929800909709872
0.9624689450586635 13.02096718189511 4002.682993445921 23.479478686646086 0.29721684469501386
0.9879921582161669 13.027355433939292 3514.937794160697 24.55559805201435 0.30153518715072875
1.0137366599604953 13.033809050229056 3090.7642716193 25.67934700205179 0.305936502606877
1.0397042472377929 13.040270503883281 2720.1796223832935 26.852753857560398 0.3104225435700598
1.0658583517725853 13.046593122090353 2397.0211028522576 28.07888491043586 0.31500180739380346
1.0921931636443223 13.05272708006735 2114.6051157952993 29.359755597925183 0.3196744632342665
1.1186930044006944 13.05856239702757 1867.4335340095881 30.698202812863794 0.3244457475942208
1.1453282408411969 13.064010999339189 1651.247279908095 32.09754456927701 0.32932316137345896
1.1720933647604364 13.069031521101557 1461.2421906461864 33.55980996376797 0.3343049701278502
1.1989525528464056 13.073478567333233 1294.758740870769 35.08950160739365 0.33940446750447234
1.2259010839405464 13.077344045595773 1148.4518817483058 36.68859252604495 0.34461810394323933
1.2528999610788523 13.080509887109821 1019.6415811553984 38.36218524326524 0.3499606242624227
1.2799442587810177 13.082948010280655 906.2019422414403 40.1125767729106 0.35542892817838606
1.306996951159024 13.084551664202305 806.3445519767822 41.945133414797866 0.3610369574771338
1.3340297839684352 13.085238634827663 718.1464518261694 43.8634511705 0.3667872670685289
1.3610403058246916 13.085031668470675 640.2676367950999 45.87210942288333 0.37268699730978083
1.387978358420798 13.083783006312323 571.3996417512092 47.976499123017156 0.3787464176163719
1.414824204639039 13.081457175302825 510.5705501512056 50.181444454298884 0.3849715139655107
1.4415567176549013 13.078010334758966 456.61956562194075 52.49204231766217 0.39136861075910734
1.4681514263105995 13.07340816320827 408.7694449447685 54.91477437823855 0.3979497287361933
1.4945628689163506 13.067535878138935 366.3160236949695 57.455834257275505 0.40472393521479527
1.5207756878395329 13.060383783066 328.6671332892864 60.121854021208364 0.41170100811733373
1.5467599656427546 13.051888577842684 295.11536142360654 62.91994365442631 0.4188914944886193
1.5724762368536997 13.04200131705335 265.30402670167916 65.85773431183559 0.42630677379277887
1.5978912187434573 13.030658282791906 238.77112073938486 68.94342573500943 0.4339591265484741
1.62298504305671 13.017836753796908 215.1103957787044 72.32044144026378 0.44161484918758864
1.6384261623703675 13.000745553761433 200.43927524353467 76.17233621770716 1.0480656994771236
1.6388904827451536 12.970053144164824 195.58465468502774 81.5294403190287 1.6109296156016129
