M[M_sun], R[km], Lambda[1], P_c[MeV/fm^3], rho_c[fm^-3]
0.24162668629717493 15.618656898711224 2160425.4255784233 3.5677272577965504 0.1711233750220791
0.25364440531399346 15.277289875774652 1723161.3137567493 3.784827877724026 0.1738882761561371
0.2660408371490771 14.981250828814964 1382957.828099517 4.011418875140616 0.17666687127796088
0.278816859355576 14.723497086957522 1116382.8427772392 4.247756085201363 0.17945783747543503
0.29197100119664154 14.498407920227672 905882.905850618 4.494464780724606 0.1822677425987724
0.3055075100646566 14.301193458226644 725422.9919396213 4.751700595985913 0.1850922934820583
0.3194232397888263 14.128124073527815 605112.7595475557 5.020145804811836 0.18793810862955226
0.33372291441265495 13.975907180238067 497646.95301299036 5.30002444251425 0.19080181064449267
0.34840436284689486 13.841999281791846 410989.26399956795 5.59206519718224 0.1936896975572823
0.36346741505504315 13.72396049361793 340651.05221531395 5.896435269634236 0.196596830862695
0.37892218862552385 13.61997102057702 283290.6884235501 6.213998796158138 0.1995308923932864
0.39475455806867865 13.528449873457815 236400.8087259404 6.545012803765898 0.20248805350337468
0.41097998523079365 13.447864533943763 197859.0804759929 6.890180506975041 0.20547203906730085
0.4275893515892915 13.37701860323982 166062.7159659791 7.250206699871636 0.2084859166755855
0.44458502343279105 13.314894823271821 139794.5003037269 7.625349894513043 0.21152522547146083
0.46196650831429814 13.26056829612066 117973.80745600334 8.016560044322588 0.21459614182988934
0.4797322402256025 13.213126202088977 99800.7717143362 8.424541798880762 0.2177003064730163
0.49788890005359265 13.171973376713659 84631.9667259152 8.849735512491932 0.22083517967324542
0.5164288608315294 13.136390059844995 71934.0332246437 9.293015543464067 0.224004183890035
0.5353480839545881 13.105827937074432 61269.42852224156 9.755266329469006 0.22721023186747685
0.5546555171716445 13.079794609891268 52300.11004869722 10.237297553912923 0.23045467469464276
0.5743388745217289 13.057826621593357 44726.45795415505 10.739579376133143 0.23373419577360557
0.5943962367936205 13.039525710806727 38322.22290356585 11.263358582959967 0.23705500902997115
0.6148340220312559 13.02449156699274 32898.39506035646 11.80957193693846 0.24041871757611682
0.6356398278455762 13.012418254696263 28289.334760552985 12.37919857119678 0.24382695459191803
0.6568102430823372 13.00300810074371 24368.036290434444 12.972926266955517 0.24727765638421653
0.6783428484962137 12.995972225983364 21026.17169896021 13.592084355834302 0.2507756363541917
0.7002311984997176 12.991066567966792 18170.410771226594 14.237869500923562 0.25432351839023165
0.7224672884379052 12.988002245027888 15728.361951330839 14.911471556957096 0.25792328743195425
0.7450561140449792 12.986647698952419 13632.441015705017 15.613917511751978 0.2615748125051933
0.7679771791945126 12.986752929531663 11835.118800838796 16.34647906973468 0.2652800432164111
0.7912230430461931 12.98813773206334 10287.719113423731 17.11076987186799 0.26904364419083826
0.8147986501700405 12.990668568792053 8896.932872846739 17.90824518329301 0.27286804843914986
0.8386815316068155 12.994130427750385 7806.337175354846 18.74026397488059 0.2767542794275981
0.8628644677802717 12.99840806886077 6813.343367079089 19.608183607120715 0.28070293260287005
0.8873444756841217 13.00335693411736 5954.675346504013 20.514084020652493 0.28472031295091715
0.9121001032289561 13.008853477532492 5210.405224114526 21.459759627620578 0.2888094343844934
0.937121551485698 13.014747614861479 4564.602966500235 22.446686347013735 0.29297015164702117
0.9624061935271182 13.020956042355769 4004.0414245209754 23.476906312832067 0.2972063975206284
0.9879267709312982 13.027337002046922 3516.116283743533 24.552834233915522 0.30152420781346817
1.0136701421041279 13.033793683728392 3091.6801298055498 25.676402439032127 0.3059251389710933
1.039635373390482 13.040247926381593 2721.0590973256903 26.849592546636366 0.31041060070664456
1.0657867064469666 13.046581630382702 2397.820515173231 28.07549205100754 0.31498925573144976
1.092119947430675 13.052713190649968 2115.51666253717 29.356143216146144 0.3196614608778757
1.1186191398894494 13.058540252038744 1859.1865624755617 30.694327774182927 0.3244320781441778
1.1452501317798773 13.064001654412763 1651.884253521869 32.093419522432114 0.3293089881188007
1.172014142405418 13.069019370860945 1461.7956695829348 33.55538651510368 0.3342900626497749
1.1988723044234988 13.073472296476995 1295.2110798823223 35.0847588754512 0.3393887845756962
1.2258174854998285 13.077333427116203 1148.8790252732701 36.683544275549 0.3446018190685918
1.2528146731511303 13.080496356833276 1015.5686129938617 38.356810983948364 0.34994370123504553
1.279857536940217 13.082933440834989 906.5471961841557 40.106815410834415 0.3554111044488691
1.306900602222988 13.084522698508875 806.6123629905571 41.938998732772774 0.36101841140397173
1.3339400487313033 13.08523507359016 718.4997950939362 43.85687437716481 0.3667677174374696
1.3609478100403258 13.085030067204222 640.5301355864538 45.86510430073483 0.3726666273661469
1.3878787666591688 13.08377098235932 571.7079528317173 47.96903574620833 0.3787251744367435
1.4147369317209635 13.08147787391082 510.73730619842615 50.173440970290606 0.3849490873213174
1.441460531912541 13.078025679710196 456.79960518085574 52.483511433672774 0.3913451881479185
1.46805472183486 13.073426540819586 408.9448230232511 54.90567831399151 0.39792524376713173
1.4944645581449607 13.067559283103655 366.4670630497557 57.44613217192428 0.40469831636408904
1.5206768679556266 13.060412596597402 328.78196336861794 60.111501739282694 0.4116741783067356
1.5466605743729538 13.051923612631334 295.2365932463196 62.90889336443047 0.4188633706220429
1.5723767070389005 13.042042347549224 265.412937066783 65.84593423445186 0.4262772662466654
1.59780109157332 13.030710875998455 238.87980807338343 68.93081975749129 0.4339281386108812
1.622888346431276 13.017887592058571 215.18928981892168 72.17236553635017 0.44182923618309766
1.647640200433117 13.003547422251032 194.06037843018171 75.58006441847793 0.4499948636780373
1.671989044921756 12.987613171059063 175.1956099788753 79.1638214165746 0.45843910206242316
1.6959264073960445 12.970058971641791 158.33824139632702 82.93389704659636 0.46717550806827796
1.719406285669748 12.950845847414666 143.25245010084842 86.9029977801673 0.4762254951577416
1.742387634969349 12.929903434287073 129.76094112266682 91.08267244278215 0.4856032853946583
1.764870901354562 12.907253374133711 117.65860262760995 95.48707362608043 0.4953310455925943
1.7867985787063356 12.882815413232537 106.81038058925002 100.1298103122708 0.5054260592742422
1.8081358868074162 12.856553604160124 97.06734907500842 105.02744123101368 0.5159141524782539
1.8288451748178305 12.828417248471693 88.31549339236128 110.19651043500564 0.5268178668712868
1.8489243428952447 12.798447489071023 80.44965516731347 115.6546943873806 0.53816073553428
1.8683004977716926 12.76650751226686 73.37350593646151 121.42212450758338 0.5499717963870554
1.8869788695418275 12.73268431615613 66.9983455103773 127.5202394096688 0.5622809017846694
1.9049014798696686 12.696865534720136 61.2462185574743 133.97152009454265 0.5751174859261514
1.922041545977319 12.65904710123715 56.063471268704355 140.80165674424376 0.5885178585043084
1.9383558353663293 12.619155380147298 51.38369166554532 148.03832404757304 0.6025202634304785
1.9538500882099943 12.577309291343571 47.15643747261972 155.70999110723022 0.6171603514471764
1.9684662031912434 12.53337548255451 43.3304008408591 163.85034334942853 0.6324858432409329
1.9821803444474944 12.487371228383468 39.870808862653256 172.49320783570153 0.6485384661490856
1.9949689807879898 12.43929321669411 36.738212644998555 181.67779331364466 0.6653710985927704
2.0068049544924853 12.389130626443905 33.898222687947715 191.44615601897533 0.6830383207382493
2.0176503598288695 12.336853060016296 31.322110952964405 201.84433977825037 0.7015993786819454
2.027486030293623 12.282465673641198 28.98607373590676 212.92224982573163 0.7211167818567974
2.0362951240425806 12.225996550059362 26.865222574049074 224.73549125146022 0.7416612252457085
2.044038594518223 12.167397967311752 24.938158040837386 237.34513076642938 0.7633094973059248
2.0506968036954354 12.106689004748798 23.1836247846327 250.818103800115 0.7861443895533818
2.0562688992479528 12.043938822071764 21.58979936856168 265.22761132710457 0.8102543558188879
2.060713597835054 11.979086985585376 20.138963412650078 280.65518009221273 0.8357383516374802
2.064018746634053 11.912188808883599 18.818519188701636 297.1907871125151 0.8627041050584942
2.0661780582306193 11.84328399114441 17.61565140603197 314.9347766768095 0.891271941333504
2.067168776701564 11.772391430794425 16.52111912506514 333.99649878309225 0.9215674735140502
