M[M_sun], R[km], Lambda[1], P_c[MeV/fm^3], rho_c[fm^-3]
0.24162668629717493 15.618656898711224 2160425.4255784233 3.5677272577965504 0.1711233750220791
0.25363927354090443 15.277425588954557 1723225.8474709147 3.7847531865259896 0.17388734516638582
0.26603119090615635 14.981477946616037 1383122.984406667 4.011261860872902 0.17666497385319904
0.2788027522186023 14.723748385022324 1116640.3100048287 4.247511437409424 0.1794549999297249
0.2919529179265901 14.498657122452148 906144.7008688049 4.494126081301641 0.18226397110208964
0.30548426643975296 14.301499201596483 738895.5760063572 4.751256346421738 0.18508749473890218
0.3193948398878472 14.128468092837075 605274.5335017481 5.019592734384707 0.18793237031040524
0.3336885801443061 13.97624515333039 497896.1987579508 5.299347992662248 0.1907949999169163
0.348364576345266 13.842321749992337 411172.8136614582 5.591263680760996 0.1936819426654172
0.36342004564526026 13.724325138069508 340828.3443195941 5.895490682184518 0.19658795909747123
0.378868270061768 13.620315155740094 283463.60909279325 6.212899709478054 0.19952087004615054
0.3946948402903412 13.528738787615135 236543.82902011106 6.543760360763208 0.2024770712702087
0.4109135772696865 13.448168250361585 197994.55352992294 6.888750532952321 0.20545986080845807
0.42751477391395165 13.377343718521468 166206.16341817708 7.248585779354798 0.20847250721555602
0.4445031045522717 13.31517371118509 139910.9141153945 7.623542509190708 0.21151083752215008
0.461876743744388 13.260810321896368 118069.26216504815 8.014534673932923 0.21458047395248364
0.4796349640227193 13.213377871843909 99893.68263136625 8.422282653796511 0.21768332086020964
0.49778413553691797 13.172213726920214 84717.56787137063 8.847250923869282 0.2208171901900344
0.5163148957863021 13.136590000627598 72007.99659287366 9.290265309347758 0.22398482207039908
0.535225476607766 13.106000684581241 61331.673846030964 9.752231807267952 0.22718945592222226
0.5545223195652429 13.079981011351247 52354.105445593996 10.233958968443385 0.23043244101780205
0.5741952486886069 13.057970276584276 44774.536484636956 10.735951234207132 0.23371090197858285
0.594247292319848 13.039657049219192 38366.07878105809 11.259386331877296 0.23703019033332356
0.6146737713438782 13.024616997313727 32938.47933974887 11.805232116620731 0.24039232422775472
0.6354665536331504 13.012527636587851 28325.829311051108 12.374466258209905 0.24379893421557106
0.6566292919279084 13.003084096191257 24400.774336825514 12.967823192427915 0.24724848930283097
0.6781518834913047 12.996029211884625 21052.740766139174 13.586538068254425 0.2507447561108863
0.7000311202548605 12.991081979782312 18195.155076578143 14.231850269887017 0.25429086376808974
0.7222502249461124 12.988048405399818 15748.611373705946 14.904947742153865 0.25788879356391897
0.7448331736828762 12.986657881733734 13555.238449090157 15.606919081845021 0.261539041173751
0.7677423754701254 12.986756353889287 11850.910522618624 16.338911270154817 0.26524231963357514
0.7909778595728285 12.98811721429568 10302.858440209167 17.102594731706496 0.26900389125256763
0.8145417854437071 12.990631441974339 8910.752087162791 17.89942221464575 0.2728261840837911
0.8384139642440943 12.994087768685139 7818.05622452086 18.730832307023096 0.27671094579386896
0.8625840134420473 12.998354526527878 6824.2356671887665 19.598020631819086 0.28065733774214474
0.8870482522491285 13.003287755040011 5964.094795200239 20.503140837434902 0.2846723582252903
0.9117983037081651 13.008779377234394 5218.782483017494 21.447983988003372 0.28875901450572455
0.9368078935074227 13.014669606569464 4572.206614179529 22.434127297214552 0.292917988504194
0.9620751622814594 13.020864907019945 4010.7958705364804 23.46340628245045 0.2971515698859988
0.9875894965638417 13.027258857338145 3522.0479930026645 24.538329698021176 0.30146658817798644
1.0133255231584761 13.033722424083312 3097.0344802265413 25.660949533630532 0.305865503233087
1.0392729634820008 13.040171560249663 2725.858190502089 26.833002403624636 0.3103479261337258
1.0654176786546405 13.046501730879607 2402.1168346628565 28.05768703578925 0.3149233872379433
1.0917347046111183 13.052623953006012 2119.1007271490694 29.337186421203747 0.31959322805561446
1.118224311967496 13.058459705296452 1871.7344233386066 30.67399293418728 0.3243603456784284
1.1448451988447865 13.06392160497291 1654.9211257183806 32.07173131884748 0.3292343431896935
1.1715983647573007 13.06894115770731 1464.5791360900628 33.532174454349615 0.3342118356117701
1.1984487329688844 13.073420594237207 1297.6920914164102 35.05987176269698 0.3393064896407295
1.2253815430336978 13.077278952240158 1151.0970819598776 36.65705431531889 0.34451636655744716
1.252366665730576 13.080454057742806 1021.9739539014095 38.32843890221533 0.34985389328557365
1.279399624010424 13.082906548011014 908.336800174077 40.07658438030069 0.3553175797399325
1.3064348125690084 13.08450656443695 808.2228885355034 41.9068092456753 0.36092109770779013
1.333463338182338 13.085233395301845 719.8681659853714 43.82236564718332 0.36666513964536374
1.3604646486673728 13.085044067480798 641.9010061246647 45.82834861650932 0.37255974682930143
1.3873881114568736 13.083804306345877 572.8942893139957 47.929876161665284 0.37861371361814505
1.4142379072960278 13.081532183772273 511.8012840435256 50.131448227876724 0.3848314190293778
1.4409627965094831 13.078119112386535 457.7508341096356 52.43875217706428 0.3912222959991158
1.4675445871908357 13.073527770717831 409.8115372569697 54.85795441793906 0.39779677962191407
1.4939494740055403 13.067684357224303 367.24856910825 57.39522946590914 0.40456390517528396
1.5201567528028923 13.060570466041378 329.48679327936173 60.05718857125242 0.41153341591041537
1.546136722436685 13.05211071990829 295.89113915699494 62.85091902125323 0.41871582130949214
1.5718504877537887 13.042260287043902 266.0045799309515 65.78402720313741 0.42612246009397214
1.5972666389733148 13.030957634717428 239.39967034169334 68.86468580928421 0.43376556853990766
1.6223582797977991 13.01818004031648 215.67759462716995 72.10168561360496 0.4416583547244674
1.6471094612611605 13.003873873022227 194.4966729738302 75.50449230173066 0.4498150794032274
1.6714627409301268 12.987981854385549 175.58561856453295 79.0833088985675 0.4582511443016632
1.6953982416698992 12.970472188065235 158.6997761593717 82.84779294289376 0.46697764108874523
1.7188624402718682 12.951262629472744 143.59369599374008 86.81079232245929 0.47601669516198125
1.7418786863041777 12.930426639286825 130.05847263133143 90.98432724485204 0.48538450352882984
1.764358302922335 12.907812998985154 117.92377549988166 95.38164167220562 0.49509970434398165
1.786286532878817 12.883414414415734 107.04876002773952 100.01719981153532 0.5051830506991233
1.8076294669842157 12.857199052764146 97.28731937244802 104.9070684583622 0.5156585406432173
1.82836092971644 12.82914842512257 88.52096021427951 110.06737212350761 0.5265472748594966
1.8484377529542726 12.799209202318348 80.63049990866894 115.51630280191382 0.5378748662739704
1.8678350514995012 12.767360401278419 73.53740078258942 121.27386135003651 0.5496699869306758
1.8865155589867013 12.733570198301182 67.14716965412529 127.36130074246633 0.5619619571890375
1.9044510073383738 12.69780765920239 61.38588858565495 133.80152323187764 0.5747818593356934
1.9215885305788758 12.659994085999562 56.19342645624698 140.61907002604622 0.5881621101430398
1.9379422105675934 12.620258331861743 51.49930421637132 147.84205452941504 0.6021427292472842
1.953442541341008 12.578423501889663 47.26559668740731 155.4994845008208 0.6167614203560222
1.9680841087098024 12.53458948527611 43.43320997356533 163.62387496394498 0.6320621162700936
1.9818205728870713 12.488661502484847 39.962168866132366 172.2495967221571 0.6480886648638139
1.9946270889420823 12.440651704802978 36.82125616282238 181.4157071233246 0.6648937049630717
2.006480737609914 12.390551268216173 33.974376413050784 191.16389356733893 0.6825308941437136
2.0173638739442206 12.33838343543796 31.394734360881625 201.54002450923107 0.7010592490976622
2.02721774873922 12.2840555415264 29.052090665583158 212.5945764076438 0.7205435368159305
2.036041471022946 12.22762938970884 26.92387424852067 224.38142831424068 0.7410492190296815
2.0438276689946266 12.16915193478686 24.992027051341132 236.96295411281648 0.7626578510041694
2.0505149229510917 12.10852772886853 23.23473833260114 250.40437254228146 0.7854471648300356
2.056111763235749 12.04583285702715 21.636049059961756 264.7797762503802 0.8095091322325491
2.060203476512531 11.982402870136005 20.230441801314885 280.40917463492144 1.051845403096726
2.0607656669864873 11.920307698680038 19.15709658848798 298.2637079082586 1.4154677888864553
