M[M_sun], R[km], Lambda[1], P_c[MeV/fm^3], rho_c[fm^-3]
0.24162668629717493 15.618656898711224 2160425.4255784233 3.5677272577965504 0.1711233750220791
0.25364502967287766 15.277268611950142 1723269.8213516546 3.784839206122278 0.17388841735915633
0.26604182532957305 14.981241467041198 1382949.2066561116 4.011442689845469 0.17666715906461455
0.2788178963581425 14.723468489124778 1116492.933687748 4.247793192056553 0.1794582678590364
0.29197380113247684 14.498351839746778 905781.0141203774 4.494516153602721 0.18226831464769322
0.3055107371209361 14.301130100056163 738587.9228233304 4.751767979419174 0.18509302135174074
0.3194282149444662 14.128057168049526 605018.1902656106 5.020229695330929 0.18793897902606663
0.3337260969800232 13.97591136299196 497636.6108759358 5.300127048941689 0.19080284372096215
0.34841047375239215 13.841947533904609 410957.4349467439 5.5921867758724595 0.19369087386455533
0.36347458235708596 13.723908939314272 340623.0006482651 5.896578552273924 0.19659817660356876
0.37892844622780814 13.619950209844795 283259.0409396532 6.214165516912773 0.1995324126858238
0.3947640435938756 13.528375211872234 236371.66269923365 6.545202789707413 0.2024897194234233
0.41099015790318205 13.447796627045822 197834.7590142015 6.8903974260973015 0.2054738864415726
0.4276011019085363 13.376963184165897 166047.44257591153 7.250452588004074 0.20848795084508942
0.4445961696324735 13.314889245441966 139778.19575680804 7.62562407220377 0.21152740810217469
0.46198015172786877 13.260533173715396 117960.0249507719 8.01686729431212 0.2145985186569593
0.479746451567693 13.213100627368194 99788.39713968952 8.424884517399722 0.21770288323716716
0.49790556019858 13.171932558806805 84625.36795138841 8.850112436013616 0.22083790876058945
0.5164458654029012 13.13635479829981 71923.677600967 9.29343277234447 0.22400712120736424
0.5353679976729045 13.105785087693965 61260.67782158726 9.755726693036912 0.22721338376014738
0.5546747710498828 13.079790421886296 52292.86271718225 10.237803020570185 0.23045803450319433
0.5743601332617606 13.057806220284862 44718.62903160377 10.740129810939267 0.23373772973556425
0.5944188471098535 13.039496024198924 38318.18187559432 11.263961231590823 0.23705877438952244
0.6148596375346062 13.02446846080126 32892.73245926841 11.810230360078103 0.2404227218873606
0.6356647223028269 13.012429268043253 28284.101436221532 12.37991655169356 0.24383120580771575
0.6568375006808133 13.002998914925653 24363.67335013112 12.973700507694902 0.2472820816267905
0.6783712815261045 12.995966493831611 21021.56401187346 13.592925852339196 0.25078032158128055
0.7002620916169745 12.991053563830633 18166.249889125906 14.238782765839302 0.25432847289697147
0.722500186327699 12.987995404054214 15609.936978565465 14.91246139290333 0.25792852106772346
0.7450891326549026 12.9866392508215 13629.440054894698 15.614979371220553 0.2615802400264374
0.7680119906415684 12.986764560916217 11832.847628440568 16.347627334097425 0.2652857670262647
0.7912582486195454 12.988148604778697 10286.595197422661 17.112010304912403 0.2690496759966874
0.8148371165435936 12.99067575432354 8953.317498261787 17.909583930975543 0.2728744007011784
0.8387216821565362 12.994145448941781 7805.034653734825 18.741695098986668 0.27676085470238204
0.8629049024260965 12.99841712078855 6811.690083842655 19.609725717908933 0.2807098510814184
0.8873891070256335 13.003374713207572 5953.244745456258 20.515744541428294 0.28472758961042455
0.9121467837761402 13.008857459866705 5209.221994579963 21.46154649006881 0.28881708521204463
0.9371691378690116 13.01475389381277 4563.396578944723 22.448592107171113 0.29297806708973967
0.9624545819632749 13.020968820691238 4002.9723718259347 23.478954889588046 0.2972147173995259
0.9879792286390708 13.027356598452803 3515.205746721616 24.555035271266334 0.30153295148998144
1.013723075250553 13.033813773301524 3090.6028757307067 25.678747416336048 0.30593418869012623
1.0396896785214993 13.040263549092163 2720.302504264572 26.852110135416908 0.3104201117037164
1.065843747836864 13.046593159529989 2397.115564511487 28.078194037908485 0.3149992515559103
1.092178235901376 13.052729403658876 2114.7702631664374 29.359020023935074 0.3196718156195469
1.1186789991582775 13.05856074214493 1867.6155189689346 30.69741375364512 0.32444296413669715
1.1453121555924681 13.064012279938773 1651.3278463510424 32.09670460054575 0.32932027532363195
1.1720778327699075 13.069017827603409 1461.403061806267 33.55890923075964 0.33430193456474266
1.1989354357283084 13.073481754171656 1294.858785369824 35.08853585781174 0.33940127403242026
1.225884133621158 13.077343120497131 1148.5408724430758 36.68756456288541 0.3446147878932119
1.252881554815765 13.08050226140104 1019.6830661762609 38.36109089390962 0.34995717826121336
1.279926321446664 13.082945401067416 906.2820389856541 40.111403596200375 0.35542529876157763
1.3069712333350603 13.084523306285 806.4120084054284 41.9438842174389 0.36103318096426507
1.334011033718325 13.085239796576655 718.2688083184057 43.86211194375048 0.3667832861940322
1.361020941408269 13.08503170804261 640.3237195981386 45.870682973403184 0.3726828493884611
1.387953643653145 13.083768219081453 571.5191885651388 47.97497935665515 0.37874209187071434
1.4148045060265255 13.081461526052879 510.57494682787944 50.1798147023733 0.3849669472210129
1.4415391089556142 13.078013634081215 456.66397853287816 52.49030516788941 0.39136384119668516
1.4681327793407741 13.073414632859182 408.81012691969937 54.912922136911504 0.39794474283565917
1.4945436370338092 13.067542797947226 366.34592755612516 57.45385860739834 0.4047187184106322
1.520755520269986 13.060388488714121 328.6920736849643 60.119745966682125 0.41169554471283265
1.5467395885382584 13.051895947213687 295.1403006908192 62.91769345866614 0.41888576756151114
1.572456680789886 13.04200786762163 265.3273408570485 65.85533143019569 0.42630076509143827
1.5978708320896668 13.030668569354846 238.79554839548362 68.94085874032353 0.433952816377683
1.6229687575744407 13.01784455282494 215.1279719439974 72.18309476388644 0.4418551760254201
1.6477214680601406 13.003497591035439 193.98474720683342 75.59153647491003 0.4500221554284209
1.6720695611095449 12.987556056027614 175.14076270539542 79.17603348997898 0.45846759268996035
1.6960063923848008 12.969993786989304 158.28303231798392 82.94696830590614 0.4672055457841021
1.7194851245443659 12.95077661806138 143.1996117370942 86.91699552465072 0.4762571931619752
1.7424668712674218 12.929822799920403 129.70967490899588 91.09760249844993 0.48563649927296315
1.7649496055894458 12.907167529326252 117.61089811985647 95.50307984613805 0.495366166813416
1.7868758745015396 12.88272775576561 106.76680794897891 100.14690663461381 0.5054629523961555
1.8082123590657808 12.856456271748181 97.0340684472646 105.04571632393464 0.5159529596763777
1.8289252077729932 12.828320326597757 88.2854948567505 110.2160610150391 0.5268587419335308
1.8489982246891294 12.798330276779257 80.42225410756329 115.67570593059256 0.5382041381320298
1.8683714962788718 12.766381780775117 73.34621360043865 121.44463524821285 0.5500176200057109
1.8870472999220587 12.732552921376874 66.9697358585865 127.54429015380244 0.5623290374448653
1.904968791819851 12.696723834626766 61.22304479428546 133.9973316229784 0.5751684458976921
1.9221073838246718 12.65889311447856 56.04484868934431 140.8293804399308 0.5885718748062954
1.9384186616893362 12.618991150146835 51.36366456076201 148.06812596558186 0.6025775889025063
1.9539118356804577 12.577132697246993 47.14059648312597 155.74195544977823 0.6172209270759806
1.968524940428724 12.533193407321704 43.31852729264374 163.88466385580435 0.6325499542320663
1.9822357719392705 12.487179106061326 39.858010338147004 172.53020058073253 0.6486067692080822
1.9950200114565184 12.439086619614562 36.72713615338865 181.71759242128812 0.6654435932191889
2.0068524124951734 12.38891187555156 33.88468746461713 191.48901999104538 0.6831153778149157
2.017694437409981 12.336623213010148 31.311049748554275 201.89055377569366 0.7016814039687723
2.0275279464982074 12.28222797156043 28.976514717899992 212.97201218715816 0.7212038381309256
2.036331508871569 12.22574286784055 26.85670912853655 224.78926267508035 0.741754170431552
2.0440702962364745 12.167134634511786 24.92967733454251 237.40317326130787 0.763408465091567
2.050724263882437 12.1064103782262 23.176479488028534 250.8808367975605 0.7862499452936808
2.0562914106921135 12.043647882176538 21.583623493398 265.2955831821272 0.8103673913534148
2.060731858813432 11.978783152067718 20.132719527222143 280.7287416921277 0.8358590097826533
2.064030189030778 11.911871677364193 18.81190076878737 297.27059673424213 0.8628334109460689
2.0661858832479845 11.842954155594168 17.610537510085194 315.0214753424059 0.8914107288448085
2.0671711668892896 11.772048448191526 16.51598079880317 334.0906584360382 0.9217161911644584
