M[M_sun], R[km], Lambda[1], P_c[MeV/fm^3], rho_c[fm^-3]
0.24162668629717493 15.618656898711224 2160425.4255784233 3.5677272577965504 0.1711233750220791
0.25364352884612046 15.277279731275865 1723115.4491022741 3.784810902978619 0.1738880645741245
0.26603820264017575 14.981335135404148 1382941.0351688256 4.0113831908013315 0.17666644005378007
0.2788131628835975 14.723563368506749 1116496.2292260546 4.247700483973732 0.17945719258498377
0.2919666374300343 14.498472853696429 905909.4878209846 4.494387803551228 0.18226688544008138
0.30550283588442495 14.301242372037892 738715.3021014867 4.751599629091557 0.18509120284690103
0.31941832546407806 14.128174962651798 605123.8163812617 5.020020104410259 0.18793680443937003
0.33371437042530483 13.976020905076185 497714.923430731 5.299870699211674 0.190800262704542
0.3483952314303253 13.84207536046321 411035.106565933 5.5918830270805735 0.1936879350114354
0.363457217671388 13.72406412765231 340661.88301054464 5.896220579978661 0.19659481445201665
0.37890984693053276 13.620041478380564 283319.82319773216 6.2137489888536726 0.19952861445145725
0.39474126565918743 13.528499203680841 236426.9836766182 6.544728138137495 0.20248555737037802
0.4109647197158517 13.447921813563223 197886.20923443796 6.889855487513638 0.20546927106517843
0.4275736412874225 13.37706560152963 166103.43526232656 7.249838276587368 0.20848286880417355
0.4445656834048615 13.314963758399369 139818.72192346433 7.62493908565349 0.21152195516878955
0.46194725292720884 13.260621632416594 117993.67422590751 8.016099684334192 0.21459258057319403
0.4797098977869751 13.213187574586184 99831.61667258161 8.424028297894564 0.2176964456634613
0.4978660282740359 13.172015167689821 84654.91440376671 8.849170763835534 0.22083109065167458
0.516401823354046 13.13644001573026 71944.90375116908 9.292390407663534 0.2239997828950266
0.5353194929985027 13.105880895568182 61285.94632991407 9.754576567882935 0.22720550939454653
0.5546257097645682 13.079840959612538 52306.80095526935 10.236538670339622 0.23044962082608603
0.5743064559590516 13.057863397088616 44738.13109095437 10.73875466790456 0.23372890089131543
0.5943623017721212 13.039537459122139 38334.48345855384 11.262455647549787 0.23704936747318855
0.6147976455583606 13.02454253999261 32907.545837165606 11.808585440164169 0.2404127180297956
0.6355982220819497 13.01243830480809 28300.1807413345 12.378122846086683 0.24382058514371915
0.6567684327871287 13.003045557901178 24374.43276527321 12.971766253414295 0.24727102622250086
0.6782983841922924 12.99600610143692 21032.077611108605 13.590823581267106 0.25076861669918327
0.7001863840485264 12.991060742807948 18039.609760219882 14.236501205170873 0.25431609531899363
0.7224186395314884 12.98800346020508 15618.217118366674 14.909988545502538 0.2579154461913686
0.7450043449303251 12.986645476045506 13636.777028776449 15.612326597622767 0.2615666808074598
0.7679233438967251 12.986762923984234 11838.056859533259 16.344758708451394 0.2652714676468954
0.7911671433949713 12.98812995143031 10291.30858562078 17.10891142917395 0.26903460721333866
0.8147399850445508 12.990660791032292 8958.20886588774 17.906239452486005 0.27285853138988725
0.8386203016489484 12.994115958728184 7809.159789900516 18.738119852205763 0.27674442829330614
0.8627988680639717 12.998401399190609 6816.120616984229 19.605873213567172 0.28069256732408426
0.8872733154632889 13.003334268036067 5956.818985055517 20.51159623620606 0.2847094110937358
0.9120317180397151 13.008837951625216 5212.424396493205 21.45708257078893 0.2887979720023811
0.9370508269555292 13.014728908593911 4566.346053533888 22.44383116947955 0.2929582928650358
0.9623277978881559 13.020925994449295 4005.658567121319 23.47383718392679 0.29719393287621704
0.9878504721892793 13.0273224388906 3517.4735586746424 24.549536707372173 0.3015111083059208
1.0135908602009764 13.033782660161446 3092.6557651479684 25.67288927917757 0.30591158101061816
1.03955275996123 13.04023642757007 2722.1886356927293 26.84582080416131 0.31039635174274977
1.0657023848313383 13.046561983920814 2398.9752311972143 28.071444070351255 0.3149742804908052
1.0920335813223612 13.052694178831224 2116.528592952375 29.351833344115033 0.3196459479848386
1.1185298625759212 13.058520881358957 1859.955978409836 30.689704555092504 0.3244157694392592
1.1451583481729726 13.063987981358503 1652.528344498256 32.08849804554849 0.3292920784089745
1.1719198801364792 13.068996388687276 1462.5621426146915 33.550109051961336 0.33427227705485596
1.198773998691184 13.073455278438338 1295.8146574291964 35.07910051746848 0.33937007391983165
1.225718048912646 13.077327035241652 1149.406238614459 36.67752144287418 0.3445823903426973
1.252712378237038 13.080492388723965 1020.4274630822059 38.350379798958464 0.3499233972365331
1.279752061022657 13.082928890563963 906.9499827785575 40.099941868072925 0.3553898400038673
1.306795810589599 13.08451870060674 806.9715098986627 41.931679838108 0.36099628527659244
1.3338300978272823 13.085236357787057 718.7581569555879 43.84902807369711 0.36674439416575433
1.3608383979166048 13.085036787923203 640.8157590150407 45.85674702908621 0.3726423255554423
1.3877675635907498 13.083781535026665 571.9692318390993 47.960131810064425 0.3786998309602248
1.4146231847146373 13.081491960433462 510.9687644341271 50.163892735288314 0.3849223321146037
1.441346170139568 13.078043138036978 457.01684332713586 52.47333405736216 0.3913172448857029
1.4679389316297957 13.073448769296354 409.13312662990637 54.89482673216181 0.3978960332604606
1.4943477661800406 13.067586980156468 366.6449681796925 57.43455767010832 0.4046677533023051
1.5205592830831818 13.060448841099651 328.9444193422434 60.099151625939584 0.4116421707547542
1.5465412576910424 13.051967215387382 295.38252788288173 62.895710611518254 0.41882981946780595
1.5722571132973842 13.042092600649086 265.54347077243483 65.83185708175847 0.4262420645934272
1.597680724689632 13.030769230161756 238.99616493240464 68.91578127664958 0.43389117110834957
1.622766889062872 13.017957777590496 215.30445464428476 72.15629314996453 0.44179037829074896
1.6475198335762942 13.0036213621825 194.1666725324065 75.56287936922028 0.4499539808531101
1.6718688114006437 12.987692486980398 175.28864149227562 79.14552791413914 0.45839642353053245
1.6958063412725453 12.970152037707608 158.41711806587554 82.91431661031471 0.4671305122827302
1.7192714365346315 12.950914695400217 143.3326558017556 86.88202961588838 0.47617801258218295
1.7422737190998223 12.930016921681071 129.82127512798135 91.06030782263763 0.4855535323469575
1.7647542596609889 12.907375895810816 117.7180962935547 95.46309710526742 0.4952784357522336
1.786681549831804 12.882950402309003 106.85445833342938 100.10420101380065 0.5053707955191716
1.8080208367836808 12.856701930235493 97.11831253742128 105.00006635870444 0.5158560218795253
1.8287329025063672 12.82857783872213 88.35917131633164 110.16722514041338 0.52675663911041
1.8488144268217246 12.798620673574131 80.49369975523287 115.6232208987629 0.5380957221674618
1.8682020538100332 12.76672170908685 73.40691346056646 121.3884055613258 0.5499031569690902
1.8868741149758141 12.73288464694231 67.03140374116634 127.48411382872243 0.5622084420732107
1.9047980774616868 12.697080313006381 61.27645442411818 133.9328573593988 0.5750411536823048
1.9219435012490445 12.659275892433975 56.09302034535659 140.76013008715285 0.5884369487845057
1.9382594103124449 12.61939940157158 51.40912195935219 147.99368478993117 0.6024343975974628
1.9537603686019676 12.577569269302868 47.17826925859964 155.6621131442459 0.6170696179146694
1.9683792287616586 12.533653304514704 43.353136746033194 163.79893654584632 0.6323898149046211
1.982098926542954 12.487666259150423 39.89266347740486 172.43779886838163 0.6484361595492205
1.9948923635764428 12.439602764412886 36.758007688884405 181.61818132265927 0.6652625145246235
2.0067252805593054 12.389439904466029 33.915958176777394 191.3819538975737 0.682922903814617
2.017584579951082 12.337197005340837 31.338739938651404 201.7751205028898 0.7014765212960988
2.027424470943185 12.282826607421296 29.001112779005524 212.8477163783325 0.7209863900497671
2.036240376640631 12.226373775600491 26.878695051500916 224.65495377013622 0.7415220142919144
2.043990762075074 12.167795134129223 24.95053660009103 237.2581968974469 0.7631612670734285
2.050649688269833 12.10710867379263 23.190145436903915 250.7241048803969 0.7859861612801518
2.056228089457834 12.044353302669393 21.600021813312967 265.1257383506466 0.8100848332673667
2.060686736924793 11.979542160270496 20.147877911317355 280.54500524419217 0.8355576392437553
2.063999128417066 11.912660311019735 18.82704842396576 297.0712556187745 0.8625104426208481
2.066166393408382 11.84377716355265 17.624152368470487 314.8049287131406 0.8910640802827988
2.0671666016780548 11.772900210384913 16.52856824176848 333.8554779492568 0.9213447423716719
