M[M_sun], R[km], Lambda[1], P_c[MeV/fm^3], rho_c[fm^-3]
0.24162668629717493 15.618656898711224 2160425.4255784233 3.5677272577965504 0.1711233750220791
0.2536442800304716 15.277265543831856 1723150.0323880797 3.784829661916457 0.17388829839523504
0.26604035644845225 14.981273274744678 1382936.4458261847 4.0114226258862455 0.17666691660350828
0.2788171028392752 14.72346577206158 1116369.028223317 4.2477619294112845 0.1794579052594631
0.2919713714390097 14.498391695665376 905877.3400325571 4.494472871773474 0.18226783269447938
0.30550763024140004 14.301210511637212 738668.8876333246 4.751711208623164 0.18509240811879513
0.31942484053361264 14.128105273724884 605061.0765990594 5.0201590172316815 0.1879382457135077
0.33372273220090887 13.975957627352313 497669.5066985751 5.300040602587597 0.19080197334961688
0.34840532208598113 13.841991187512626 410984.2236616552 5.592084345276088 0.19368988282035773
0.3634691971101866 13.723969222967224 340648.19225212256 5.896457835965241 0.19659704281045132
0.3789229050435392 13.619968323694987 283278.9961595539 6.214025053837846 0.19953113183170904
0.3947559835292335 13.528408978804237 236398.83117064266 6.545042725551321 0.20248831587701047
0.41098151536444943 13.447853212596405 197850.21503978194 6.890214670540511 0.20547233001856058
0.4275906405486978 13.377020579740908 166061.92591768355 7.250245425835517 0.20848623704556007
0.44458620281179184 13.3148990372524 139793.89612429068 7.625393075858513 0.21152556922273627
0.4619686038884974 13.26054947191653 117972.04592370927 8.016608434282295 0.21459651616534928
0.4797343335668835 13.213147641238685 99802.05868501191 8.424595774829797 0.21770071229669605
0.49789252259729716 13.171982056581808 84636.32341103528 8.849794875427195 0.22083560948626058
0.5164314649969792 13.136380534805514 71930.84944226443 9.293081254124022 0.2240046464971777
0.5353509796887758 13.105824258829163 61269.40821235071 9.755338833433736 0.22721072826799799
0.5546588589106509 13.079804119631362 52301.032914871415 10.237377323839773 0.23045520593123722
0.5743423890628115 13.057821994971276 44726.16842297603 10.73966606542927 0.23373475234573968
0.5943997512991501 13.039507472243084 38323.63843664652 11.263453495394272 0.23705560204457823
0.6148386894862119 13.024483360009453 32896.67845515606 11.809675633265496 0.2404193482227987
0.635643149915504 13.012448465330369 28288.664481775526 12.379311647157529 0.24382762412307218
0.6568147342903425 13.003019735752112 24367.718719174234 12.973048203283529 0.2472783533222651
0.6783470633523245 12.995972898530942 21024.830572060146 13.592216884175864 0.2507763742364911
0.7002362747659542 12.991064580627633 18170.09855053527 14.238013331948057 0.2543242986805592
0.7224698037427991 12.988003250757666 15726.058723576507 14.911627446998892 0.2579241116813684
0.7450606254019096 12.986653357289407 13632.153426489906 15.61408474462858 0.26157566728872855
0.7679820754761958 12.98676285880127 11834.540879820372 16.346659910299493 0.2652809446612703
0.7912284853327435 12.988145704376917 10287.65047722425 17.110965227819086 0.2690445941406754
0.8148025070955581 12.990679994037762 8954.72223329538 17.908456022511817 0.27286904885616736
0.838686321840712 12.994134226424343 7806.343141364829 18.74048936217511 0.2767553149655979
0.8628703106673322 12.998411489089742 6813.269240437427 19.608426473307087 0.28070402219028057
0.8873516728800976 13.003361941015221 5954.467555952756 20.51434553476634 0.28472145894631246
0.9121079171950504 13.008850524463321 5210.344936164606 21.460041038755712 0.28881063930548106
0.9371288873176022 13.014749954268478 4564.486267497293 22.44698648285563 0.292971398240437
0.9624139249026384 13.020952489052483 4003.916040182234 23.4772289401883 0.297207707806184
0.987935631447783 13.027338531244316 3515.9806244081437 24.553180871529136 0.30152558484015046
1.013679139590782 13.033795304213752 3091.5512279048994 25.67677174503858 0.30592656419409653
1.03964379962322 13.040255628962166 2720.968769606662 26.849989036270397 0.31041209857308627
1.0657958382682786 13.046584725976643 2397.7666672349087 28.075917580427422 0.31499082994980826
1.0921300446491184 13.052714447132503 2115.2892442233187 29.35659627710328 0.3196630916191405
1.1186278788354702 13.05854559339885 1868.2222362642394 30.694813776254275 0.32443379254797666
1.145261023629559 13.064001052287901 1651.8149375805967 32.09393687929923 0.3293107657060385
1.1720246658413385 13.069015579118751 1461.7932554982071 33.555941295860514 0.3342919323181257
1.1988809145662176 13.073468818802562 1295.1203429153204 35.08535369882887 0.3393907514953492
1.225828091208803 13.077342209571515 1148.7865061979767 36.684177415287685 0.3446038614793809
1.2528245601560712 13.080502280588249 1019.9542189015446 38.35748500973094 0.34994582367761834
1.2798680778448015 13.082935201094626 906.5336991122826 40.10753798441472 0.3554133398501303
1.3069124124737161 13.084520084345632 806.6388510394459 41.9397681256411 0.36102073739517515
1.3339507431797257 13.085235089815342 718.4482820049489 43.85769921634896 0.36677016928610034
1.3609595881723382 13.085034588544495 640.4826622421559 45.865982857776764 0.3726691820906819
1.387890833309068 13.08376939058691 571.6739491071027 47.96997177405178 0.37872783867414234
1.4147399781051198 13.081464406572659 510.7296789619747 50.174444733846734 0.3849518999774187
1.4414731127908242 13.07802376535338 456.7867443478862 52.48458133935105 0.39134812570805205
1.468066797258548 13.073424023083604 408.9158250579108 54.906819099699966 0.39792831455709304
1.4944772668999902 13.067559232503767 366.45832825858383 57.44734895937142 0.4047015293533404
1.520688974527443 13.060407549820365 328.7623590933885 60.11280006834265 0.41167754316126937
1.5466731311591555 13.051921208088453 295.2248824430898 62.9102792309376 0.41886689776248476
1.5723892593827016 13.042037455259898 265.406447851069 65.84741413180635 0.4262809669121789
1.5978138523680383 13.030707515316758 238.86914551827644 68.93240072250337 0.4339320249294995
1.6229009137501753 13.017879876513955 215.17952384145892 72.17405519980683 0.4418333212491936
1.6476530058544274 13.003539616244542 194.05245567428852 75.58187106096923 0.44999916163770975
1.6720017812923795 12.987602124783441 175.19674564645922 79.1657445953632 0.45844358881653435
1.6959397021699312 12.970048806597148 158.33321141980096 82.9359555274597 0.46718023845130663
1.719419364154189 12.95083414379187 143.24706605939318 86.90520216083341 0.4762304869953744
1.742397884077271 12.929878981907237 129.75797415505872 91.0850236407628 0.4856085159447203
1.7648834432147673 12.907240403591663 117.65166341894796 95.48959429403071 0.495336576500915
1.786809798719828 12.882798419066054 106.80030665282992 100.13250264509236 0.5054318692116676
1.8081480870621784 12.856538056626661 97.06470292868609 105.03031919136676 0.5159202638330961
1.8288570878935007 12.828400740234322 88.30755631527097 110.19958925286413 0.5268243038604394
1.8489357935468187 12.798428966027178 80.44502265320652 115.65800326940852 0.5381675705427423
1.8683119016149798 12.766487606764889 73.37134092614144 121.42566947459665 0.549979012640809
1.8869895142459938 12.732663115518134 66.99288071483444 127.52402688756172 0.5622884821218033
1.9049130506539846 12.696846217493153 61.24376036390427 133.975584849126 0.575125511013794
1.9220526181202808 12.659022542018915 56.06134640847288 140.80602261341494 0.5885263648777099
1.9383656859043008 12.619130534924984 51.379757056026975 148.0430171795157 0.602529290903268
1.9538605454182332 12.577282549783247 47.15387039466267 155.71502476123393 0.6171698907253893
1.9684764765599776 12.533346057540669 43.33056259539965 163.85574803294375 0.6324959392346554
1.9821893725994686 12.48733977492504 39.87104502110421 172.4990333193509 0.648549222267699
1.9949778895123678 12.439260636709916 36.73702972927687 181.68406071752833 0.6653825147558471
2.0068120547655437 12.389096218218086 33.894900746718996 191.45290604797785 0.6830504553463416
2.017657407605988 12.336817562004613 31.31921784978408 201.85161733493877 0.7016122956271955
2.0274927771234497 12.282427684447066 28.98505825432011 212.9300861416206 0.7211304910226132
2.036300691510077 12.225957042742852 26.86352610405999 224.7439588689977 0.7416758617242074
2.0440438212085743 12.16735694523876 24.937393513938297 237.3542709425853 0.7633250821459016
2.050701337672262 12.106644938070248 23.182025801248255 250.82798257927573 0.7861610117759763
2.0562727929676177 12.043893249149896 21.58961991102568 265.23832232090126 0.8102721795348612
2.060715976022157 11.979039845443351 20.13705209545806 280.666764017122 0.8357573519704663
2.064020863564956 11.912139350580764 18.817801928545016 297.2033548877004 0.8627244671062023
2.0661793551387455 11.843231867398709 17.61526275042184 314.9484292367574 0.8912937963967286
2.0671708356286693 11.772333639681356 16.52092213055941 334.01132618561206 0.9215908922119257
