M[M_sun], R[km], Lambda[1], P_c[MeV/fm^3], rho_c[fm^-3]
0.24162668629717493 15.618656898711224 2160425.4255784233 3.5677272577965504 0.1711233750220791
0.25364503508179115 15.277261559824487 1723091.4131645048 3.784852163478238 0.17388857886634754
0.2660429553780112 14.981190698325554 1382943.4957202119 4.011469929090207 0.1766674882348117
0.2788205256576027 14.72341738142474 1116348.7628460762 4.247835635041283 0.17945876013369905
0.291977306348972 14.498300592001543 905795.465993455 4.494574914379252 0.18226896896257758
0.3055146824809204 14.301112183128813 738545.432897376 4.751845053552707 0.18509385389948108
0.3194332743879135 14.128009097202112 604999.6002075995 5.020325650899267 0.18793997460212358
0.33373499547200197 13.975771372356908 497578.0916328637 5.300244412618476 0.19080402537844582
0.34841742548607807 13.841888991197393 410920.7753591656 5.592325841024789 0.1936922193581596
0.3634834490687458 13.72382642838797 340594.7855055095 5.89674244369734 0.1965997159065006
0.3789383179293571 13.61987868401752 283230.1487481382 6.214356218410995 0.19953415165386804
0.39477305665756013 13.528331325117993 236345.65935600628 6.545420103620872 0.20249162497286763
0.4110017526810299 13.44776194790503 197810.9883593325 6.890645548315537 0.20547599955450355
0.427613543457581 13.376960982436213 166035.60262217734 7.250733847454594 0.20849027763244296
0.4446115809138821 13.314806126188655 139752.66719472568 7.625937691825626 0.2115299047160214
0.4619935193992918 13.26045487143121 117938.65559589559 8.017218745244362 0.21460123741405607
0.47976314261920844 13.213062404216824 99771.36640386432 8.425276540896085 0.21770583070582103
0.49792341193289713 13.171902978785045 84609.31121252185 8.850543586878416 0.2208410304770672
0.5164667380885795 13.136313896189007 71913.15220327616 9.293910029077216 0.22401048112451624
0.5353879451359534 13.10576837319737 61250.097256257155 9.756253292392337 0.2272169891380799
0.5546988640555286 13.079752479643584 52280.52606631618 10.238376761300039 0.23046182046712857
0.5743840358120241 13.057795045800336 44710.91816594305 10.740759445224079 0.23374177218270903
0.5944443603007143 13.039479634622577 38310.081318532604 11.26465059512955 0.23706308154538733
0.6148862405736762 13.02448599897191 32886.76332796137 11.810983526367778 0.24042730239503204
0.6356944569565066 13.01239786128019 28278.254832716248 12.380737848411826 0.24383606876652725
0.6568686365207267 13.002993891310275 24357.58120428276 12.974586163247022 0.24728714367074628
0.6784043668033598 12.995955691060553 21016.925624891108 13.593888445542843 0.25078568104234433
0.7002975567278137 12.99104789290769 18162.83688921968 14.239827459343864 0.25433414041022
0.7225342382828689 12.988009851597187 15720.144782558842 14.913593681125745 0.25793450790237465
0.7451278049660535 12.986649192164261 13626.617687457698 15.616194052047494 0.26158644866909514
0.7680536746239955 12.986759530504141 11829.30029516568 16.348940860078297 0.2652923146238356
0.7913015484015312 12.988148816457032 10283.803555972236 17.11342927016801 0.26905657594422344
0.814879942284176 12.990685241097667 8950.859164716934 17.91111536688386 0.27288166725506047
0.8387686325101761 12.994146468383676 7803.011576096746 18.74333221232666 0.2767683763911141
0.8629515514735698 12.998433175130042 6809.810695465386 19.611489799604303 0.2807177654034374
0.8874387310550846 13.003376319392808 5951.516221175994 20.517644084339466 0.2847359137019901
0.9121993341803334 13.008869816294498 5207.74030183686 21.463590568727327 0.2888258373649218
0.937222874537763 13.014769346566112 4562.478709830943 22.45077220555634 0.2929871219772721
0.9625120288022555 13.020983304933749 4001.6914462322425 23.481298372520605 0.29722423498003164
0.988037294538136 13.027361512802571 3514.170618177417 24.557553172460786 0.3015429539161232
1.0137835016552337 13.033824398953582 3090.0137528477885 25.681429987830175 0.3059445412501562
1.03975200446064 13.040288709103585 2719.535413488279 26.85499017991431 0.3104309919932193
1.06590849623447 13.046611665573673 2396.6530754798337 28.08128504072425 0.31501068651939684
1.0922441898685231 13.05274374943552 2114.12976450173 29.362311028098752 0.3196836612138492
1.1187473224332902 13.05857417747081 1867.0457826378054 30.70094406010466 0.3244554175214914
1.14538332479817 13.06403703869721 1650.8258408998724 32.100462684959716 0.3293331877315219
1.1721500806564664 13.069032517699595 1461.0293065869273 33.562939186226615 0.33431551593017217
1.199010483626104 13.073493301474167 1294.4169731132372 35.09285671053934 0.33941556192100464
1.22596010293733 13.077353773308374 1148.136186564227 36.69216377152456 0.34462962422833965
1.252959639954339 13.080509488303406 1019.4203753443536 38.365987128098006 0.3499725960332875
1.2800061750306353 13.08295033766647 906.0018819556568 40.11665252187437 0.35544153718406024
1.307059784191892 13.084548093874858 806.1377964273091 41.94947327654311 0.36105007753667584
1.334093293004953 13.085242389939996 717.9562009475469 43.868103816441234 0.3668010971384375
1.3611041071100278 13.085027343629747 640.0966775973548 45.877065101758454 0.3727014077507716
1.3880449309148455 13.083779078850855 571.298415644081 47.98177900818919 0.3787614458739555
1.4148915892608227 13.081449125655828 510.3935082128704 50.18710645936223 0.3849873795276641
1.4416248723558458 13.078001664297842 456.4976806646792 52.498077451935266 0.39138518097665187
1.4682210580481574 13.073394574287395 408.67144888727046 54.9212093728031 0.39796705058425247
1.4946327992395878 13.067517384599066 366.2167776632731 57.46269800886855 0.40474205930059554
1.5208457377620124 13.060363112226751 328.5598517445801 60.1291777861592 0.4117199889785494
1.5468305417678252 13.05186320188159 295.0403533621338 62.92776126194964 0.41891139092129354
1.5725487847912127 13.041969248039056 265.2309653143257 65.86608239883543 0.4263276492119898
1.5979621931870727 13.0306236964241 238.69153261826114 68.95234400481279 0.4339810493852954
1.623071391524119 13.017804933116071 215.03778390831357 72.19536977116952 0.44188485306902403
1.6478137513461684 13.003438539597658 193.91683346309483 75.60466139413249 0.4500533793002126
1.6721620392138539 12.987492034381809 175.0835414063158 79.19000510241584 0.4585001883019299
1.6960981574744893 12.969926149163475 158.21739488543682 82.96192297194818 0.46723991156311173
1.7195783787784262 12.950696735297152 143.14697386080155 86.93301025272217 0.4762934586416609
1.7425555277233191 12.92972682712233 129.66472024901728 91.11468395359697 0.48567449922320766
1.7650391226161293 12.907073034813719 117.5668620860758 95.5213926377996 0.4954063491673691
1.7869499437430871 12.882589211435386 106.7251280277661 100.16646671004519 0.5055051621903466
1.8082993636808251 12.856343318689975 96.99570698592653 105.06662514501218 0.5159973596017624
1.8290033167819593 12.828184650323971 88.24947623582185 110.23842925403098 0.5269055079711376
1.8490827962419671 12.798199509728004 80.39377347806597 115.69974583229295 0.5382537962734105
1.868453994623111 12.766239386592643 73.31729066443035 121.47039056273948 0.5500700483878173
1.8871297233602604 12.732399525113303 66.94676338048534 127.57180757257665 0.5623841113798846
1.9050478925044172 12.696557930726627 61.200396210657715 134.02686379532236 0.5752267515755571
1.9221845555250625 12.658716484304321 56.023830136344635 140.8611006001969 0.588633677741061
1.9384913679503004 12.618814824285215 51.3444601000775 148.10222413986787 0.6026431784372355
1.9538569820324925 12.577203891031047 47.1500162536719 155.7869230211554 0.8031426724037621
