M[M_sun], R[km], Lambda[1], P_c[MeV/fm^3], rho_c[fm^-3]
0.24162668629717493 15.618656898711224 2160425.4255784233 3.5677272577965504 0.1711233750220791
0.2536414718774551 15.277358350338957 1723222.4179233026 3.7847896622210393 0.17388779981832816
0.2660363705513714 14.981333684031531 1383014.9963504444 4.01133853876366 0.17666590046025665
0.27881019136777613 14.723596109775883 1116498.194732266 4.24763091029008 0.17945638563509872
0.2919619951294968 14.498530118435992 906002.5506516738 4.4942914828470775 0.18226581288668578
0.3054961063913241 14.301343822078215 738734.6239384218 4.751473291172938 0.18508983815626043
0.31940952640145936 14.128277166158817 605194.7999688184 5.019862818950135 0.1879351725420146
0.3337051380027375 13.976144700646708 497802.6381089211 5.299678325722046 0.1907983258227068
0.3483841513418009 13.842112872661927 411088.56433113146 5.591655085571765 0.19368572961463312
0.36344328073870036 13.724149676237955 340730.1498443589 5.895951949919056 0.19659229142164866
0.37889531243665536 13.620125082301707 283371.33956331626 6.213436419917495 0.1995257641991168
0.39472326600530055 13.528606084527375 236471.17109662938 6.544371955169055 0.2024824341269244
0.41094601697160954 13.44802269928297 197928.73953063242 6.8894488150837425 0.20546580767211198
0.4275506620606005 13.377185919266434 166140.89242238822 7.24937729911955 0.2084790552557207
0.44454370112592917 13.315033554365456 139854.90584722016 7.624425077533835 0.21151786333365097
0.4619207977704146 13.260676536139828 118025.09475335255 8.015523680919907 0.21458812472110578
0.47968209581772425 13.213275623377582 99845.5687782909 8.423385808311806 0.21769161503998294
0.49783551265685794 13.172086013083273 84678.05011543173 8.848464157282255 0.2208259745183191
0.5163701094952168 13.136496895007847 71967.51417063059 9.291608250220815 0.223994276457868
0.535284612934947 13.105925734380115 61302.69787607907 9.753713557182694 0.2271996007664745
0.5545874122972357 13.07990303523212 52324.87934735573 10.235589181857994 0.23044329760319504
0.5742655689629759 13.057933849830835 44751.191535280646 10.737722827285701 0.23372227615491814
0.5943194489272938 13.039577573543333 38013.520662152856 11.261325939110636 0.23704230903441717
0.6147517271412318 13.024546126889666 32917.97031226968 11.807351191242514 0.2404052117370531
0.6355500192272763 13.012475340011935 28309.14756663946 12.376776967777374 0.24381261609838156
0.6567175720438637 13.003049655866846 24384.2849278782 12.970314926129934 0.2472627310308882
0.6782453807788867 12.995998354388604 21039.495284509227 13.589246198277923 0.2507598342533057
0.7001283496276658 12.991081474462197 18182.26858953985 14.234789310252836 0.2543068082055142
0.7223581650418253 12.988014657200303 15739.202821283992 14.908133139163635 0.2579056359586541
0.7449414307403828 12.986653992615862 13642.146640624542 15.610336203302353 0.2615565072319746
0.7678571112825203 12.98675652130543 11842.726250225302 16.342606375516354 0.26526073880703793
0.7910966456251693 12.988123414079359 10295.263921362048 17.106586357402445 0.2690233011766492
0.8146672585333196 12.990650518718484 8962.234423329242 17.903730125693528 0.2728466248136824
0.8385441635635782 12.994116625326159 7812.115090151865 18.73543739949584 0.27673210381104235
0.8627223715378449 12.998367733554087 6819.270264794778 19.602982761415674 0.2806795996881932
0.887191278595199 13.003326457844995 5959.690694125509 20.5084838754524 0.28469577224633413
0.9119458398085939 13.008812428381864 5214.752138269521 21.45373343991222 0.2887836319938318
0.9369605049805685 13.014702910721457 4568.378796993211 22.44025921847353 0.2929434570141172
0.9622351197683354 13.020899501604182 4007.284274398604 23.469997594174238 0.29717833916137865
0.9877546292542898 13.027294310971186 3519.3447857317456 24.54541140968933 0.30149472045659764
1.0134916290496299 13.033755624290977 3094.1540084710896 25.668494240341733 0.305894619709314
1.0394503226370906 13.040206244697924 2723.5801176074156 26.841102302655035 0.31037852609371747
1.0655985863417048 13.04654807276237 2399.9855076416616 28.06638002334973 0.3149555463789302
1.0919232119815758 13.05266444741309 2117.274133892773 29.34644169732403 0.319626541366879
1.1184171522490705 13.058501329928832 1870.0558012958682 30.683920948862674 0.32439536739351515
1.1450430525644635 13.063959573266535 1653.2707551217827 32.08234135388881 0.3292709246228416
1.1718014354998483 13.068973822629374 1463.3072052641767 33.543507070685905 0.33425002769726503
1.198651989534828 13.073433134979714 1296.456110928506 35.07202209321512 0.339346667489791
1.2255944056847392 13.077308833519679 1149.9727962184384 36.669987113691164 0.344558085763042
1.2525854155225642 13.080471677931618 1021.0402062347761 38.342302895097696 0.34989781137573556
1.2796234482736273 13.08292332896019 907.4617384224472 40.09134344116027 0.35536323934354835
1.306663053749037 13.084515111573374 807.4551237011625 41.92252435267039 0.36096860685706456
1.333696214242174 13.085232889400444 719.1997922313379 43.83921290253036 0.366715218401014
1.360700386022064 13.085036363053062 641.2033248253916 45.84629273473311 0.372611925887572
1.3876276662396214 13.083789119117853 572.3123591275463 47.948993748273246 0.37866812844092257
1.4144812722293238 13.08150821838386 511.28030070090836 50.151948800050626 0.3848888638918188
1.4412091607098227 13.078084780299308 457.2666438707173 52.46060320583064 0.39128229073723525
1.4677952613745822 13.0734781346261 409.387919946965 54.8812526055881 0.3978594941529776
1.494201533050964 13.067623460859652 366.8833366578476 57.420079345204265 0.4046295225477028
1.520410785444846 13.060492984925334 329.1408930781821 60.083703206260196 0.4116021333816402
1.546392390105241 13.05201806512475 295.5692884131411 62.8792207780786 0.41878785153070214
1.572107011978865 13.042153096617264 265.71254592365756 65.8142485983447 0.4261980324130081
1.5975300319586332 13.030840930174762 239.14878639183405 68.89697044473303 0.43384493043525124
1.6226179949061885 13.018041217236425 215.44394982377915 72.13618920750226 0.4417417733845926
1.6473683113042779 13.003714502756877 194.28415174168293 75.54138382691431 0.4499028434673723
1.671718073024598 12.987801934099126 175.4059643106156 79.12264603329332 0.4583430403643049
1.695656395319267 12.970272523612152 158.51435397498062 82.8898251987695 0.46707423109032986
1.719130439553102 12.951071339982574 143.4299986217222 86.85580263061307 0.4761186213644566
1.7421256342757083 12.93016189454895 129.91273279499467 91.03233434563393 0.485491301657291
1.7646105988861622 12.90754333913124 117.79126712917102 95.43310773005832 0.49521263236672275
1.7865364203897758 12.883120887133273 106.92667687462334 100.07216963001024 0.5053016731825941
1.8078773825813157 12.856888124815125 97.18071893647831 104.96582690877793 0.5157833143358377
1.8285914245872312 12.828778390355819 88.4175410512252 110.1304783492046 0.5266796186128003
1.8486750922295427 12.798838815668681 80.54320631317547 115.58385573750778 0.5380144073281816
1.868066501863446 12.766957697147674 73.45631294579329 121.34623227267133 0.5498173076081758
1.8867423607399658 12.733137685906339 67.07381959642663 127.43889569962359 0.5621176896489112
1.9046720117295 12.697346815882948 61.317898972538096 133.88450153236047 0.5749456842653801
1.921819568149566 12.65956320963518 56.12915855737696 140.7081928123689 0.5883357552224792
1.9381469484996179 12.619734169648032 51.44223376112815 147.9378551323566 0.6023270064734194
1.9536402072762147 12.57786800483986 47.20898791751061 155.6022334181944 0.6169561398397567
1.9682708893335226 12.53399802789557 43.3810179390951 163.73451709309708 0.6322692863578423
1.9819973321399103 12.488033819410047 39.918505965651434 172.36850168740204 0.6483082098813387
1.9947963577879977 12.439989244902346 36.779883032814354 181.54362837609509 0.6651267152987217
2.0066369159765873 12.3898503190555 33.94064042221435 191.30166119566763 0.6827785606614343
2.01750065260188 12.337627973384816 31.357241923920117 201.68855415785544 0.7013228745727287
2.0273497563732783 12.283281319026408 29.019295187994217 212.75450502619898 0.7208233223658675
2.0361720842207416 12.226850119222295 26.895758911958616 224.55423495179906 0.7413479194166437
2.043930182471684 12.168294891798213 24.96588677080729 237.14948007161684 0.7629758948984905
2.050603234331153 12.107627190824502 23.208781732714897 250.60636890620037 0.7857876850405667
2.0561849171382396 12.044897835444853 21.61311082106983 264.99834225206905 0.8098728387577764
2.0606533831619003 11.980113337024303 20.160196725415908 280.40716968873704 0.8353314605648767
2.0639813875159914 11.913266783040209 18.838554845947826 296.9217805657803 0.8622682662518908
2.06615202514761 11.84439358680894 17.6337706551351 314.6425550378671 0.89080415196513
2.067162860140854 11.77354145413955 16.538039792465256 333.6791350608874 0.921066222865663
