M[M_sun], R[km], Lambda[1], P_c[MeV/fm^3], rho_c[fm^-3]
0.24162668629717493 15.618656898711224 2160425.4255784233 3.5677272577965504 0.1711233750220791
0.2536397723565038 15.277420524856785 1723302.6802384022 3.784759270291952 0.17388742099759363
0.26603274802184945 14.981409000957761 1383205.9382270055 4.011274649873485 0.17666512840072351
0.2788041018887271 14.72372254407987 1116590.4411444627 4.247531364018214 0.17945523104835812
0.29195495423042517 14.498632250784741 906116.9231192865 4.494153668099559 0.18226427828748704
0.3054858094838134 14.301477366214542 738888.5939445441 4.75129252975032 0.18508788558790779
0.3193997435303855 14.128363294962186 605231.6795559828 5.0196377804541585 0.18793283768076197
0.3336916723899506 13.976210507000134 497867.08912810154 5.299403086988184 0.19079555462536046
0.34836716167225756 13.842318725886004 411176.71373513807 5.591328960565703 0.1936825742654856
0.3634259789291691 13.72425311754531 340827.4940308327 5.895567613563044 0.19658868165325874
0.3788725796389569 13.620288231954316 283449.3889198973 6.212989222918065 0.19952168630094225
0.39469980309034874 13.52871578420904 236532.9535020621 6.54386236299395 0.20247796569197404
0.41091904814471597 13.448141957748206 197986.01350385597 6.8888669924480235 0.2054608526263938
0.4275201303413403 13.377314611033007 166205.98668553308 7.248717788361828 0.20847359929224019
0.44451007432279643 13.315166013185413 139896.1442391078 7.623689702543489 0.21151200927588323
0.46188449257966235 13.26078755104101 118067.38873219489 8.014699618141627 0.21458174992928963
0.4796420782759979 13.213375133628709 99884.4756521678 8.422466634353224 0.21768470413679603
0.4977924530494038 13.172172110129745 84710.55391609935 8.847453262157826 0.22081865520569596
0.5163243400777264 13.136563908689654 71997.17524130666 9.290489278651442 0.22398639882825988
0.5352347344032967 13.10599203874879 61327.248325380984 9.75247892529234 0.2271911478230244
0.5545347631586096 13.079958170176589 52349.41350879304 10.234230845077798 0.23043425161012782
0.574207130872995 13.057951077662713 44769.81341165272 10.73624668802298 0.23371279888360075
0.5942594398984917 13.039646463897625 38363.0508703129 11.259709804368036 0.23703221139529937
0.6146867293205718 13.024591600696336 32935.2172909595 11.805585517592545 0.24039447349529985
0.6354791312819555 13.01251956423312 28322.92686967534 12.374851616569545 0.24380121595101323
0.6566441315476503 13.003074221077354 24395.674114898295 12.968238738622444 0.24725086439447616
0.6781674764362075 12.996022088499979 21050.585812733127 13.586989700703358 0.2507472706793624
0.7000471304585442 12.991092698823056 18192.43446547885 14.232340408725378 0.25429352279520906
0.7222712669720638 12.988024537883025 15747.251325651196 14.905478962954618 0.25789160232853775
0.7448509037490153 12.986656557733241 13649.88851899774 15.607488944521338 0.26154195393374746
0.7677615942168924 12.98675082444862 11849.720266644814 16.339527488412383 0.26524539132703623
0.7909990211113062 12.988117038098984 10301.753711395166 17.10326039632863 0.2690071281542121
0.814562381200444 12.990629411224957 8967.87670193321 17.900140621252305 0.27282959287177067
0.8384354843436171 12.994097817952275 7817.133460024195 18.731600269939147 0.2767144741861135
0.8626067391798907 12.998358776604725 6823.37269917718 19.59884813164152 0.2806610502119712
0.8870717396170597 13.003295177462308 5963.421754794405 20.504031854399777 0.28467626279978475
0.9118228796697908 13.008785357262958 5217.997293431996 21.44894277479847 0.28876311975312896
0.9368326257005242 13.0146770593394 4571.5664160717715 22.435149861113434 0.29292223565247033
0.9621013166046355 13.020869660623235 4010.058202905894 23.464505449260226 0.2971560339290076
0.9876153205422825 13.027273961306584 3521.4833444403894 24.539510638059163 0.3014712794921388
1.013353994297517 13.03372590562979 3096.6309899234598 25.66220767727822 0.3058703586517282
1.0393032123089823 13.040169124555891 2725.470570590824 26.834353123509995 0.31035302891022915
1.0654482146493258 13.046508540826187 2401.7651002864327 28.059136650364717 0.3149287499925987
1.0917670888881503 13.052628329065874 2118.893924614117 29.33872979487379 0.31959878325319035
1.1182558235070197 13.058475368521298 1871.4081171383082 30.6756484825725 0.32436618573263415
1.1448787346259417 13.063928468068648 1654.5868863708279 32.07350680405326 0.32924048350821583
1.171632238222426 13.068943493609844 1464.3743791164059 33.53406420954696 0.3342182042816271
1.198478271115221 13.073407039022396 1297.503097371422 35.06189786392625 0.3393131894082174
1.2254157978742979 13.07728228521742 1150.8779489926978 36.65921088584753 0.3445233233201426
1.2524034869492688 13.080459557588552 1021.9184794419315 38.33075073870822 0.34986121667677816
1.2794382230725674 13.0829019611344 908.2377817070973 40.079045459368615 0.35532519349637526
1.3064737086697484 13.084509462639346 808.107601476584 41.909429733877346 0.36092901984062714
1.3335021407493484 13.08523057442934 719.8161264705524 43.82517490473915 0.3666734902116607
1.3604991049979624 13.085050963502072 641.7343853128623 45.83134076041288 0.37256844757732094
1.3874294658794242 13.083800504156128 572.7998188521525 47.93306396366415 0.3786227871316787
1.4142783179990892 13.081531917532066 511.7111194564733 50.1348666183853 0.38484099773629726
1.4410037614649462 13.078118381433558 457.66225513637335 52.442395732801046 0.3912322998380466
1.4675850890820925 13.073520752517396 409.7291716444349 54.861839260835744 0.39780723692031816
1.493990999220941 13.06767542117718 367.19757343024486 57.399373023237914 0.4045748464495313
1.520198844636194 13.06055731605802 329.4304125241671 60.061609692440946 0.41154487404544027
1.5461788035513884 13.05209692381544 295.832750801062 62.85563810635091 0.4187278317562496
1.5718936455829784 13.042242260953138 265.9740906106626 65.78906634422688 0.42613506108659566
1.5973093110625782 13.030934178475365 239.35365188163973 68.87006894629722 0.43377880133471264
1.6224016500865337 13.018153263648829 215.62152526574766 72.10743870617091 0.44167226386317504
1.6471524259203725 13.003847886628193 194.4606202592818 75.51064351889681 0.4498297130030922
1.671506251553752 12.987950367935152 175.5612165629022 79.08988882845559 0.4582665543755023
1.6954417569903886 12.970438020083908 158.67082006823955 82.85480123573345 0.4669937461252794
1.7189063839466723 12.951227631079714 143.55555754485215 86.81829711605913 0.4760336898270562
1.7419202654372055 12.930385991060518 130.02861194643927 90.99233166415449 0.48540231041545695
1.764400249202309 12.907767672541876 117.90545840003796 95.39022275983275 0.49511853316629933
1.786327923557007 12.883367273075296 107.02569519108742 100.02636503722593 0.5052028288585416
1.807673028621162 12.857145246095252 97.27158092858473 104.91686531013994 0.5156793442785024
1.828400478137749 12.829091255979435 88.50353377298357 110.07789380753856 0.5265693404978762
1.8484765717339777 12.799146217914267 80.61937118281918 115.52756581129815 0.5378981317647927
1.867873299487048 12.767293414222266 73.52482381485157 121.28592757465549 0.5496945493422221
1.8865533087474742 12.733498335176959 67.13591992516682 127.37423786748909 0.5619879218957311
1.9044869809320408 12.697731514849629 61.37386562200505 133.81535781512352 0.5748091730986207
1.9216422853709014 12.65997549171751 56.18109116585645 140.63392894031955 0.5881910609586037
1.9379775747511643 12.620169580298507 51.49201107971948 147.85802667410525 0.6021734524622595
1.9534751135809416 12.578332821426823 47.25511040285905 155.51661496687518 0.6167938843039791
1.9681146437397439 12.534490460830197 43.42209388754206 163.64232124828678 0.6320966557206177
1.9818502802468225 12.48855778481978 39.955713412283686 172.2694204375523 0.648125267186811
1.9946540518019273 12.440538753997584 36.81384174672979 181.43703385614222 0.6649325519026109
2.0065071432141317 12.390434131617491 33.967622553220664 191.18686167604704 0.6825721841881992
2.017381711169065 12.338241674263962 31.38770416816029 201.56478661079748 0.7011031993853626
2.027240020375158 12.283925877847077 29.046565040074633 212.62123867060694 0.7205901808498321
2.0360737252084573 12.22753030649511 26.918856353069145 224.41023725228888 0.7410990159649413
2.043843717871227 12.169010042687443 24.987050029683694 236.99404995164136 0.7627108722658782
2.0505302832776686 12.108378067976878 23.230313331613687 250.43804712765396 0.7855039325692074
2.0561240265769616 12.04567588069863 21.632017035009486 264.8162127926839 0.809569764755861
2.0606046927209336 11.98092381064091 20.178029192811337 280.20984859506433 0.8350072311702439
2.063946892247789 11.914117001555963 18.85401525332238 296.7080934938542 0.8619220549066827
2.066132766999737 11.84527771555084 17.64887262071956 314.4104325614138 0.8904325695353056
2.0671568480491747 11.774464450224134 16.5515263760159 333.42704734550557 0.920668070455842
