e[MeV/fm^3], P[MeV/fm^3], rho[fm^-3], v2[1], mu_q[MeV], mu_e[MeV]
71.58195607221194 0.019376260638347076 0.07551183166112621 0.01806185032450322 316.57195128971085 89.92341642585284
74.10016491175249 0.06485977178396946 0.07815115873557246 0.01806185032450326 316.72146406873105 91.024765790619
76.70639143836377 0.11193304521937247 0.08088273688183939 0.018061850324503265 316.876202692721 92.16461006582368
79.40371208999426 0.16065164710631397 0.08370979050524349 0.018061850324503224 317.0363498180116 93.34429474471072
82.19531083378259 0.21107308578268988 0.08663565671212049 0.018061850324503186 317.2020944852288 94.56521234887349
85.08448292446792 0.26325687964638034 0.08966378924900394 0.018061850324503227 317.3736323424404 95.82880407201151
88.0746387941701 0.317264627411876 0.09279776257949199 0.018061850324503234 317.55116587610246 97.13656148114251
91.1693080781302 0.37316008082260077 0.09604127610361388 0.0180618503245032 317.7349046500787 98.49002827727713
94.37214378115249 0.4310092199045644 0.09939815852466523 0.018088487354544512 317.9250655530129 99.89080211763012
97.6869757993967 0.49106090179612444 0.10287237236868205 0.019255301458732603 318.1222990017657 101.33984570908403
101.11986451800226 0.5612123980307122 0.10646801866188291 0.021662464342603646 318.3451487000273 102.80997251328064
104.67528624500615 0.6427510757917515 0.11018934177159138 0.024237271178381786 318.59574432277356 104.30486344182296
108.35791622476958 0.736980624741799 0.11404073441636543 0.026920267095794273 318.8759904930379 105.82396075340817
112.1727714362078 0.844944139362974 0.11802674285124978 0.029903169158792375 319.1863342944128 107.33131489870814
116.12536221854529 0.9697012467608513 0.12215207223425231 0.033128604049492305 319.53184301002517 108.83594926945497
120.22058430169312 1.1120115025052542 0.12642159218040233 0.03642699727296762 319.9131521806471 110.36057643612367
124.4640269233187 1.2739597956119093 0.130840342509936 0.04005797794488111 320.3330553238233 111.91312631407268
128.8618971317408 1.458760515403257 0.13541353919739 0.044167339746025575 320.79588975142224 113.49907969978847
133.4208715816421 1.6702641954106736 0.1401465805286361 0.04845346643322773 321.30651694759945 115.12367962053304
138.14674713038173 1.9093441223752088 0.14504505347311691 0.052773525840877133 321.864973007233 116.79378000164584
143.046301157445 2.1790046101745664 0.1501147402788089 0.057528169039875315 322.47450701812625 118.51374226197309
148.1273960447996 2.4844335534151987 0.15536162529769304 0.06284216502195894 323.1410092423423 120.28727240461446
153.3980665613772 2.830586859448035 0.16079190204979565 0.06832610081857435 323.8695330774141 122.11815106148126
158.86527298295658 3.219172163942335 0.1664119805341341 0.07388078486914754 324.6608118435546 124.01003694966207
164.53733520637863 3.6547355939838426 0.17222849479519628 0.08003547718389081 325.5190968335605 125.96563778643767
170.4244790514288 4.145740845861174 0.17824831075389239 0.0868529844855449 326.4526563846883 127.98699818273994
176.53631225317216 4.698462512306701 0.18447853431221173 0.09382020158110449 327.46672096984696 130.0757416868159
182.8813754413206 5.316058719226849 0.19092651974116215 0.10090610940848843 328.5630444196908 132.23321948878043
189.47003531795517 6.005327445562022 0.19759987836188778 0.10878861147005087 329.74707517392477 725.871560301083
196.31596471295904 6.779778757210621 0.2045064875302128 0.11740966184855067 331.0300349266862 713.549823568947
203.43050851080594 7.646768440999467 0.2116544999352168 0.12608946577877583 332.4166501261103 700.2325644738683
210.8244028704521 8.611548461528256 0.2190523532228215 0.1349022716417198 333.9096258088783 685.8938034402876
218.51074020607123 9.683761637930058 0.2267087799557421 0.144675685399567 335.51527196244086 670.4729384080204
226.5082297443755 10.883905458890382 0.2346328179215674 0.15515575564888284 337.2475539070624 653.8358443592654
234.82991040706085 12.219142432571214 0.24283382080112978 0.165468793415954 339.10915812779723 635.9567198910537
243.4895649756236 13.697245910404929 0.251321469209763 0.17584512352042914 341.1031533419793 616.8060925846185
252.5038440061727 15.330749682934059 0.2601057821244808 0.18722157626269964 343.23564238728784 596.3253498770629
261.8986645589929 17.148496170258692 0.2691971287105613 0.1990941783168373 345.52172126130665 574.3695075570461
271.6882403462793 19.154773742642355 0.2786062405615009 0.21042316819891171 347.9601724040327 550.950259252354
281.89049785111735 21.359861900727388 0.28834422436678714 0.22164620815909453 350.553435966267 526.0441693909098
292.5265475405733 23.778386588672046 0.29842257502243846 0.2337246132981532 353.30588629997703 499.6092260442797
303.63223194734013 26.447522162853414 0.3088531891997931 0.24592594617416275 356.23075742095136 471.51832775187256
315.221644345916 29.365222005850605 0.3196483793885593 0.2571506414649065 359.3222217150829 441.8274437883671
327.3182001354512 32.54397588998893 0.3308208884307057 0.2680601823279971 362.5812187590644 410.5275503191312
339.94834281111105 35.99922256647753 0.34238390456234696 0.27953912812815473 366.0093102394057 377.6036486741058
353.1609909336148 39.77515980981052 0.35435107698138235 0.29073954455728535 369.6146067251103 342.9778437394375
366.9678973380775 43.86090014922628 0.36673653195926065 0.30065088098701787 373.38857293297076 306.73210964751144
381.39961501803265 48.271172544303795 0.37955488951589167 0.3105407308338153 377.3304189270836 268.8740330605095
411.4125967614177 57.868024678671475 0.4058186809772761 0.011376680835684553 381.43924800134255 229.41222607755947
437.56483688973765 58.20049434010727 0.4914113624370168 0.014049031057788316 385.715199445606 188.3453509380957
703.6626419378308 65.556648296229 1.3650409057875625 0.04043517890496412 390.1519632333736 148.15732056794823
909.3842035444594 75.90931418376732 2.053761131522267 0.06297480187786425 394.74706680995223 109.4908841546897
1083.5582401827419 88.74347912235724 2.6643860584938253 0.0810635034915681 399.4973996827608 72.32102799345046
1258.2850523187337 104.20060865259882 3.327295341595775 0.24086272851218515 404.39704715862416 35.033443139955025
1317.8121874969995 121.62912933593722 3.515545894035937 0.4091619093235326 409.443966892103 2.4499803631641104
1356.0648108131911 140.1414130375849 3.608328902540845 0.48261516503416213 414.635064288593 0.0
1396.545298421461 159.62081059070863 3.7053612378129728 0.47973996239631456 419.965155467323 0.0
1439.440532188429 180.13279395887872 3.8068359336855195 0.47674837650776225 425.42575827814784 0.0
1484.8895613487157 201.73122295250832 3.9129480337407037 0.4738619757001503 431.0191767573046 0.0
1532.9308404365343 224.4270380851139 4.023708008458624 0.4709427652758631 436.7425864142945 0.0
1583.8036666982086 248.30547429725274 4.139373506385729 0.4680384952396257 442.58863755631796 0.0
1637.420055521815 273.3244813894986 4.259732551866212 0.46520878337861626 448.5493841174104 0.0
1694.1222691921628 299.6176344847521 4.385274629356639 0.46234066300400256 454.6305491184618 0.0
1753.9977412958185 327.21417873537973 4.516068812833783 0.4596025532970782 460.8299726039833 0.0
1817.0307119573476 356.0982657789556 4.651984713362026 0.4568060699223597 467.1378280933174 0.0
1883.605928517809 386.40955760504033 4.793456442913794 0.45403086587687946 473.54898535308183 0.0
1953.7164580674716 418.14864568186084 4.940501585743423 0.4514422021047806 480.071280830431 0.0
2027.556925688403 451.38547454526 5.093327245676493 0.4487580567445595 486.70328412661297 0.0
2105.439820599054 486.2244417666763 5.2521818578123165 0.44609329065412195 493.4322960810193 0.0
2187.3197258989176 522.6444887128833 5.416954453255372 0.4435846983682068 500.25755711425035 0.0
2273.514808618662 560.7691843647548 5.588081104125051 0.4411072120170805 507.1877539542807 0.0
2364.2543420180773 600.680430939849 5.7657939678140275 0.43863952057681876 514.2221043128914 0.0
2459.6301884454615 642.3952905666342 5.950005528000079 0.43618233971337617 521.3446486630854 0.0
2559.9700130133797 686.036017569972 6.141103324094727 0.4337927344279482 528.5600614898749 0.0
2665.538774668614 731.7047437462438 6.339432624029381 0.43147917310164896 535.8768235754889 0.0
2776.605565620744 779.4971352716399 6.5452535074832205 0.42920486492555865 543.2946808831524 0.0
2893.1443237826475 829.3818369109498 6.758276470708635 0.4269773558614798 550.7940656725807 0.0
3015.592450872201 881.5260951443927 6.979059109258984 0.4247944611373957 558.3858568647358 0.0
3144.365628908889 936.085587631148 7.208091138383742 0.4226546763472392 566.0774961051789 0.0
3279.7806453491908 993.1724073456728 7.445664514394065 0.42055870032222176 573.8691457199808 0.0
3421.7318825983275 1052.7208483603067 7.691330467952259 0.4185131617134936 581.7373188974098 0.0
3570.8464785257443 1114.9728052304479 7.945907971533047 0.41651359642198127 589.6997099959373 0.0
3727.5748503803643 1180.0935535297099 8.209878520793236 0.4145588687210484 597.7620710944946 0.0
3892.287940607271 1248.2137904585088 8.483568518338592 0.4126485199554897 605.9248908074412 0.0
4064.7731264545496 1319.2232765351007 8.766336386878045 0.4107854149821275 614.160475058444 0.0
4245.932047091343 1393.469641603417 9.059353815590715 0.40893856211806767 622.493868083454 0.0
4436.4511102240085 1471.1994051975473 9.363285850422152 0.4071328950741111 630.9286144231583 0.0
4636.576533305914 1552.4969910123402 9.678301168124596 0.4053334529072785 639.4654611461091 0.0
