e[MeV/fm^3], P[MeV/fm^3], rho[fm^-3], v2[1], mu_q[MeV], mu_e[MeV]
71.58195607221194 0.019376260638347076 0.07551183166112621 0.01806185032450322 316.57195128971085 89.92341642585284
74.10016491175249 0.06485977178396946 0.07815115873557246 0.01806185032450326 316.72146406873105 91.024765790619
76.70639143836377 0.11193304521937247 0.08088273688183939 0.018061850324503265 316.876202692721 92.16461006582368
79.40371208999426 0.16065164710631397 0.08370979050524349 0.018061850324503224 317.0363498180116 93.34429474471072
82.19531083378259 0.21107308578268988 0.08663565671212049 0.018061850324503186 317.2020944852288 94.56521234887349
85.08448292446792 0.26325687964638034 0.08966378924900394 0.018061850324503227 317.3736323424404 95.82880407201151
88.0746387941701 0.317264627411876 0.09279776257949199 0.018061850324503234 317.55116587610246 97.13656148114251
91.1693080781302 0.37316008082260077 0.09604127610361388 0.0180618503245032 317.7349046500787 98.49002827727713
94.37214378115249 0.4310092199045644 0.09939815852466523 0.018088487354544512 317.9250655530129 99.89080211763012
97.6869757993967 0.49106090179612444 0.10287237236868205 0.019255301458732603 318.1222990017657 101.33984570908403
101.11986451800226 0.5612123980307122 0.10646801866188291 0.021662464342603646 318.3451487000273 102.80997251328064
104.67528624500615 0.6427510757917515 0.11018934177159138 0.024237271178381786 318.59574432277356 104.30486344182296
108.35791622476958 0.736980624741799 0.11404073441636543 0.026920267095794273 318.8759904930379 105.82396075340817
112.1727714362078 0.844944139362974 0.11802674285124978 0.029903169158792375 319.1863342944128 107.33131489870814
116.12536221854529 0.9697012467608513 0.12215207223425231 0.033128604049492305 319.53184301002517 108.83594926945497
120.22058430169312 1.1120115025052542 0.12642159218040233 0.03642699727296762 319.9131521806471 110.36057643612367
124.4640269233187 1.2739597956119093 0.130840342509936 0.04005797794488111 320.3330553238233 111.91312631407268
128.8618971317408 1.458760515403257 0.13541353919739 0.044167339746025575 320.79588975142224 113.49907969978847
133.4208715816421 1.6702641954106736 0.1401465805286361 0.04845346643322773 321.30651694759945 115.12367962053304
138.14674713038173 1.9093441223752088 0.14504505347311691 0.052773525840877133 321.864973007233 116.79378000164584
143.046301157445 2.1790046101745664 0.1501147402788089 0.057528169039875315 322.47450701812625 118.51374226197309
148.1273960447996 2.4844335534151987 0.15536162529769304 0.06284216502195894 323.1410092423423 120.28727240461446
153.3980665613772 2.830586859448035 0.16079190204979565 0.06832610081857435 323.8695330774141 122.11815106148126
158.86527298295658 3.219172163942335 0.1664119805341341 0.07388078486914754 324.6608118435546 124.01003694966207
164.53733520637863 3.6547355939838426 0.17222849479519628 0.08003547718389081 325.5190968335605 125.96563778643767
170.4244790514288 4.145740845861174 0.17824831075389239 0.0868529844855449 326.4526563846883 127.98699818273994
176.53631225317216 4.698462512306701 0.18447853431221173 0.09382020158110449 327.46672096984696 130.0757416868159
182.8813754413206 5.316058719226849 0.19092651974116215 0.10090610940848843 328.5630444196908 132.23321948878043
189.47003531795517 6.005327445562022 0.19759987836188778 0.10878861147005087 329.74707517392477 134.4600859855788
196.31596471295904 6.779778757210621 0.2045064875302128 0.11740966184855067 331.0300349266862 136.75533593637135
203.43050851080594 7.646768440999467 0.2116544999352168 0.12608946577877583 332.4166501261103 139.11816799894396
210.8244028704521 8.611548461528256 0.2190523532228215 0.1349022716417198 333.9096258088783 141.54800776113123
218.51074020607123 9.683761637930058 0.2267087799557421 0.144675685399567 335.51527196244086 144.04316211894482
226.5082297443755 10.883905458890382 0.2346328179215674 0.15515575564888284 337.2475539070624 146.5980221258686
234.82991040706085 12.219142432571214 0.24283382080112978 0.165468793415954 339.10915812779723 149.21047258606862
243.4895649756236 13.697245910404929 0.251321469209763 0.17584512352042914 341.1031533419793 151.87844925539375
252.5038440061727 15.330749682934059 0.2601057821244808 0.18722157626269964 343.23564238728784 154.59823272020708
261.8986645589929 17.148496170258692 0.2691971287105613 0.1990941783168373 345.52172126130665 157.35874279741
271.6882403462793 19.154773742642355 0.2786062405615009 0.21042316819891171 347.9601724040327 160.15923345514636
281.89049785111735 21.359861900727388 0.28834422436678714 0.22164620815909453 350.553435966267 162.99688619016126
292.5265475405733 23.778386588672046 0.29842257502243846 0.2337246132981532 353.30588629997703 165.86712739404365
303.63223194734013 26.447522162853414 0.3088531891997931 0.24592594617416275 356.23075742095136 168.75397623493998
315.221644345916 29.365222005850605 0.3196483793885593 0.2571506414649065 359.3222217150829 171.66146423910627
327.3182001354512 32.54397588998893 0.3308208884307057 0.2680601823279971 362.5812187590644 174.58688764206116
339.94834281111105 35.99922256647753 0.34238390456234696 0.27953912812815473 366.0093102394057 177.52639819239948
353.1609909336148 39.77515980981052 0.35435107698138235 0.29073954455728535 369.6146067251103 180.46095093582716
366.9678973380775 43.86090014922628 0.36673653195926065 0.30065088098701787 373.38857293297076 183.40165313600272
381.39961501803265 48.271172544303795 0.37955488951589167 0.3105407308338153 377.3304189270836 186.34635558829183
388.21778834157794 50.40599291076547 0.3855085014283791 0.04439606684803998 381.43924800134255 176.33771957933968
523.9475032085464 59.16181159477351 0.874263744879228 0.08462238268734446 385.715199445606 157.05702589621103
598.3822418862648 66.28168206816017 1.1413690536384975 0.10910632444298873 390.1519632333736 138.3343682987413
665.9017830976373 74.47249318967238 1.3833875418931891 0.13492644049051516 394.74706680995223 120.07305013845473
728.2905119235672 83.67532693142805 1.6058155045129328 0.1600077108637432 399.4973996827608 102.251579193886
787.5184907663439 93.85508856667255 1.8163164047391973 0.1826929587161895 404.39704715862416 84.88336425091472
845.4966004051904 105.061295306601 2.0235291472978565 0.20358155422760682 409.443966892103 67.90198041106595
903.0860354451073 117.37453050941345 2.2314164756131603 0.22034703246162124 414.635064288593 51.304118810695854
961.9152163962309 130.73017318708543 2.4489692299544252 0.2256845432914879 419.965155467323 34.9288817986695
1026.8446809144777 145.2877529996788 2.7134817575454186 0.2700368069617416 425.42575827814784 18.631349156283516
1078.384426339083 161.08037404454458 2.8755107506282704 0.33656694907600726 431.0191767573046 3.311698015413967
1124.4493751913963 177.82566479897605 2.9817176245483057 0.36313387028295563 436.7425864142945 0.0
1173.448009745661 195.59887477186146 3.0931202469148857 0.36238349144897386 442.58863755631796 0.0
1225.2978860183086 214.3694745633942 3.2095118450942643 0.3616543248962183 448.5493841174104 0.0
1280.3670764850006 234.26420196555844 3.331436572732103 0.36092114116403984 454.6305491184618 0.0
1338.756544780696 255.31673149162168 3.4589825735878397 0.36022691925184547 460.8299726039833 0.0
1400.4631191142757 277.5238009910481 3.5920366463953965 0.35952406582733976 467.1378280933174 0.0
1465.9154600606514 301.0306608439222 3.731120412336059 0.3588315800581001 473.54898535308183 0.0
1535.101456272646 325.83388357326095 3.876224256438796 0.35819098018829365 480.071280830431 0.0
1608.2389568171359 352.00713666056765 4.0275931480301095 0.3575320134097688 486.70328412661297 0.0
1685.6889528554498 379.67078970558697 4.185562938255533 0.35688239955359435 493.4322960810193 0.0
1767.4073571152583 408.8089195367215 4.350008219507747 0.35627559351445015 500.25755711425035 0.0
1853.737207417377 439.53951283871373 4.5214000578966616 0.3556805858969736 507.1877539542807 0.0
1944.9358443747203 471.94948647931506 4.700009919770878 0.35509213300747966 514.2221043128914 0.0
2041.1287521204724 506.0778443275381 4.885797634855411 0.3545102530921147 521.3446486630854 0.0
2142.6763190545626 542.0474242121144 5.079193490121105 0.3539481877911985 528.5600614898749 0.0
2249.8653228682283 579.9566916930486 5.280564335618548 0.3534076731532747 535.8768235754889 0.0
2362.9984565394684 619.9077835750246 5.490211909310359 0.35287975161209184 543.2946808831524 0.0
2482.077791597071 661.8966738151673 5.7078762611936344 0.352365952345576 550.7940656725807 0.0
2607.5786636355856 706.0862662420027 5.9341606082508065 0.35186554755802524 558.3858568647358 0.0
2739.9574424395123 752.6322420937098 6.169602814377734 0.3513779788136677 566.0774961051789 0.0
2879.5712278552196 801.6549839087478 6.414539889431624 0.3509031995334082 573.8691457199808 0.0
3026.3412295995854 853.1218839214268 6.668542694940578 0.3504425026566378 581.7373188974098 0.0
3180.945990497673 907.2659526984678 6.932490645836223 0.34999467793420047 589.6997099959373 0.0
3343.884864262435 964.2567874387283 7.206918562947945 0.34955928029616157 597.7620710944946 0.0
3515.576792873371 1024.235499737553 7.4922020436642205 0.3491360263957697 605.9248908074412 0.0
3695.831849710132 1087.1305939524163 7.787705073504786 0.34872537808933535 614.160475058444 0.0
3885.625779850183 1153.2771071474215 8.094686848414314 0.3483204039672194 622.493868083454 0.0
4085.7271651268993 1222.9349134776332 8.41390289401178 0.3479263784023048 630.9286144231583 0.0
4296.417401846943 1296.1983011527013 8.745545422810261 0.34753430184190925 639.4654611461091 0.0
