e[MeV/fm^3], P[MeV/fm^3], rho[fm^-3], v2[1], mu_q[MeV], mu_e[MeV]
71.58195607221194 0.019376260638347076 0.07551183166112621 0.01806185032450322 316.57195128971085 89.92341642585284
74.10016491175249 0.06485977178396946 0.07815115873557246 0.01806185032450326 316.72146406873105 91.024765790619
76.70639143836377 0.11193304521937247 0.08088273688183939 0.018061850324503265 316.876202692721 92.16461006582368
79.40371208999426 0.16065164710631397 0.08370979050524349 0.018061850324503224 317.0363498180116 93.34429474471072
82.19531083378259 0.21107308578268988 0.08663565671212049 0.018061850324503186 317.2020944852288 94.56521234887349
85.08448292446792 0.26325687964638034 0.08966378924900394 0.018061850324503227 317.3736323424404 95.82880407201151
88.0746387941701 0.317264627411876 0.09279776257949199 0.018061850324503234 317.55116587610246 97.13656148114251
91.1693080781302 0.37316008082260077 0.09604127610361388 0.0180618503245032 317.7349046500787 98.49002827727713
94.37214378115249 0.4310092199045644 0.09939815852466523 0.018088487354544512 317.9250655530129 99.89080211763012
97.6869757993967 0.49106090179612444 0.10287237236868205 0.019255301458732603 318.1222990017657 101.33984570908403
101.11986451800226 0.5612123980307122 0.10646801866188291 0.021662464342603646 318.3451487000273 102.80997251328064
104.67528624500615 0.6427510757917515 0.11018934177159138 0.024237271178381786 318.59574432277356 104.30486344182296
108.35791622476958 0.736980624741799 0.11404073441636543 0.026920267095794273 318.8759904930379 105.82396075340817
112.1727714362078 0.844944139362974 0.11802674285124978 0.029903169158792375 319.1863342944128 107.33131489870814
116.12536221854529 0.9697012467608513 0.12215207223425231 0.033128604049492305 319.53184301002517 108.83594926945497
120.22058430169312 1.1120115025052542 0.12642159218040233 0.03642699727296762 319.9131521806471 110.36057643612367
124.4640269233187 1.2739597956119093 0.130840342509936 0.04005797794488111 320.3330553238233 111.91312631407268
128.8618971317408 1.458760515403257 0.13541353919739 0.044167339746025575 320.79588975142224 113.49907969978847
133.4208715816421 1.6702641954106736 0.1401465805286361 0.04845346643322773 321.30651694759945 115.12367962053304
138.14674713038173 1.9093441223752088 0.14504505347311691 0.052773525840877133 321.864973007233 116.79378000164584
143.046301157445 2.1790046101745664 0.1501147402788089 0.057528169039875315 322.47450701812625 118.51374226197309
148.1273960447996 2.4844335534151987 0.15536162529769304 0.06284216502195894 323.1410092423423 120.28727240461446
153.3980665613772 2.830586859448035 0.16079190204979565 0.06832610081857435 323.8695330774141 122.11815106148126
158.86527298295658 3.219172163942335 0.1664119805341341 0.07388078486914754 324.6608118435546 124.01003694966207
164.53733520637863 3.6547355939838426 0.17222849479519628 0.08003547718389081 325.5190968335605 125.96563778643767
170.4244790514288 4.145740845861174 0.17824831075389239 0.0868529844855449 326.4526563846883 127.98699818273994
176.53631225317216 4.698462512306701 0.18447853431221173 0.09382020158110449 327.46672096984696 130.0757416868159
182.8813754413206 5.316058719226849 0.19092651974116215 0.10090610940848843 328.5630444196908 132.23321948878043
189.47003531795517 6.005327445562022 0.19759987836188778 0.10878861147005087 329.74707517392477 134.4600859855788
196.31596471295904 6.779778757210621 0.2045064875302128 0.11740966184855067 331.0300349266862 136.75533593637135
203.43050851080594 7.646768440999467 0.2116544999352168 0.12608946577877583 332.4166501261103 139.11816799894396
210.8244028704521 8.611548461528256 0.2190523532228215 0.1349022716417198 333.9096258088783 141.54800776113123
218.51074020607123 9.683761637930058 0.2267087799557421 0.144675685399567 335.51527196244086 144.04316211894482
226.5082297443755 10.883905458890382 0.2346328179215674 0.15515575564888284 337.2475539070624 146.5980221258686
234.82991040706085 12.219142432571214 0.24283382080112978 0.165468793415954 339.10915812779723 149.21047258606862
243.4895649756236 13.697245910404929 0.251321469209763 0.17584512352042914 341.1031533419793 151.87844925539375
252.5038440061727 15.330749682934059 0.2601057821244808 0.18722157626269964 343.23564238728784 154.59823272020708
261.8986645589929 17.148496170258692 0.2691971287105613 0.1990941783168373 345.52172126130665 157.35874279741
271.6882403462793 19.154773742642355 0.2786062405615009 0.21078621200389236 347.9601724040327 160.15923345514636
309.1573590279695 27.81866030956645 0.31367571563480934 0.0012406930095664424 350.553435966267 224.1291759885742
1200.9449899502185 32.12716053963469 3.1482753660025766 0.008421921901592551 353.30588629997703 94.43542628510338
2375.4363560995184 47.57264930953094 6.801376202143015 0.7468216607685991 356.23075742095136 15.452045900373294
2403.0921855761862 68.70439835427545 6.878907508996747 0.7693760692597511 359.3222217150829 0.0
2432.1605722881804 91.23019731141096 6.959509249749351 0.7733879336836935 362.5812187590644 0.0
2463.286199523531 115.25117742162503 7.044907057922661 0.7703692542847875 366.0093102394057 0.0
2496.5441386480447 140.82325881860422 7.135303190157121 0.7674579758762892 369.6146067251103 0.0
2531.942035498889 167.93526912430684 7.230578617612578 0.7644090079293049 373.38857293297076 0.0
2569.564111082143 196.6334440180555 7.3308137062863015 0.7612303496911696 377.3304189270836 0.0
2609.495280092194 226.9636741924477 7.436087442833485 0.7579421647181985 381.43924800134255 0.0
2651.8324171496906 258.9800287207937 7.546506853212948 0.7544039220216181 385.715199445606 0.0
2696.690339991686 292.73452069829455 7.662101633543101 0.7506943624748716 390.1519632333736 0.0
2744.108892522612 328.2420760819709 7.782875190233853 0.7470401668943425 394.74706680995223 0.0
2794.1359958576495 365.52084454279793 7.908829877756473 0.7433806708543771 399.4973996827608 0.0
2846.8073017504134 404.57636785660367 8.039912006305759 0.7395856857835543 404.39704715862416 0.0
2902.265664554756 445.481073959066 8.17624170160921 0.7354894985710669 409.443966892103 0.0
2960.6946735255447 488.32661093348935 8.317965430949293 0.7314353303400898 414.635064288593 0.0
3021.9837617610765 533.03623834216 8.464879237586727 0.7274093830330206 419.965155467323 0.0
3086.2964404537643 579.6776376245288 8.617023337709771 0.7231459733287764 425.42575827814784 0.0
3153.7793904092478 628.3301855102735 8.77458220458087 0.7189541066520468 431.0191767573046 0.0
3224.453804005497 678.9933313857479 8.937526875252335 0.7146264543321559 436.7425864142945 0.0
3298.535687453701 731.7613271726153 9.105964080512303 0.7102444576786358 442.58863755631796 0.0
3375.893175325837 786.5385894271045 9.279621585292572 0.7058845439723926 448.5493841174104 0.0
3456.8922444698132 843.5262169288033 9.458961581397729 0.7013833521774524 454.6305491184618 0.0
3541.6024820056664 902.747819783545 9.644010167204783 0.6970030370109477 460.8299726039833 0.0
3629.959554441023 964.1389743705284 9.834534799794424 0.6924356593508723 467.1378280933174 0.0
3722.323513090641 1027.8660679164395 10.03081088063898 0.6878238434662718 473.54898535308183 0.0
3818.703001835796 1093.94371976897 10.232955555748985 0.683434334379946 480.071280830431 0.0
3919.2766750996166 1162.4520705905566 10.441113605963308 0.6787926119470677 486.70328412661297 0.0
4024.292724848737 1233.4748633102247 10.655313960100303 0.6741025569988031 493.4322960810193 0.0
4133.686208010947 1306.9664083910823 10.875458904657258 0.669599657383408 500.25755711425035 0.0
4247.794320576063 1383.1101722193662 11.102007468432612 0.665070143017509 507.1877539542807 0.0
4366.825081410588 1461.9977362155648 11.335132763969712 0.6604742965147725 514.2221043128914 0.0
4490.784715189445 1543.5761905405816 11.57455529139187 0.6558133533017241 521.3446486630854 0.0
4619.995979753368 1628.0060124258737 11.820642849391824 0.6511982339519085 528.5600614898749 0.0
4754.735868804368 1715.4355712162824 12.073780000214752 0.6466477891101601 535.8768235754889 0.0
4895.246260073293 1805.9697243185826 12.334168877089455 0.6420948811375764 543.2946808831524 0.0
5041.395550027543 1899.4726464225932 12.601322825142875 0.637557022805912 550.7940656725807 0.0
5193.63440364503 1996.181582847202 12.875825779061394 0.6330324640036258 558.3858568647358 0.0
5352.3751243652805 2096.3034299833475 13.1581627370079 0.6285207996738711 566.0774961051789 0.0
5517.899857291109 2199.958610125022 13.44856650340599 0.6240262889080128 573.8691457199808 0.0
5689.975757056891 2306.945765652821 13.746372929375575 0.6195662823558186 581.7373188974098 0.0
5869.259261937712 2417.6170007544533 14.052462292844995 0.6151343603466861 589.6997099959373 0.0
6056.180418177228 2532.1770913007113 14.367290827296326 0.6107311953320789 597.7620710944946 0.0
6251.066862409249 2650.763864777327 14.691122852229402 0.6063589348080729 605.9248908074412 0.0
6453.55775678772 2773.097322017718 15.023086425368904 0.6020273204655515 614.160475058444 0.0
6664.5961728893435 2899.682876441895 15.364437380424423 0.597665351359284 622.493868083454 0.0
6884.811286400626 3030.8021657312215 15.715747876909846 0.593336302447879 630.9286144231583 0.0
7114.409136874552 3166.5334065891543 16.077161019196893 0.5890026487031186 639.4654611461091 0.0
