e[MeV/fm^3], P[MeV/fm^3], rho[fm^-3], v2[1], mu_q[MeV], mu_e[MeV]
71.58195607221194 0.019376260638347076 0.07551183166112621 0.01806185032450322 316.57195128971085 89.92341642585284
74.10016491175249 0.06485977178396946 0.07815115873557246 0.01806185032450326 316.72146406873105 91.024765790619
76.70639143836377 0.11193304521937247 0.08088273688183939 0.018061850324503265 316.876202692721 92.16461006582368
79.40371208999426 0.16065164710631397 0.08370979050524349 0.018061850324503224 317.0363498180116 93.34429474471072
82.19531083378259 0.21107308578268988 0.08663565671212049 0.018061850324503186 317.2020944852288 94.56521234887349
85.08448292446792 0.26325687964638034 0.08966378924900394 0.018061850324503227 317.3736323424404 95.82880407201151
88.0746387941701 0.317264627411876 0.09279776257949199 0.018061850324503234 317.55116587610246 97.13656148114251
91.1693080781302 0.37316008082260077 0.09604127610361388 0.0180618503245032 317.7349046500787 98.49002827727713
94.37214378115249 0.4310092199045644 0.09939815852466523 0.018088487354544512 317.9250655530129 99.89080211763012
97.6869757993967 0.49106090179612444 0.10287237236868205 0.019255301458732603 318.1222990017657 101.33984570908403
101.11986451800226 0.5612123980307122 0.10646801866188291 0.021662464342603646 318.3451487000273 102.80997251328064
104.67528624500615 0.6427510757917515 0.11018934177159138 0.024237271178381786 318.59574432277356 104.30486344182296
108.35791622476958 0.736980624741799 0.11404073441636543 0.026920267095794273 318.8759904930379 105.82396075340817
112.1727714362078 0.844944139362974 0.11802674285124978 0.029903169158792375 319.1863342944128 107.33131489870814
116.12536221854529 0.9697012467608513 0.12215207223425231 0.033128604049492305 319.53184301002517 108.83594926945497
120.22058430169312 1.1120115025052542 0.12642159218040233 0.03642699727296762 319.9131521806471 110.36057643612367
124.4640269233187 1.2739597956119093 0.130840342509936 0.04005797794488111 320.3330553238233 111.91312631407268
128.8618971317408 1.458760515403257 0.13541353919739 0.044167339746025575 320.79588975142224 113.49907969978847
133.4208715816421 1.6702641954106736 0.1401465805286361 0.04845346643322773 321.30651694759945 115.12367962053304
138.14674713038173 1.9093441223752088 0.14504505347311691 0.052773525840877133 321.864973007233 116.79378000164584
143.046301157445 2.1790046101745664 0.1501147402788089 0.057528169039875315 322.47450701812625 118.51374226197309
148.1273960447996 2.4844335534151987 0.15536162529769304 0.06284216502195894 323.1410092423423 120.28727240461446
153.3980665613772 2.830586859448035 0.16079190204979565 0.06832610081857435 323.8695330774141 122.11815106148126
158.86527298295658 3.219172163942335 0.1664119805341341 0.07388078486914754 324.6608118435546 124.01003694966207
164.53733520637863 3.6547355939838426 0.17222849479519628 0.08003547718389081 325.5190968335605 125.96563778643767
170.4244790514288 4.145740845861174 0.17824831075389239 0.0868529844855449 326.4526563846883 127.98699818273994
176.53631225317216 4.698462512306701 0.18447853431221173 0.09382020158110449 327.46672096984696 130.0757416868159
182.8813754413206 5.316058719226849 0.19092651974116215 0.10090610940848843 328.5630444196908 132.23321948878043
189.47003531795517 6.005327445562022 0.19759987836188778 0.10878861147005087 329.74707517392477 134.4600859855788
196.31596471295904 6.779778757210621 0.2045064875302128 0.11740966184855067 331.0300349266862 136.75533593637135
203.43050851080594 7.646768440999467 0.2116544999352168 0.12608946577877583 332.4166501261103 139.11816799894396
210.8244028704521 8.611548461528256 0.2190523532228215 0.1349022716417198 333.9096258088783 141.54800776113123
218.51074020607123 9.683761637930058 0.2267087799557421 0.144675685399567 335.51527196244086 144.04316211894482
226.5082297443755 10.883905458890382 0.2346328179215674 0.15515575564888284 337.2475539070624 146.5980221258686
234.82991040706085 12.219142432571214 0.24283382080112978 0.165468793415954 339.10915812779723 149.21047258606862
243.4895649756236 13.697245910404929 0.251321469209763 0.17584512352042914 341.1031533419793 151.87844925539375
252.5038440061727 15.330749682934059 0.2601057821244808 0.18722157626269964 343.23564238728784 154.59823272020708
261.8986645589929 17.148496170258692 0.2691971287105613 0.1990941783168373 345.52172126130665 157.35874279741
271.6882403462793 19.154773742642355 0.2786062405615009 0.21042316819891171 347.9601724040327 160.15923345514636
281.89049785111735 21.359861900727388 0.28834422436678714 0.22164620815909453 350.553435966267 162.99688619016126
292.5265475405733 23.778386588672046 0.29842257502243846 0.2337246132981532 353.30588629997703 165.86712739404365
303.63223194734013 26.447522162853414 0.3088531891997931 0.24592594617416275 356.23075742095136 168.75397623493998
315.221644345916 29.365222005850605 0.3196483793885593 0.2571506414649065 359.3222217150829 171.66146423910627
327.3182001354512 32.54397588998893 0.3308208884307057 0.2680601823279971 362.5812187590644 174.58688764206116
339.94834281111105 35.99922256647753 0.34238390456234696 0.27953912812815473 366.0093102394057 177.52639819239948
353.1609909336148 39.77515980981052 0.35435107698138235 0.29073954455728535 369.6146067251103 180.46095093582716
366.9678973380775 43.86090014922628 0.36673653195926065 0.30065088098701787 373.38857293297076 183.40165313600272
381.39961501803265 48.271172544303795 0.37955488951589167 0.31015245142971803 377.3304189270836 186.34635558829183
396.4906533657989 53.02360113792524 0.3928212806773882 0.31982610479761786 381.43924800134255 189.29179087628498
412.3008527606959 58.16142376409454 0.40655136533700936 0.3289384922226952 385.715199445606 192.22134084195403
428.8422763195667 63.67123483078209 0.4207613507403866 0.3367997029933043 390.1519632333736 195.14960434240515
446.15280627746716 69.56858793441738 0.43546801061685736 0.3442133252339814 394.74706680995223 198.07590608509867
464.2780259448425 75.87458447409477 0.4506887049794844 0.35161234258155716 399.4973996827608 300.9987734977077
495.9312307890551 87.17607323182685 0.47685034152112754 0.006775211973756648 404.39704715862416 239.40418387404543
789.1669039437262 90.81803740191019 1.3532503922089518 0.018064631902689712 409.443966892103 176.1057671731328
1315.7669647069115 105.66897284627618 2.950415907481619 0.0366049506372447 414.635064288593 113.74055875550127
1800.329023488702 127.15325274238648 4.521472915769625 0.20247172908430577 419.965155467323 50.052826829569526
1909.4075389913155 153.12145637533925 4.848039300573395 0.48702386398540165 425.42575827814784 0.6376596701299946
1955.688586239723 180.55006911072698 4.956096032648721 0.5907056691652381 431.0191767573046 0.0
2004.3945042145845 209.22110256171564 5.068390621680327 0.5865177876965917 436.7425864142945 0.0
2055.7234508509423 239.210777075735 5.185095301788235 0.5823166823579893 442.58863755631796 0.0
2109.5854219412113 270.46541825678196 5.3060080850006255 0.5781830810997235 448.5493841174104 0.0
2166.2824676741466 303.12196873008253 5.4315409412901845 0.5739573225650236 454.6305491184618 0.0
2225.8839304848057 337.2037289459574 5.561739203014005 0.5698871155430618 460.8299726039833 0.0
2288.3603780356993 372.6811702250552 5.696457349971322 0.5656902379573001 467.1378280933174 0.0
2354.034567214829 409.68310691706887 5.836016780551391 0.5614920869666085 473.54898535308183 0.0
2422.9056177414614 448.2146525427242 5.980465133382315 0.5575398652803796 480.071280830431 0.0
2495.1356550852183 488.33927976217404 6.129960106753331 0.5534051557502075 486.70328412661297 0.0
2570.9723558312285 530.1399746039285 6.284643561210006 0.5492675273999637 493.4322960810193 0.0
2650.37027606955 573.5905766521273 6.44442439052382 0.5453377743473871 500.25755711425035 0.0
2733.60920644123 618.8169387271678 6.609685044207171 0.5414247227917115 507.1877539542807 0.0
2820.879334026396 665.8926477495335 6.780605828800251 0.5374949164680638 514.2221043128914 0.0
2912.231646980628 714.8094640592318 6.957048720909261 0.5335499502867869 521.3446486630854 0.0
3007.9462758274535 765.6850150929628 7.139340477573064 0.5296829072492328 528.5600614898749 0.0
3108.25497042903 818.6222544565046 7.327790805970013 0.5259088706396717 535.8768235754889 0.0
3213.380204735751 873.7064453827529 7.522604377002834 0.5221701726396697 543.2946808831524 0.0
3323.2650601326823 930.8764298186325 7.723467794857566 0.5184804994131107 550.7940656725807 0.0
3438.2899611672556 990.2989234742106 7.930869101191575 0.5148375911979843 558.3858568647358 0.0
3558.811215930253 1052.1245471406307 8.145227817663335 0.5112402727140122 566.0774961051789 0.0
3685.089877704535 1116.4524073180423 8.366775627248133 0.5076910500952594 573.8691457199808 0.0
3816.993530478011 1183.1816061693755 8.595056228571822 0.5042025684926252 581.7373188974098 0.0
3955.0709819920085 1252.5562061434994 8.83079383625391 0.5007686639834952 589.6997099959373 0.0
4099.702849366751 1324.7312453860084 9.074394185519756 0.4973887635614833 597.7620710944946 0.0
4251.193915595346 1399.8214353324784 9.326117617431475 0.49406341852703495 605.9248908074412 0.0
4409.312893882037 1477.6764251276768 9.585337145501684 0.4907989331234637 614.160475058444 0.0
4574.848582303614 1558.6467625287837 9.85308772992082 0.4875416330835236 622.493868083454 0.0
4748.372456354213 1642.9559048496621 10.129910816484905 0.484337130424878 630.9286144231583 0.0
4930.083076538856 1730.6744147570244 10.4159430637723 0.48113764279671933 639.4654611461091 0.0
