e[MeV/fm^3], P[MeV/fm^3], rho[fm^-3], v2[1], mu_q[MeV], mu_e[MeV]
71.58195607221194 0.019376260638347076 0.07551183166112621 0.01806185032450322 316.57195128971085 89.92341642585284
74.10016491175249 0.06485977178396946 0.07815115873557246 0.01806185032450326 316.72146406873105 91.024765790619
76.70639143836377 0.11193304521937247 0.08088273688183939 0.018061850324503265 316.876202692721 92.16461006582368
79.40371208999426 0.16065164710631397 0.08370979050524349 0.018061850324503224 317.0363498180116 93.34429474471072
82.19531083378259 0.21107308578268988 0.08663565671212049 0.018061850324503186 317.2020944852288 94.56521234887349
85.08448292446792 0.26325687964638034 0.08966378924900394 0.018061850324503227 317.3736323424404 95.82880407201151
88.0746387941701 0.317264627411876 0.09279776257949199 0.018061850324503234 317.55116587610246 97.13656148114251
91.1693080781302 0.37316008082260077 0.09604127610361388 0.0180618503245032 317.7349046500787 98.49002827727713
94.37214378115249 0.4310092199045644 0.09939815852466523 0.018088487354544512 317.9250655530129 99.89080211763012
97.6869757993967 0.49106090179612444 0.10287237236868205 0.019255301458732603 318.1222990017657 101.33984570908403
101.11986451800226 0.5612123980307122 0.10646801866188291 0.021662464342603646 318.3451487000273 102.80997251328064
104.67528624500615 0.6427510757917515 0.11018934177159138 0.024237271178381786 318.59574432277356 104.30486344182296
108.35791622476958 0.736980624741799 0.11404073441636543 0.026920267095794273 318.8759904930379 105.82396075340817
112.1727714362078 0.844944139362974 0.11802674285124978 0.029903169158792375 319.1863342944128 107.33131489870814
116.12536221854529 0.9697012467608513 0.12215207223425231 0.033128604049492305 319.53184301002517 108.83594926945497
120.22058430169312 1.1120115025052542 0.12642159218040233 0.03642699727296762 319.9131521806471 110.36057643612367
124.4640269233187 1.2739597956119093 0.130840342509936 0.04005797794488111 320.3330553238233 111.91312631407268
128.8618971317408 1.458760515403257 0.13541353919739 0.044167339746025575 320.79588975142224 113.49907969978847
133.4208715816421 1.6702641954106736 0.1401465805286361 0.04845346643322773 321.30651694759945 115.12367962053304
138.14674713038173 1.9093441223752088 0.14504505347311691 0.052773525840877133 321.864973007233 116.79378000164584
143.046301157445 2.1790046101745664 0.1501147402788089 0.057528169039875315 322.47450701812625 118.51374226197309
148.1273960447996 2.4844335534151987 0.15536162529769304 0.06284216502195894 323.1410092423423 120.28727240461446
153.3980665613772 2.830586859448035 0.16079190204979565 0.06832610081857435 323.8695330774141 122.11815106148126
158.86527298295658 3.219172163942335 0.1664119805341341 0.07388078486914754 324.6608118435546 124.01003694966207
164.53733520637863 3.6547355939838426 0.17222849479519628 0.08003547718389081 325.5190968335605 125.96563778643767
170.4244790514288 4.145740845861174 0.17824831075389239 0.0868529844855449 326.4526563846883 127.98699818273994
176.53631225317216 4.698462512306701 0.18447853431221173 0.09382020158110449 327.46672096984696 130.0757416868159
182.8813754413206 5.316058719226849 0.19092651974116215 0.10090610940848843 328.5630444196908 132.23321948878043
189.47003531795517 6.005327445562022 0.19759987836188778 0.10878861147005087 329.74707517392477 134.4600859855788
196.31596471295904 6.779778757210621 0.2045064875302128 0.11740966184855067 331.0300349266862 136.75533593637135
203.43050851080594 7.646768440999467 0.2116544999352168 0.12608946577877583 332.4166501261103 139.11816799894396
210.8244028704521 8.611548461528256 0.2190523532228215 0.1349022716417198 333.9096258088783 141.54800776113123
218.51074020607123 9.683761637930058 0.2267087799557421 0.144675685399567 335.51527196244086 144.04316211894482
226.5082297443755 10.883905458890382 0.2346328179215674 0.15515575564888284 337.2475539070624 146.5980221258686
234.82991040706085 12.219142432571214 0.24283382080112978 0.165468793415954 339.10915812779723 149.21047258606862
243.4895649756236 13.697245910404929 0.251321469209763 0.17584512352042914 341.1031533419793 151.87844925539375
252.5038440061727 15.330749682934059 0.2601057821244808 0.18722157626269964 343.23564238728784 154.59823272020708
261.8986645589929 17.148496170258692 0.2691971287105613 0.1990941783168373 345.52172126130665 157.35874279741
271.6882403462793 19.154773742642355 0.2786062405615009 0.21042316819891171 347.9601724040327 160.15923345514636
281.89049785111735 21.359861900727388 0.28834422436678714 0.22164620815909453 350.553435966267 162.99688619016126
292.5265475405733 23.778386588672046 0.29842257502243846 0.2337246132981532 353.30588629997703 165.86712739404365
303.63223194734013 26.447522162853414 0.3088531891997931 0.24592594617416275 356.23075742095136 168.75397623493998
315.221644345916 29.365222005850605 0.3196483793885593 0.2571506414649065 359.3222217150829 171.66146423910627
327.3182001354512 32.54397588998893 0.3308208884307057 0.2680601823279971 362.5812187590644 174.58688764206116
339.94834281111105 35.99922256647753 0.34238390456234696 0.27953912812815473 366.0093102394057 177.52639819239948
353.1609909336148 39.77515980981052 0.35435107698138235 0.29073954455728535 369.6146067251103 180.46095093582716
366.9678973380775 43.86090014922628 0.36673653195926065 0.3011005418063286 373.38857293297076 183.40165313600272
375.12045371313883 46.333091098697004 0.37382635791194513 0.1630063225778713 377.3304189270836 182.3711898998613
411.97421105807797 53.15933340887563 0.4962758832059878 0.20744395451530107 381.43924800134255 177.0434333542058
435.96832346740064 58.483862100452555 0.5714350627654973 0.2377895910850938 385.715199445606 172.21926542967674
458.90188330295575 64.28530709324028 0.6398601668149378 0.2668496859936471 390.1519632333736 167.93257098414188
481.25232654838425 70.55190004647277 0.703276145119739 0.2925267013000996 394.74706680995223 164.11819964884478
503.34628634030037 77.28028604537732 0.7628061902227418 0.31519011255240037 399.4973996827608 160.73546746275662
525.4123938076069 84.47012345596117 0.8191850158797862 0.33543080466242814 404.39704715862416 157.76127693948172
547.6435116066172 92.14211970691395 0.8728632074276397 0.35370776940891724 409.443966892103 155.19561212066864
570.2225637449787 100.32586427864678 0.9241683490741393 0.36863844405774526 414.635064288593 153.04779748897997
593.3351476745154 108.99249638703623 0.9740011094795432 0.3805553455952877 419.965155467323 151.23837860819995
617.1005592712513 118.1729254921095 1.0224119496828652 0.3907117045443034 425.42575827814784 149.789134861543
641.6773891981313 127.88766804813365 1.0698045730197314 0.39857290421847935 431.0191767573046 148.67543953110956
667.1739391949919 138.13698737953007 1.1165532053078413 0.404789351709816 436.7425864142945 147.86180338695448
693.7232469177583 148.96129608619162 1.1626910335795009 0.40959887723110766 442.58863755631796 147.36337648344258
721.3614262682502 160.33632825785594 1.2085247153240632 0.4130688566880045 448.5493841174104 147.13370756143905
750.2733089244722 172.32427297748737 1.254192328970226 0.4156195406568979 454.6305491184618 147.1793677120241
780.544206157807 184.93658057899924 1.2998897775199847 0.4172636600437616 460.8299726039833 147.47634801603533
812.1970353643242 198.16453426783718 1.34570767471551 0.41825822483983277 467.1378280933174 148.00347716337203
845.425359973966 212.07478953934225 1.3916825051723771 0.41869975325570286 473.54898535308183 148.77147952789937
880.2644932664814 226.66460400501543 1.4380536885591124 0.41867728004300897 480.071280830431 149.74451817955833
916.8222301664715 241.96668708309605 1.4849021871890336 0.41828892011983365 486.70328412661297 150.91568127336282
955.2559596272525 258.03161012111127 1.532223700498376 0.41760065235296295 493.4322960810193 152.28762710176937
995.5648295789002 274.84815133700533 1.5801274938081358 0.4167109201739372 500.25755711425035 153.83461978494952
1037.9139740156024 292.47409427922713 1.6287571482937517 0.41564816940882787 507.1877539542807 155.55054849598605
1082.423292740795 310.948243681777 1.6781881234245508 0.41443324479334454 514.2221043128914 157.4278945206682
1129.1436206869723 330.27984104944363 1.7283913110543627 0.41309215553672507 521.3446486630854 159.4565812392744
1178.2415427499968 350.52669254014967 1.7794818131708117 0.41168318337993615 528.5600614898749 161.63008389615692
1229.8531761704214 371.73669428945 1.831588384864 0.410236724760499 535.8768235754889 163.94025686296825
1284.1140058078029 393.9555676592544 1.8847824811243203 0.40874984095659217 543.2946808831524 166.38067699632316
1341.0147687135131 417.1700138019484 1.9389948629181981 0.4072412113895383 550.7940656725807 168.93842735680693
1400.77197480261 441.4591662150353 1.9943735711874524 0.4057208599175368 558.3858568647358 171.61087679991255
1463.5907874824209 466.8969946323769 2.0510435647831518 0.404197087991498 566.0774961051789 174.39494678109256
1529.6275420674938 493.5373097853635 2.109077391393131 0.4026779759281345 573.8691457199808 177.28539869066032
1598.832200487637 521.3509418260029 2.1683684124985128 0.40117454280665177 581.7373188974098 180.26821806706835
1671.5116053983609 550.4523870913911 2.229117324961886 0.39968851541650574 589.6997099959373 183.3450714600714
1747.88597432414 580.920568175413 2.2914385699876547 0.3982229871139604 597.7620710944946 186.5137002339264
1828.1364391838988 612.8183602396005 2.3554077101076194 0.3967807162797281 605.9248908074412 189.77013720434184
1912.1595817372495 646.0957830804339 2.4208758208451755 0.39536630349006296 614.160475058444 193.09923227707355
2000.3945277081532 680.917494528907 2.4881132538448694 0.39395794220775127 622.493868083454 196.507367678271
2093.1749008020874 717.4017744313849 2.5572539340046023 0.39257610929121256 630.9286144231583 199.99346441561482
2190.6204602575262 755.5893704210438 2.628350161606859 0.3911968240895405 639.4654611461091 203.55352292170429
