e[MeV/fm^3], P[MeV/fm^3], rho[fm^-3], v2[1], mu_q[MeV], mu_e[MeV]
71.58195607221194 0.019376260638347076 0.07551183166112621 0.01806185032450322 316.57195128971085 89.92341642585284
74.10016491175249 0.06485977178396946 0.07815115873557246 0.01806185032450326 316.72146406873105 91.024765790619
76.70639143836377 0.11193304521937247 0.08088273688183939 0.018061850324503265 316.876202692721 92.16461006582368
79.40371208999426 0.16065164710631397 0.08370979050524349 0.018061850324503224 317.0363498180116 93.34429474471072
82.19531083378259 0.21107308578268988 0.08663565671212049 0.018061850324503186 317.2020944852288 94.56521234887349
85.08448292446792 0.26325687964638034 0.08966378924900394 0.018061850324503227 317.3736323424404 95.82880407201151
88.0746387941701 0.317264627411876 0.09279776257949199 0.018061850324503234 317.55116587610246 97.13656148114251
91.1693080781302 0.37316008082260077 0.09604127610361388 0.0180618503245032 317.7349046500787 98.49002827727713
94.37214378115249 0.4310092199045644 0.09939815852466523 0.018088487354544512 317.9250655530129 99.89080211763012
97.6869757993967 0.49106090179612444 0.10287237236868205 0.019255301458732603 318.1222990017657 101.33984570908403
101.11986451800226 0.5612123980307122 0.10646801866188291 0.021662464342603646 318.3451487000273 102.80997251328064
104.67528624500615 0.6427510757917515 0.11018934177159138 0.024237271178381786 318.59574432277356 104.30486344182296
108.35791622476958 0.736980624741799 0.11404073441636543 0.026920267095794273 318.8759904930379 105.82396075340817
112.1727714362078 0.844944139362974 0.11802674285124978 0.029903169158792375 319.1863342944128 107.33131489870814
116.12536221854529 0.9697012467608513 0.12215207223425231 0.033128604049492305 319.53184301002517 108.83594926945497
120.22058430169312 1.1120115025052542 0.12642159218040233 0.03642699727296762 319.9131521806471 110.36057643612367
124.4640269233187 1.2739597956119093 0.130840342509936 0.04005797794488111 320.3330553238233 111.91312631407268
128.8618971317408 1.458760515403257 0.13541353919739 0.044167339746025575 320.79588975142224 113.49907969978847
133.4208715816421 1.6702641954106736 0.1401465805286361 0.04845346643322773 321.30651694759945 115.12367962053304
138.14674713038173 1.9093441223752088 0.14504505347311691 0.052773525840877133 321.864973007233 116.79378000164584
143.046301157445 2.1790046101745664 0.1501147402788089 0.057528169039875315 322.47450701812625 118.51374226197309
148.1273960447996 2.4844335534151987 0.15536162529769304 0.06284216502195894 323.1410092423423 120.28727240461446
153.3980665613772 2.830586859448035 0.16079190204979565 0.06832610081857435 323.8695330774141 122.11815106148126
158.86527298295658 3.219172163942335 0.1664119805341341 0.07388078486914754 324.6608118435546 124.01003694966207
164.53733520637863 3.6547355939838426 0.17222849479519628 0.08003547718389081 325.5190968335605 125.96563778643767
170.4244790514288 4.145740845861174 0.17824831075389239 0.08677045275449968 326.4526563846883 127.98699818273994
188.75407414061502 5.929189364606638 0.1962360289859246 0.007353634106552565 327.46672096984696 150.00092462614197
208.1310303038918 6.0716804103300825 0.2959575806343454 0.007353634106552464 328.5630444196908 128.1823627192276
407.2066297814332 7.535609528430511 0.9922436967481392 0.007353634106552473 329.74707517392477 104.61828743230053
622.9155385012759 9.12185391667996 1.7467064167291904 0.019024860808251977 331.0300349266862 79.08536939274597
736.7223725225344 11.98779859257928 2.1575178976804805 0.055881396504200154 332.4166501261103 56.189363955373985
790.1190400919346 15.74077790460791 2.365411604241443 0.07286990050933018 333.9096258088783 34.26018882481754
843.7377015697058 19.78714506879243 2.5736767314366036 0.5284883438572523 335.51527196244086 12.068537598662846
851.3302285298607 24.286760574974913 2.5962003376527973 0.5926374090992552 337.2475539070624 6.5046364864081
859.4895701883893 29.122291675440877 2.620405427666245 0.5914862079876604 339.10915812779723 0.5253662951532618
868.4220205771037 34.39445550439762 2.6466104061365803 0.5900545468348373 341.1031533419793 0.0
878.002985543399 40.04598622616196 2.674677684470477 0.5882328519640225 343.23564238728784 0.0
888.5266111383114 46.21739632856803 2.7051738025608727 0.5857771829152574 345.52172126130665 0.0
899.8606439046807 52.84859847674337 2.737876987151491 0.5840326247813021 347.9601724040327 0.0
912.1022884298525 59.98440262070745 2.7729573898868725 0.58146135948727 350.553435966267 0.0
925.3815527489785 67.68488234962133 2.810645816253984 0.5788591827150196 353.30588629997703 0.0
939.7132645437422 75.96501935822505 2.851043534611304 0.5765800754423966 356.23075742095136 0.0
955.1329661505454 84.83631366588769 2.8941696828263037 0.5740401135439761 359.3222217150829 0.0
971.7108568864555 94.32983993572834 2.9401377578445897 0.571096101050411 362.5812187590644 0.0
989.5765152022409 104.50270085507435 2.989155287337179 0.5680251836046368 366.0093102394057 0.0
1008.7753729168872 115.37959186449449 3.0413384769537495 0.5651015150041516 369.6146067251103 0.0
1029.3315738857548 126.96430603751827 3.0966665601376144 0.5620758779343382 373.38857293297076 0.0
1051.315170813774 139.28579330843266 3.1552364986456025 0.5589602449122646 377.3304189270836 0.0
1074.7976360760458 152.3732991149218 3.2171451141139067 0.5557780852042629 381.43924800134255 0.0
1099.8585264659955 166.26005948833696 3.2825064571825764 0.5524015645532478 385.715199445606 0.0
1126.606102488245 180.9863822672501 3.3514325318826406 0.5489078960729246 390.1519632333736 0.0
1155.0815604432332 196.56650154382598 3.4239583257696924 0.5455155493413888 394.74706680995223 0.0
1185.3342164632948 213.01752013851404 3.5001257626669884 0.5421661575369052 399.4973996827608 0.0
1217.4099788483425 230.3527704679722 3.5799516156639055 0.538743225862135 404.39704715862416 0.0
1251.4346316563663 248.62182826682783 3.663591729340388 0.5351042852511152 409.443966892103 0.0
1287.5714866316175 267.88851626695345 3.7512437734029525 0.5315519513400573 414.635064288593 0.0
1325.7471625251883 288.1160614025017 3.842752669545805 0.5280832645786915 419.965155467323 0.0
1366.1232618401793 309.36237558531695 3.9382693094845447 0.5244630040629148 425.42575827814784 0.0
1408.8231560732622 331.67799275063174 4.037964157573158 0.5209574049345527 431.0191767573046 0.0
1453.8786072742637 355.07114674220264 4.141841633380333 0.5173980916341225 436.7425864142945 0.0
1501.4975075442412 379.6179817724819 4.250110275234522 0.5138452378620619 442.58863755631796 0.0
1551.5970410857565 405.274950747244 4.362576083602244 0.510370004981294 448.5493841174104 0.0
1604.4814814258173 432.16789545306875 4.479666773299093 0.5068355641566944 454.6305491184618 0.0
1660.2256488594053 460.321881355696 4.601437937432996 0.5034494072446964 460.8299726039833 0.0
1718.8097581812874 489.7170346737578 4.727762331140423 0.49997795077802065 467.1378280933174 0.0
1780.5696086138996 520.4795833501731 4.859002929933433 0.49652208496718186 473.54898535308183 0.0
1845.5009835915034 552.6117637383236 4.995187310339553 0.4932867782346335 480.071280830431 0.0
1913.7733224442477 586.176406244488 5.136490261757592 0.48992036113506776 486.70328412661297 0.0
1985.6539786117132 621.2629152825386 5.283103859417862 0.48656781643130254 493.4322960810193 0.0
2061.1005802022055 657.8497512397153 5.434931986826644 0.4834008126478233 500.25755711425035 0.0
2140.3956084706506 696.0530208663578 5.5923614249293685 0.48026303678290816 507.1877539542807 0.0
2223.738368957561 735.9460221111758 5.7555894204750055 0.47712763805600344 514.2221043128914 0.0
2311.1993382590276 777.5352522859145 5.924515557309552 0.4739957419178351 521.3446486630854 0.0
2403.0664498107462 820.9330199863272 6.099478685741978 0.4709406038114281 528.5600614898749 0.0
2499.5744789135238 866.2348932379713 6.280787610589402 0.4679735398927858 535.8768235754889 0.0
2600.9570684793302 913.5262313492601 6.4686642980474165 0.46504814516779946 543.2946808831524 0.0
2707.1784319990797 962.7666966004306 6.6628298358287985 0.4621745722391104 550.7940656725807 0.0
2818.6253423014336 1014.1120879111497 6.8637784242259094 0.45935046683083813 558.3858568647358 0.0
2935.6634225631146 1067.7057290820496 7.071940712883328 0.4565743341297699 566.0774961051789 0.0
3058.567410203649 1123.6473399238948 7.287566589762038 0.4538475255524137 573.8691457199808 0.0
3187.2288259341835 1181.8625373971652 7.510234679232535 0.45117913027098755 581.7373188974098 0.0
3322.203467781241 1242.5777515556479 7.740673594828795 0.4485637932767217 589.6997099959373 0.0
3463.88547817946 1305.9433305849498 7.97930424866172 0.44600047130555254 597.7620710944946 0.0
3612.5962270570167 1372.0752310044245 8.226406503723293 0.44348899048612456 605.9248908074412 0.0
3768.1304561682523 1440.8557013515278 8.481387379589904 0.4410335322825407 614.160475058444 0.0
3931.2871553139244 1512.6100735419834 8.745288859415066 0.4385934677836385 622.493868083454 0.0
4102.663788490102 1587.5597016016056 9.018685258265284 0.436202235810768 630.9286144231583 0.0
4282.47227593314 1665.7781724680203 9.301721990242463 0.43381755000377886 639.4654611461091 0.0
