e[MeV/fm^3], P[MeV/fm^3], rho[fm^-3], v2[1], mu_q[MeV], mu_e[MeV]
71.58195607221194 0.019376260638347076 0.07551183166112621 0.01806185032450322 316.57195128971085 89.92341642585284
74.10016491175249 0.06485977178396946 0.07815115873557246 0.01806185032450326 316.72146406873105 91.024765790619
76.70639143836377 0.11193304521937247 0.08088273688183939 0.018061850324503265 316.876202692721 92.16461006582368
79.40371208999426 0.16065164710631397 0.08370979050524349 0.018061850324503224 317.0363498180116 93.34429474471072
82.19531083378259 0.21107308578268988 0.08663565671212049 0.018061850324503186 317.2020944852288 94.56521234887349
85.08448292446792 0.26325687964638034 0.08966378924900394 0.018061850324503227 317.3736323424404 95.82880407201151
88.0746387941701 0.317264627411876 0.09279776257949199 0.018061850324503234 317.55116587610246 97.13656148114251
91.1693080781302 0.37316008082260077 0.09604127610361388 0.0180618503245032 317.7349046500787 98.49002827727713
94.37214378115249 0.4310092199045644 0.09939815852466523 0.018088487354544512 317.9250655530129 99.89080211763012
97.6869757993967 0.49106090179612444 0.10287237236868205 0.019255301458732603 318.1222990017657 101.33984570908403
101.11986451800226 0.5612123980307122 0.10646801866188291 0.021662464342603646 318.3451487000273 102.80997251328064
104.67528624500615 0.6427510757917515 0.11018934177159138 0.024237271178381786 318.59574432277356 104.30486344182296
108.35791622476958 0.736980624741799 0.11404073441636543 0.026920267095794273 318.8759904930379 105.82396075340817
112.1727714362078 0.844944139362974 0.11802674285124978 0.029903169158792375 319.1863342944128 107.33131489870814
116.12536221854529 0.9697012467608513 0.12215207223425231 0.033128604049492305 319.53184301002517 108.83594926945497
120.22058430169312 1.1120115025052542 0.12642159218040233 0.03642699727296762 319.9131521806471 110.36057643612367
124.4640269233187 1.2739597956119093 0.130840342509936 0.04005797794488111 320.3330553238233 111.91312631407268
128.8618971317408 1.458760515403257 0.13541353919739 0.044167339746025575 320.79588975142224 113.49907969978847
133.4208715816421 1.6702641954106736 0.1401465805286361 0.04845346643322773 321.30651694759945 115.12367962053304
138.14674713038173 1.9093441223752088 0.14504505347311691 0.052773525840877133 321.864973007233 116.79378000164584
143.046301157445 2.1790046101745664 0.1501147402788089 0.057528169039875315 322.47450701812625 118.51374226197309
148.1273960447996 2.4844335534151987 0.15536162529769304 0.06284216502195894 323.1410092423423 120.28727240461446
153.3980665613772 2.830586859448035 0.16079190204979565 0.06832610081857435 323.8695330774141 122.11815106148126
158.86527298295658 3.219172163942335 0.1664119805341341 0.07388078486914754 324.6608118435546 124.01003694966207
164.53733520637863 3.6547355939838426 0.17222849479519628 0.08003547718389081 325.5190968335605 125.96563778643767
170.4244790514288 4.145740845861174 0.17824831075389239 0.0868529844855449 326.4526563846883 127.98699818273994
176.53631225317216 4.698462512306701 0.18447853431221173 0.09382020158110449 327.46672096984696 130.0757416868159
182.8813754413206 5.316058719226849 0.19092651974116215 0.10090610940848843 328.5630444196908 132.23321948878043
189.47003531795517 6.005327445562022 0.19759987836188778 0.10878861147005087 329.74707517392477 134.4600859855788
196.31596471295904 6.779778757210621 0.2045064875302128 0.11740966184855067 331.0300349266862 136.75533593637135
203.43050851080594 7.646768440999467 0.2116544999352168 0.12608946577877583 332.4166501261103 139.11816799894396
210.8244028704521 8.611548461528256 0.2190523532228215 0.1349022716417198 333.9096258088783 141.54800776113123
218.51074020607123 9.683761637930058 0.2267087799557421 0.144675685399567 335.51527196244086 144.04316211894482
226.5082297443755 10.883905458890382 0.2346328179215674 0.15515575564888284 337.2475539070624 146.5980221258686
234.82991040706085 12.219142432571214 0.24283382080112978 0.165468793415954 339.10915812779723 149.21047258606862
243.4895649756236 13.697245910404929 0.251321469209763 0.17584512352042914 341.1031533419793 151.87844925539375
252.5038440061727 15.330749682934059 0.2601057821244808 0.18722157626269964 343.23564238728784 154.59823272020708
261.8986645589929 17.148496170258692 0.2691971287105613 0.19974621670466464 345.52172126130665 157.35874279741
266.0298293732767 17.980978026858946 0.27325860898006576 0.009461169185100177 347.9601724040327 142.38612833630438
589.3569418850575 23.390881949702987 1.4006133483404701 0.02400279788414414 350.553435966267 109.66812284282702
789.8218038271241 29.10628529768537 2.187371198624974 0.05049407378024609 353.30588629997703 77.88499025554644
901.9289286871061 36.14526025129298 2.629957486275013 0.6036191861800435 356.23075742095136 46.68308354491695
914.2931709827114 44.346056760906954 2.6676838848295876 0.7464689974837202 359.3222217150829 18.697763769102938
924.9685554443189 53.08178873705135 2.697462117446821 0.8212579086241576 362.5812187590644 0.0
936.2588807202725 62.38930456747022 2.7284420605346718 0.8231824836884787 366.0093102394057 0.0
948.305046228539 72.2901086733955 2.7611873965626064 0.820643102060763 369.6146067251103 0.0
961.106637044825 82.77847801985597 2.7956472659396483 0.8179758530131331 373.38857293297076 0.0
974.690698402948 93.87079620187242 2.831842613048738 0.8151866671583821 377.3304189270836 0.0
989.0843615363702 105.58324166494609 2.8697937746679765 0.8122921924385373 381.43924800134255 0.0
1004.3188983818803 117.93507629369593 2.9095310744019525 0.8091665783231448 385.715199445606 0.0
1020.4291184120276 130.9434671697316 2.9510499444644314 0.8058786411434364 390.1519632333736 0.0
1037.426512036433 144.61290816845593 2.9943462748408805 0.8026277599426352 394.74706680995223 0.0
1055.3249370715737 158.9488966458111 3.0394143562135625 0.7993601035450273 399.4973996827608 0.0
1074.1332136142878 173.9517887318272 3.086227013620608 0.7959583615649604 404.39704715862416 0.0
1093.8960856164422 189.64656427452854 3.1348137774519875 0.7922717295098289 409.443966892103 0.0
1114.670787106196 206.0646543816495 3.1852094160889104 0.7886093866541231 414.635064288593 0.0
1136.4188068241065 223.1770282676683 3.237346065291424 0.7849557765365072 419.965155467323 0.0
1159.1885083348109 241.00514064475962 3.2912176478418504 0.7810711126372114 425.42575827814784 0.0
1183.0267635830344 259.5769921144113 3.346880634944312 0.7772353518564286 431.0191767573046 0.0
1207.9380872739007 278.8909940081953 3.4043211027771427 0.773256626450765 436.7425864142945 0.0
1233.9872701789532 298.9777615771889 3.463553948663226 0.7692114795425491 442.58863755631796 0.0
1261.1276233247431 319.8007672623695 3.524486495295942 0.7651668331683883 448.5493841174104 0.0
1289.4766715240612 341.4313022938649 3.5872601420791805 0.7609727775693038 454.6305491184618 0.0
1319.0540123252792 363.8760657607566 3.6518777728473717 0.7568724430577962 460.8299726039833 0.0
1349.8335314307958 387.1088950583515 3.718254001698526 0.7525752331318705 467.1378280933174 0.0
1381.9249533894956 411.18517810394576 3.7864555843615597 0.7482175816856653 473.54898535308183 0.0
1415.3328899215983 436.1112311306632 3.8565314195031064 0.7440489241466421 480.071280830431 0.0
1450.1113255312894 461.9134048396845 3.928519186439549 0.739618610079364 486.70328412661297 0.0
1486.3300885325746 488.6153680803361 4.002400975523337 0.7351218341046923 493.4322960810193 0.0
1523.9664364063276 516.1997831364168 4.078147797033259 0.7307822863271074 500.25755711425035 0.0
1563.1282984464463 544.7314865076922 4.155906218617819 0.7263958254804486 507.1877539542807 0.0
1603.8782035707713 574.24034944122 4.2357231909871595 0.7219230190867192 514.2221043128914 0.0
1646.2075799092859 604.7011752557383 4.317487584521942 0.7173642558498265 521.3446486630854 0.0
1690.216893887415 636.1689297837468 4.401312147250801 0.7128279613900279 528.5600614898749 0.0
1735.994360345896 668.695777867069 4.4873221294783 0.7083325314091375 535.8768235754889 0.0
1783.612377252011 702.3156892426297 4.5755737027790575 0.7038122800259732 543.2946808831524 0.0
1833.016763760016 736.9732524207437 4.665890224081585 0.6992844997945014 550.7940656725807 0.0
1884.3502713356563 772.7513915563011 4.7584577899943055 0.6947474468742634 558.3858568647358 0.0
1937.741593835321 809.7212118426278 4.853427696512377 0.6902007389869169 566.0774961051789 0.0
1993.2748248042094 847.9214520825815 4.9508655704241304 0.6856487345813784 573.8691457199808 0.0
2050.861413341508 887.2723372539573 5.0505369410707335 0.6811092008306519 581.7373188974098 0.0
2110.7105178211154 927.8977171448711 5.152725006389357 0.6765758782273705 589.6997099959373 0.0
2172.954299206888 969.8665892127185 5.257569527947477 0.672049720407836 597.7620710944946 0.0
2237.6900307977367 1013.2229959756866 5.365145640463862 0.6675332280652766 605.9248908074412 0.0
2304.786500741499 1057.8583329407995 5.475151956411812 0.6630367873876475 614.160475058444 0.0
2374.5441157501136 1103.9503235518766 5.587992091240535 0.6584863325545118 622.493868083454 0.0
2447.1528633402872 1151.5914945946201 5.70383379661327 0.6539486573116671 630.9286144231583 0.0
2522.672321424131 1200.8055795416074 5.822718733771913 0.6493998093139375 639.4654611461091 0.0
