e[MeV/fm^3], P[MeV/fm^3], rho[fm^-3], v2[1], mu_q[MeV], mu_e[MeV]
71.58195607221194 0.019376260638347076 0.07551183166112621 0.01806185032450322 316.57195128971085 89.92341642585284
74.10016491175249 0.06485977178396946 0.07815115873557246 0.01806185032450326 316.72146406873105 91.024765790619
76.70639143836377 0.11193304521937247 0.08088273688183939 0.018061850324503265 316.876202692721 92.16461006582368
79.40371208999426 0.16065164710631397 0.08370979050524349 0.018061850324503224 317.0363498180116 93.34429474471072
82.19531083378259 0.21107308578268988 0.08663565671212049 0.018061850324503186 317.2020944852288 94.56521234887349
85.08448292446792 0.26325687964638034 0.08966378924900394 0.018061850324503227 317.3736323424404 95.82880407201151
88.0746387941701 0.317264627411876 0.09279776257949199 0.018061850324503234 317.55116587610246 97.13656148114251
91.1693080781302 0.37316008082260077 0.09604127610361388 0.0180618503245032 317.7349046500787 98.49002827727713
94.37214378115249 0.4310092199045644 0.09939815852466523 0.018088487354544512 317.9250655530129 99.89080211763012
97.6869757993967 0.49106090179612444 0.10287237236868205 0.019255301458732603 318.1222990017657 101.33984570908403
101.11986451800226 0.5612123980307122 0.10646801866188291 0.021662464342603646 318.3451487000273 102.80997251328064
104.67528624500615 0.6427510757917515 0.11018934177159138 0.024237271178381786 318.59574432277356 104.30486344182296
108.35791622476958 0.736980624741799 0.11404073441636543 0.026920267095794273 318.8759904930379 105.82396075340817
112.1727714362078 0.844944139362974 0.11802674285124978 0.029903169158792375 319.1863342944128 107.33131489870814
116.12536221854529 0.9697012467608513 0.12215207223425231 0.033128604049492305 319.53184301002517 108.83594926945497
120.22058430169312 1.1120115025052542 0.12642159218040233 0.03642699727296762 319.9131521806471 110.36057643612367
124.4640269233187 1.2739597956119093 0.130840342509936 0.04005797794488111 320.3330553238233 111.91312631407268
128.8618971317408 1.458760515403257 0.13541353919739 0.044167339746025575 320.79588975142224 113.49907969978847
133.4208715816421 1.6702641954106736 0.1401465805286361 0.04845346643322773 321.30651694759945 115.12367962053304
138.14674713038173 1.9093441223752088 0.14504505347311691 0.052773525840877133 321.864973007233 116.79378000164584
143.046301157445 2.1790046101745664 0.1501147402788089 0.057528169039875315 322.47450701812625 118.51374226197309
148.1273960447996 2.4844335534151987 0.15536162529769304 0.06284216502195894 323.1410092423423 120.28727240461446
153.3980665613772 2.830586859448035 0.16079190204979565 0.06832610081857435 323.8695330774141 122.11815106148126
158.86527298295658 3.219172163942335 0.1664119805341341 0.07388078486914754 324.6608118435546 124.01003694966207
164.53733520637863 3.6547355939838426 0.17222849479519628 0.08003547718389081 325.5190968335605 125.96563778643767
170.4244790514288 4.145740845861174 0.17824831075389239 0.0868529844855449 326.4526563846883 127.98699818273994
176.53631225317216 4.698462512306701 0.18447853431221173 0.09382020158110449 327.46672096984696 130.0757416868159
182.8813754413206 5.316058719226849 0.19092651974116215 0.10090610940848843 328.5630444196908 132.23321948878043
189.47003531795517 6.005327445562022 0.19759987836188778 0.10878861147005087 329.74707517392477 134.4600859855788
196.31596471295904 6.779778757210621 0.2045064875302128 0.11740966184855067 331.0300349266862 136.75533593637135
203.43050851080594 7.646768440999467 0.2116544999352168 0.12608946577877583 332.4166501261103 139.11816799894396
210.8244028704521 8.611548461528256 0.2190523532228215 0.1349022716417198 333.9096258088783 141.54800776113123
218.51074020607123 9.683761637930058 0.2267087799557421 0.144675685399567 335.51527196244086 144.04316211894482
226.5082297443755 10.883905458890382 0.2346328179215674 0.15515575564888284 337.2475539070624 146.5980221258686
234.82991040706085 12.219142432571214 0.24283382080112978 0.165468793415954 339.10915812779723 149.21047258606862
243.4895649756236 13.697245910404929 0.251321469209763 0.17584512352042914 341.1031533419793 151.87844925539375
252.5038440061727 15.330749682934059 0.2601057821244808 0.18722157626269964 343.23564238728784 154.59823272020708
261.8986645589929 17.148496170258692 0.2691971287105613 0.1990941783168373 345.52172126130665 157.35874279741
271.6882403462793 19.154773742642355 0.2786062405615009 0.21042316819891171 347.9601724040327 160.15923345514636
281.89049785111735 21.359861900727388 0.28834422436678714 0.22164620815909453 350.553435966267 162.99688619016126
292.5265475405733 23.778386588672046 0.29842257502243846 0.2337246132981532 353.30588629997703 165.86712739404365
303.63223194734013 26.447522162853414 0.3088531891997931 0.24592594617416275 356.23075742095136 168.75397623493998
315.221644345916 29.365222005850605 0.3196483793885593 0.2571506414649065 359.3222217150829 171.66146423910627
327.3182001354512 32.54397588998893 0.3308208884307057 0.268412822953334 362.5812187590644 174.58688764206116
328.0218813683657 32.73149172201024 0.33144805396061877 0.035386208702810173 366.0093102394057 158.03942958308156
470.67869912750564 40.99183785467891 0.8569428670331531 0.08042103083081431 369.6146067251103 140.9369969786568
531.8589261176692 46.502825121915826 1.0835476773998505 0.10325143646739215 373.38857293297076 124.22869082531076
586.9763443645717 52.847914471608476 1.2876760524305138 0.12857179306382932 377.3304189270836 107.88459284460588
637.724075648257 60.00119279620868 1.4747880015517354 0.152340174098053 381.43924800134255 91.96984679797131
686.5802408469284 67.97933015466238 1.6555649646873944 0.1743630428122892 385.715199445606 76.33562217710978
734.449310699594 76.84487619810938 1.8336114398105765 0.1945440919047039 390.1519632333736 60.98883509493181
782.294638630165 86.59955736292962 2.0126655598947125 0.21075392432614903 394.74706680995223 45.83470692481765
831.268872739015 97.2656831375425 2.1993161659868297 0.2120702746338895 399.4973996827608 30.80027517605171
887.9513113481235 108.91107078494083 2.4441223646975994 0.263499569615153 404.39704715862416 15.711106013426692
929.4044937053948 121.59378867760029 2.5668351830162472 0.3236187388950773 409.443966892103 1.5001963889459569
969.3242703936842 135.19170917748494 2.6636588407604513 0.34054638674145177 414.635064288593 0.0
1011.7827328806871 149.64695617658805 2.76542940544471 0.3403642000057483 419.965155467323 0.0
1057.0225931092527 165.04055006288164 2.8724474006937646 0.3401768645647094 425.42575827814784 0.0
1105.2147932942346 181.42983702296323 2.9849609664972876 0.3399982987194783 431.0191767573046 0.0
1156.4142218658722 198.83301727797704 3.1029986968536876 0.33982002658677346 436.7425864142945 0.0
1210.929384735175 217.35315866258284 3.2269422302284942 0.33964461674178237 442.58863755631796 0.0
1268.6674641016768 236.95869597933861 3.356550077051273 0.33947588262818074 448.5493841174104 0.0
1330.047288993571 257.7901829971172 3.492445282025256 0.3393067562258336 454.6305491184618 0.0
1395.1852466747673 279.88641627624594 3.634731139699578 0.33914713078557024 460.8299726039833 0.0
1464.0807144480325 303.2466552042096 3.783284694706232 0.3389860576263086 467.1378280933174 0.0
1537.224697342559 328.0350931634059 3.9387113870550574 0.3388278216253857 473.54898535308183 0.0
1614.6023939017334 354.2469659980658 4.100994059586986 0.33868190073350357 480.071280830431 0.0
1696.4635445170986 381.9657590241839 4.270416281151351 0.3385322470469643 486.70328412661297 0.0
1783.2243282853335 411.33016965930426 4.447375117391275 0.3383851283285644 493.4322960810193 0.0
1874.8356019215025 442.32353797526685 4.631726530868305 0.33824810755658685 500.25755711425035 0.0
1971.6878894307895 475.0769030717062 4.8240069865173325 0.33811411181881024 507.1877539542807 0.0
2074.076348965663 509.6889124512155 5.024530101637437 0.33798194663777803 514.2221043128914 0.0
2182.1495542651137 546.2083977526436 5.2332618633691785 0.3378516024769831 521.3446486630854 0.0
2296.3193183669864 584.7732693228343 5.4506948083345055 0.33772601926268875 528.5600614898749 0.0
2416.912352676089 625.4931197448988 5.677245386408734 0.33760555486612276 535.8768235754889 0.0
2544.2759674047843 668.4840065360413 5.913261709849954 0.3374881794599216 543.2946808831524 0.0
2678.419042320132 713.747752473685 6.1584591227014585 0.33737421167092707 550.7940656725807 0.0
2819.883519999091 761.4660651585696 6.413524774414069 0.3372634686939948 558.3858568647358 0.0
2969.1907142568884 811.8135591099142 6.679073109014099 0.33715580670944645 566.0774961051789 0.0
3126.7505169823494 864.9271796259437 6.9554925863659935 0.33705119608461453 573.8691457199808 0.0
3292.480812078536 920.7780326284515 7.242306484949782 0.3369499023115523 581.7373188974098 0.0
3467.154584093965 979.6254049365672 7.540515171372851 0.3368516404566644 589.6997099959373 0.0
3651.3432759659713 1041.660521734834 7.850730882539451 0.336756295460523 597.7620710944946 0.0
3845.527927599155 1107.0440722156184 8.173386319169223 0.33666378887609527 605.9248908074412 0.0
4049.500814853888 1175.7048574720627 8.507769461124182 0.33657420611764355 614.160475058444 0.0
4264.373534288954 1248.0157371414314 8.855312918386922 0.33648602552695017 622.493868083454 0.0
4491.027222819679 1324.2712857816477 9.216885115442693 0.33640038065188493 630.9286144231583 0.0
4729.785667530605 1404.5795512231068 9.592707097654879 0.33631522141774184 639.4654611461091 0.0
