e[MeV/fm^3], P[MeV/fm^3], rho[fm^-3], v2[1], mu_q[MeV], mu_e[MeV]
71.58195607221194 0.019376260638347076 0.07551183166112621 0.01806185032450322 316.57195128971085 89.92341642585284
74.10016491175249 0.06485977178396946 0.07815115873557246 0.01806185032450326 316.72146406873105 91.024765790619
76.70639143836377 0.11193304521937247 0.08088273688183939 0.018061850324503265 316.876202692721 92.16461006582368
79.40371208999426 0.16065164710631397 0.08370979050524349 0.018061850324503224 317.0363498180116 93.34429474471072
82.19531083378259 0.21107308578268988 0.08663565671212049 0.018061850324503186 317.2020944852288 94.56521234887349
85.08448292446792 0.26325687964638034 0.08966378924900394 0.018061850324503227 317.3736323424404 95.82880407201151
88.0746387941701 0.317264627411876 0.09279776257949199 0.018061850324503234 317.55116587610246 97.13656148114251
91.1693080781302 0.37316008082260077 0.09604127610361388 0.0180618503245032 317.7349046500787 98.49002827727713
94.37214378115249 0.4310092199045644 0.09939815852466523 0.018088487354544512 317.9250655530129 99.89080211763012
97.6869757993967 0.49106090179612444 0.10287237236868205 0.019255301458732603 318.1222990017657 101.33984570908403
101.11986451800226 0.5612123980307122 0.10646801866188291 0.021662464342603646 318.3451487000273 102.80997251328064
104.67528624500615 0.6427510757917515 0.11018934177159138 0.024237271178381786 318.59574432277356 104.30486344182296
108.35791622476958 0.736980624741799 0.11404073441636543 0.026920267095794273 318.8759904930379 105.82396075340817
112.1727714362078 0.844944139362974 0.11802674285124978 0.029903169158792375 319.1863342944128 107.33131489870814
116.12536221854529 0.9697012467608513 0.12215207223425231 0.033128604049492305 319.53184301002517 108.83594926945497
120.22058430169312 1.1120115025052542 0.12642159218040233 0.03642699727296762 319.9131521806471 110.36057643612367
124.4640269233187 1.2739597956119093 0.130840342509936 0.04005797794488111 320.3330553238233 111.91312631407268
128.8618971317408 1.458760515403257 0.13541353919739 0.044167339746025575 320.79588975142224 113.49907969978847
133.4208715816421 1.6702641954106736 0.1401465805286361 0.04845346643322773 321.30651694759945 115.12367962053304
138.14674713038173 1.9093441223752088 0.14504505347311691 0.052773525840877133 321.864973007233 116.79378000164584
143.046301157445 2.1790046101745664 0.1501147402788089 0.057528169039875315 322.47450701812625 118.51374226197309
148.1273960447996 2.4844335534151987 0.15536162529769304 0.06284216502195894 323.1410092423423 120.28727240461446
153.3980665613772 2.830586859448035 0.16079190204979565 0.06832610081857435 323.8695330774141 122.11815106148126
158.86527298295658 3.219172163942335 0.1664119805341341 0.07388078486914754 324.6608118435546 124.01003694966207
164.53733520637863 3.6547355939838426 0.17222849479519628 0.08003547718389081 325.5190968335605 125.96563778643767
170.4244790514288 4.145740845861174 0.17824831075389239 0.08677045275449968 326.4526563846883 127.98699818273994
122.73377160110132 1.2062266066312834 0.14144760439771442 0.012790327889159236 327.46672096984696 102.539478189901
502.56249110778754 7.099365110559666 1.3313687920504838 0.018240177184718646 328.5630444196908 85.10318517702143
624.2430342804217 9.425060433484088 1.7876689829868484 0.019113124105838705 329.74707517392477 65.46358015610201
756.0903186743474 11.945073943122999 2.282094299267979 0.047079038519053096 331.0300349266862 44.18303257583866
810.7768645880202 15.153999159956355 2.4837640116016018 0.41478298870617447 332.4166501261103 27.73763978322799
818.7792521074429 18.89025341054912 2.5081354558842186 0.4675833374231775 333.9096258088783 13.828470076002155
827.3747864239707 22.91576082619975 2.5342614608468157 0.47696891574835376 335.51527196244086 0.0
836.5060998791814 27.3549594170164 2.5613303652293515 0.4861511558650351 337.2475539070624 0.0
846.3191050437574 32.12556322028457 2.5904200794099177 0.4849729619027041 339.10915812779723 0.0
857.1151704787616 37.34736892513379 2.6220892310264223 0.4835217862679846 341.1031533419793 0.0
868.7017188566246 42.94779069181901 2.6560305207766497 0.4821573234573908 343.23564238728784 0.0
881.4720748245644 49.08824701632149 2.6930360217041174 0.48035813602934163 345.52172126130665 0.0
895.2445872917791 55.69687658776122 2.732773372892254 0.47908886267655726 347.9601724040327 0.0
910.1519903595395 62.826695303923074 2.775491395141028 0.4772262259645168 350.553435966267 0.0
926.3716500699666 70.54865719462097 2.8215232450253676 0.4753475652149348 353.30588629997703 0.0
943.9139463174342 78.87332433615295 2.8709686429386014 0.47371196092272405 356.23075742095136 0.0
962.8333402361485 87.81860204318592 2.923880635747704 0.4718976924007141 359.3222217150829 0.0
983.227261388273 97.42239186173141 2.980428031088408 0.46980686183425746 362.5812187590644 0.0
1005.2758652697703 107.75457782070298 3.0409201350092707 0.46763665134905597 366.0093102394057 0.0
1029.0366562682873 118.8410830199322 3.1055004330664397 0.4655835678835243 369.6146067251103 0.0
1054.5515170228036 130.69285701921564 3.1741723959005537 0.4634711724106073 373.38857293297076 0.0
1081.9201849882566 143.34710275958537 3.2470867888833146 0.4613088548903317 377.3304189270836 0.0
1111.2447754226694 156.8416901555735 3.324394605278417 0.4591137798906457 381.43924800134255 0.0
1142.6381277381613 171.21898022638916 3.4062687967487357 0.45680001406862303 385.715199445606 0.0
1176.2597659066791 186.5351283021052 3.492905698009193 0.45442070202098517 390.1519632333736 0.0
1212.1717483051677 202.81117439613905 3.584368711385539 0.4521257843763311 394.74706680995223 0.0
1250.4482857528265 220.07232363412078 3.680734413036071 0.4498746561602296 399.4973996827608 0.0
1291.1616075849115 238.3412573144081 3.7820526362868865 0.44758935679680967 404.39704715862416 0.0
1334.4937442824757 257.68405711837244 3.888568894178715 0.4451763580945709 409.443966892103 0.0
1380.6816979466118 278.1863564984916 4.00059666247757 0.4428352014679646 414.635064288593 0.0
1429.6288448154332 299.80724266351643 4.11792131583071 0.44056607660306435 419.965155467323 0.0
1481.5760859501688 322.62987123478445 4.2408073027088875 0.4382127344215019 425.42575827814784 0.0
1536.6996588663123 346.71964070357933 4.369504530440706 0.43594887904126844 431.0191767573046 0.0
1595.050761986326 372.09195278844743 4.504031349672908 0.4336666089120569 436.7425864142945 0.0
1656.937316387819 398.85428465461086 4.644735274466613 0.4314021711204461 442.58863755631796 0.0
1722.2527637938394 426.9598456033029 4.791353812381066 0.4292028937587937 448.5493841174104 0.0
1791.4302776753564 456.5702886575694 4.944514232400207 0.4269799328171686 454.6305491184618 0.0
1864.5835501707306 487.7235993192516 5.1043100196135995 0.424863791380786 460.8299726039833 0.0
1941.6986631238458 520.4057485261052 5.270587976589078 0.4227091135003107 467.1378280933174 0.0
2023.269079462799 554.7913266025638 5.443921492871785 0.4205762217487372 473.54898535308183 0.0
2109.28398579315 590.8793068838603 5.624320334259665 0.4185924746090697 480.071280830431 0.0
2199.9934425030233 628.757531604283 5.812056349120971 0.4165412992367381 486.70328412661297 0.0
2295.8038530425856 668.5616666635183 6.00747401842285 0.4145099813209998 493.4322960810193 0.0
2396.659815947699 710.2680032188439 6.210430238315633 0.41260295347559506 500.25755711425035 0.0
2502.964391737019 754.0264115417543 6.421477826948835 0.41072433706987876 507.1877539542807 0.0
2615.012467527601 799.9400385097598 6.640920144583074 0.4088578648421599 514.2221043128914 0.0
2732.931985662711 848.0395129102529 6.868670037495129 0.4070039376577186 521.3446486630854 0.0
2857.141149779813 898.4757818897879 7.105223894933919 0.40520533149117055 528.5600614898749 0.0
2987.9760990030054 951.3731310372152 7.351016738604194 0.4034681568471359 535.8768235754889 0.0
3125.783222749142 1006.8523100858421 7.606387373445498 0.4017643991725066 543.2946808831524 0.0
3270.542705453281 1064.8866257068435 7.870991887299734 0.4000994781123701 550.7940656725807 0.0
3422.810293668916 1125.6803281690866 8.145537538879296 0.3984715227400315 558.3858568647358 0.0
3583.1161667421193 1189.4253091587634 8.43064902321725 0.3968791821987496 566.0774961051789 0.0
3751.868440379015 1256.2633622584738 8.726705921958148 0.3953227538913029 573.8691457199808 0.0
3928.9486653327713 1326.127977326545 9.033163668142809 0.3938069315040078 581.7373188974098 0.0
4115.152354405726 1399.3134300781012 9.351058181043607 0.39232818017609317 589.6997099959373 0.0
4311.056111041839 1476.0253318722305 9.681006289252654 0.39088544756781074 597.7620710944946 0.0
4517.13816647178 1556.429337852099 10.023431845094303 0.3894781918351775 605.9248908074412 0.0
4733.146366839398 1640.4065156346728 10.3775464684504 0.3881083279484656 614.160475058444 0.0
4960.224512777245 1728.3798488519712 10.744832683152488 0.38675295983540225 622.493868083454 0.0
5199.254636423838 1820.6590424952092 11.126149822261477 0.38543016167919886 630.9286144231583 0.0
5450.55562058693 1917.352474643513 11.52171609495311 0.3841126434978026 639.4654611461091 0.0
