M[M_sun], R[km], Lambda[1], P_c[MeV/fm^3], rho_c[fm^-3]
0.24982501275953561 17.007319856850394 3350319.5737308385 3.154575696877379 0.1586418077598382
0.26158839130441114 16.59123973166657 2677139.901034507 3.3584375472995154 0.1613869415930522
0.27379975814341057 16.226020949696046 2148922.2717872737 3.571467735451735 0.1641106715213838
0.2864695873981713 15.904619094690188 1732117.9675442043 3.7939805624890695 0.1668038677968293
0.29960107302193967 15.620939857285464 1401791.312308185 4.026391520523936 0.16947118107179895
0.3131999976572356 15.370064354656266 1138650.2546373236 4.269101176431307 0.17212611955628418
0.3272460843531705 15.148249898592399 928371.5327370682 4.524043015725709 0.17783904237287315
0.3405314207616358 14.963824789229049 771141.6765353424 4.798169150515319 0.22330374676584808
0.35222307744899856 14.81117592032323 656252.9654268621 5.096733844442582 0.2728216650847276
0.36241479933493675 14.678544277615893 569376.7051361061 5.429806017853584 0.3279280764042962
0.37135501536829574 14.557178539272751 501001.24161330785 5.796581203859341 0.3761614527484948
0.3797118476035682 14.438349304636306 443080.4100635403 6.195572283945297 0.4196002915178959
0.3877177244005114 14.320188318573916 392763.9037932119 6.626913722072731 0.46301536246647323
0.3954275332957027 14.202566436655422 348843.4048432496 7.091240084177375 0.5090974607986606
0.40302675131391363 14.083494390285784 309749.5183419643 7.585423838864382 0.543576347764741
0.41081686885578095 13.961833703015415 274144.4022602052 8.11260646510255 0.5790279328048418
0.4188115219366489 13.83905785221208 241972.46157222494 8.673164263279842 0.6147757707761541
0.42711605177095063 13.714893023896352 212819.8615264364 9.268592917435056 0.6479485828801138
0.43580604129492806 13.590180759925618 186493.7009928289 9.89006727305727 0.6797307320000405
0.44494140584046316 13.465662595687032 162809.88080273787 10.54755103078723 0.7108576875483952
0.4545827815348863 13.34187279203739 141597.03341074465 11.24322773464977 0.7415844927028565
0.4647699701239745 13.219510778653756 122684.66525819621 11.97199256788599 0.7717125068714619
0.4755322958504739 13.099417493020082 105963.86092276404 12.730778296107955 0.8004750003022096
0.48691602634986875 12.98199775350091 91208.56726476466 13.531632895532825 0.8297923164274613
0.4989187777247406 12.868050365666887 78306.79155024012 14.37589768865345 0.8599448807220271
0.5115674089320771 12.75785286856183 67061.84550977002 15.2439646643871 0.8887142157235614
0.5248717710683521 12.651824095406985 57309.41246009475 16.159466490695795 0.9190364803997961
0.5388137613195207 12.550459322344327 48900.82143921699 17.12468591888965 0.95101806727892
0.5533899870328439 12.453976692788485 41679.74652717221 18.117996124502156 0.9840354440458077
0.5685620802823639 12.362451117179733 35503.16651071275 19.162551137355333 1.0208731038603207
0.5843045009477346 12.275930028737188 30238.71293999633 20.26577439421752 1.0619412064725835
0.6005167207102694 12.194528307636995 25776.25703780076 21.402990471819077 1.112691097383773
0.6171587318120944 12.117948361832193 21993.60635231797 22.60164405911491 1.1601972394228521
0.634322983495424 12.0454491004744 18771.722289749974 23.86762685356261 1.2045282685693428
0.6521738422042206 11.976869805787523 16006.524731115058 25.159511092159804 1.224814755515566
0.6708953419963757 11.912111752422367 13624.741319109951 26.516787009547823 1.2394150609802046
0.6906042368480885 11.851486955753414 11572.808377331845 27.92822873011972 1.245522537882227
0.711317789565281 11.795445928478651 9813.51150639779 29.367159343278686 1.2515885584698376
0.7329967222064637 11.744207285837218 8314.526604528535 30.87667944811534 1.257885228255572
0.7556124714442378 11.697900486944604 7041.187790334132 32.42959472796495 1.264261845670869
0.7791283871362141 11.656612460887136 5963.1833230165075 34.03007225635281 1.2707641368694051
0.8034878516769284 11.620075959154846 5053.183866617323 35.70879972463511 1.2775443623665106
0.8286685920364938 11.588198097588341 4284.887359176596 37.420954303304924 1.2843949503347065
0.8546175520162862 11.560810371787381 3637.6554948994653 39.204623780389156 1.2915032928093602
0.8813008402112575 11.537594956456834 3091.9052094124613 41.07021823574535 1.2989121851676342
0.9086762845295054 11.518286880476618 2631.9303851195546 42.96801978683496 1.3064112062638014
0.9366814515013706 11.502692151548331 2244.0021616297945 44.95877224454243 1.3142644702376756
0.9653056001581383 11.49044529445524 1916.56291357529 47.02364703876306 1.322390738397963
0.9944806090065732 11.481298538809808 1639.7798251330244 49.14614584384926 1.3307179561677538
1.0241626895458558 11.474915111910457 1405.6866631881644 51.372023126864185 1.3394368891305568
1.0543251943163987 11.471103423299 1207.2695273701372 53.66614029812685 1.3483984885034246
1.0849187650000092 11.469557659528052 1038.8214727742923 56.04432022424243 1.3576662577848952
1.115902765770176 11.470079242986767 895.6478047359333 58.53679127794543 1.3673629945671157
1.1472276543606692 11.47236736619915 773.759006462544 61.09701241346792 1.3772869752341184
1.1788448663697562 11.476205914562005 669.7626782413844 63.76613511410736 1.3876106995351125
1.2107200110762149 11.481367083553291 580.9094231194088 66.56286990685652 1.3984085131901725
1.2428243776071388 11.48768551664261 504.81929412315924 69.43335942806375 1.4094468536775508
1.2750859878916276 11.494896520344124 439.541117433348 72.43526616698458 1.4209644348719999
1.3074837496716374 11.50285654213793 383.43077565843225 75.5798886162506 1.4330039629805484
1.3399685624735178 11.511396130169487 335.15255831345763 78.81478797420145 1.4453399167108192
1.372481962508832 11.52030155065638 293.5144152193603 82.19917966771705 1.4582143988902259
1.4050070262388115 11.529477930563633 257.52723001738167 85.74459779648038 1.471669462768452
1.4374749234229114 11.538669295425999 226.36070430676108 89.40959933811745 1.4855203074609538
1.4698623864483018 11.547809034981968 199.33645600140372 93.23658068892198 1.499940367467533
1.502110389603622 11.55675380279391 175.8760997710888 97.24646836002114 1.5150098563589227
1.5341717614900752 11.56534314618504 155.44270383251322 101.42233572818748 1.5306477768335456
1.566035817327283 11.573512673368382 137.6335247990736 105.76520751273259 1.54684753306138
1.597620241516293 11.581070542430163 122.081486733664 110.31818680144599 1.5637812367390291
1.6289028991789432 11.587956779049305 108.4855841257891 115.09045260724605 1.581476101817235
1.6598297414720113 11.594010261944096 96.56294298810766 120.05353033950982 1.5997955326391735
1.6903649720266616 11.599175840027955 86.10729083255801 125.24649890340389 1.618892145941789
1.7204665158741346 11.603367358542924 76.90790631949994 130.69512529863854 1.6388612929012372
1.750066508133099 11.606379168476852 68.81852486890783 136.4121523073106 1.659741123545422
1.779191338928363 11.608324528773611 61.67473011054604 142.38918828446242 1.6814768527325556
1.8077124710241947 11.608914320521139 55.37266671909565 148.64501598000237 1.7041220566598738
1.8356463806037826 11.60815451583789 49.7909829261249 155.21853840900144 1.7278270083406262
1.8628991796964818 11.605928905357757 44.85753449779371 162.12786397207333 1.7526432000897951
1.8894926187293037 11.60224245810682 40.475495267608906 169.3927494968314 1.7786264378239884
1.9153564205145088 11.596980718049773 36.58420505188262 177.0331543566357 1.8058373972137154
1.940422373447297 11.589971640067912 33.12332539230399 185.04661353856687 1.834223131554845
1.9647368604706175 11.58136417056013 30.03649804643868 193.48971061602467 1.863996784280711
1.9881692491035128 11.570916768323324 27.28551579526179 202.3905498686414 1.8952400498155557
2.0107080420303527 11.55861159078373 24.8282672550903 211.77973926166828 1.9280405735642014
2.032338341461651 11.544402511585924 22.630164691652812 221.6908147157564 1.9624938793956757
2.052985444716435 11.528211756238102 20.663910154449326 232.16054724944678 1.998704510040953
2.072650550424532 11.509998270246879 18.896662726701333 243.22927235420346 2.036786921762825
2.0913219763722437 11.489783840757397 17.313280915845358 254.94116941896024 2.0768660555206644
2.1089025934506047 11.467433524029785 15.889668879591836 267.34477395953286 2.119078849390808
2.1253705428798324 11.442917286955813 14.609929314089065 280.49344435940776 2.163575474662303
2.1407423868402446 11.416199759182332 13.457196776898519 294.4458697478563 2.2105206326923668
2.1549201543806107 11.387237019478953 12.416167539997607 309.26664382384115 2.2600935265578066
2.1679310982285407 11.356005251437953 11.478399326262203 325.0270423093433 2.3124887222862838
2.179722926994985 11.322486974504807 10.629704919934776 341.80574090518223 2.3679246029357683
2.190258946051161 11.286643258375808 9.864788814552774 359.68963770989615 2.4266379502202415
2.199557421782095 11.248460042362943 9.170437364678302 378.77497185263553 2.488889785764612
2.2075247355567718 11.207881950270092 8.543297421639812 399.1683186035978 2.5549712341497584
2.2142058151409603 11.164953321829131 7.974836404509866 420.98795025440154 2.6251944260881053
2.2195233814049016 11.119606062555128 7.460347183684729 444.33880450957275 2.6997706366542435
2.223525969313334 11.071971788245333 6.993115646919587 469.3842704823609 2.779174362241379
2.226132951619165 11.02190552730223 6.569904069505109 496.2933638923088 2.8638650228622944
2.2273656492549394 10.969477516519161 6.186651182158909 525.2481972529716 2.954318195129965
