M[M_sun], R[km], Lambda[1], P_c[MeV/fm^3], rho_c[fm^-3]
0.24982501275953561 17.007319856850394 3350319.5737308385 3.154575696877379 0.1586418077598382
0.26146661539307725 16.595226825207444 2683150.17957357 3.356301676256858 0.1613588253274453
0.27354607570448 16.233059756753406 2158510.3827065406 3.567010386769514 0.1640549785195318
0.28607761088645167 15.913819783009687 1743473.8628388017 3.787015381738154 0.1667219526061765
0.29905308220601007 15.631871045956103 1413947.5822553362 4.016731675707439 0.169363449152649
0.3124900676734179 15.382283002700014 1150850.546137433 4.256556404789962 0.17199335493674947
0.326382908645521 15.160947852122671 939855.1222660415 4.506946889808575 0.17461612513507854
0.3407342303438661 14.964619945269126 770213.8903879378 4.768402410984953 0.17723403765137016
0.3555558666450949 14.790222158046175 633080.7928247543 5.039765305805047 0.17979741361439164
0.3708474560045583 14.635358792842188 521966.04266654386 5.322223299688216 0.1823478582936377
0.38661407059318864 14.497882559949705 431571.514271291 5.617000285386945 0.18490201681357932
0.40285462532030286 14.37579560872297 357819.4079509058 5.924752125912096 0.1874626928143923
0.41957292245934563 14.267616822901676 297429.59907495294 6.246190046926685 0.19003020590027556
0.4367900183770532 14.171864872530051 247841.89039325848 6.580043515452618 0.19256410825544962
0.4544897691811966 14.087283083567316 207033.31233249948 6.926033355090758 0.19507361483542415
0.4726806863716204 14.012983131015273 173341.69617741957 7.287502800019249 0.19760328774278785
0.49136498954355556 13.947583555385439 145440.850351566 7.6653511498070275 0.20015566247790428
0.5105479042543455 13.890642610757308 122295.7087764835 8.057929264249404 0.2026968966688152
0.530218563854596 13.841066687981252 103044.93498460166 8.463914641495288 0.2051946206134258
0.5504109337517582 13.79850269325337 86991.09250954054 8.888601839757067 0.20772304587551893
0.5710947472029257 13.762035222715895 73584.04541393694 9.333100922078563 0.21028765977387917
0.5922864075561557 13.73133416144512 62357.3313042297 9.790557296083161 0.21280152335004965
0.6139689629557675 13.705743982633042 52939.40081870387 10.2678111358375 0.2153351224284344
0.6361704302776008 13.684943919783727 45020.09767515408 10.767672175434964 0.2179077391195552
0.6588713109718548 13.66851404629473 38353.34123863834 11.284655569933964 0.22044638267072242
0.6820802654237361 13.656020420012222 32727.150726477743 11.821245891601247 0.222985649988479
0.7057789701237408 13.646891534538817 27966.27680398235 12.38375331733338 0.2255780699983661
0.729982433047089 13.64123949561941 23752.951996679032 12.96619238844861 0.22815845155936523
0.7546861365669806 13.638533887116695 20520.976274176464 13.569949272606388 0.2307294868401525
0.7798766103266775 13.638523202747542 17616.610560478162 14.203350337533099 0.23335621264875084
0.8055594161671084 13.641015423346277 15145.32810438991 14.85804427469452 0.23595408355042782
0.8317329391583208 13.645916771535799 13039.502688732844 15.538105006290431 0.238563338716568
0.8583805565973759 13.652623279536344 11240.351388289098 16.252103284391335 0.24124102006399822
0.8854941797290994 13.661300529401213 9704.299406092188 16.98678680102181 0.24387909588181833
0.9130863364979128 13.671754718452286 8388.32379620902 17.75354730097084 0.24655118647181698
0.9411359913361086 13.683601883309333 7260.168356081412 18.559079141948462 0.2492936134730893
0.9696237294013816 13.696705568739398 6253.566661037027 19.382753079731568 0.2519537924597773
0.998562939099682 13.711151415795483 5459.245251485035 20.24831056968087 0.2546949102178159
1.0279205528432585 13.726472640163294 4742.559407660546 21.15081812591617 0.25747334249999626
1.0577163266763638 13.742854930136769 4125.1199714196255 22.08114846523769 0.2602279323904908
1.0879023631111462 13.759932199027935 3592.2704706312593 23.05894575172194 0.2630651230641192
1.1184869144721545 13.777684517135649 3131.860270728436 24.070391154511974 0.2658880956118129
1.1494589433094287 13.796015338280139 2733.692321344724 25.12202740517912 0.26873311862806976
1.1807822214309824 13.814712075796269 2388.7279176825728 26.227727527689648 0.2716661239199712
1.212461093023338 13.833756707882179 2089.700423321831 27.36186667324524 0.2745493144887309
1.2444776326241638 13.8530795884059 1830.1530020764678 28.551785156254027 0.27751608643102255
1.2768141008296419 13.872544784705733 1604.5865898594213 29.794959271885883 0.2805414357673796
1.3094331911241495 13.892022945690679 1408.3720419655085 31.07626353074983 0.2835348147653608
1.3423294116159097 13.911409960485793 1237.452166220064 32.42338279436716 0.28662456050275054
1.375491827335781 13.930739427535116 1088.456322385673 33.82034967579218 0.28972686079534077
1.408880262890671 13.94981195406663 958.4463411689908 35.27228441822411 0.2928633716239998
1.4424918437220975 13.968632518822387 844.8360876037735 36.798247238839295 0.296103246925123
1.4762759700867363 13.986997760575953 745.4626280010048 38.3717532678831 0.29932842816917277
1.5102463832288313 14.005024268299351 658.449158870493 40.01783486821461 0.30262376572742744
1.5443310135515906 14.022462621778708 582.2375387783594 41.74694073178486 0.3060171773879213
1.5785519408596835 14.03937604355082 515.361827952254 43.52454845485343 0.3093737477524897
1.6128514730686505 14.055625873080267 454.8636994150011 45.39238222985483 0.31284332688983674
1.6472126891350471 14.071121990110468 405.01535217997844 47.34815628139702 0.3164038045708747
1.6816057297243436 14.085893581225019 359.6150083633016 49.36774659929344 0.319962844371233
1.7159970593711242 14.099825315839766 319.63678641673556 51.48873804843162 0.32363102737639055
1.7503558272676205 14.11279873078569 284.3800276178628 53.70901757618424 0.32738343763443223
1.7846764723478217 14.124900264305959 253.26569445121248 56.00578833776871 0.33114615822780913
1.8188926945530364 14.135927130181328 225.79299036663278 58.4175336663793 0.33503130070417375
1.8529999208410939 14.145939773767113 201.50713879266124 60.947564330369026 0.3390341828802024
1.8869530218423993 14.154802955975592 180.01323393488204 63.563788928563014 0.3430482459123968
1.9207127899067271 14.16249718810671 160.98315311540645 66.31024892185859 0.34718029057770844
1.9542665795910847 14.16905525085994 144.114687225356 69.19288561821372 0.3514325392010455
1.9875633250374194 14.1742525787059 129.1426528830543 72.19139221534672 0.3557438761138858
2.0205809380372775 14.178160792963794 115.84529543658876 75.32616414445307 0.36015817875871986
2.0532906481734328 14.180782912283602 104.02874582528997 78.61653863203387 0.3647108866419464
2.0856412004047633 14.18195818601544 93.51190845341085 82.06942770943445 0.36940244607915657
2.1175937722738287 14.181651694980852 84.14688358795058 85.65830140176033 0.3741314080801915
2.149133754737484 14.179875656813433 75.79914332833168 89.42543172430203 0.37900831613147457
2.1802208686678375 14.176622412806735 68.35404174595193 93.38069834478127 0.38403875957177397
2.2108188857489304 14.171685560201471 61.69952289168228 97.5331989594714 0.3892251442507709
2.240898820031523 14.165257049068684 55.75639958833225 101.87232062229349 0.3945213488808617
2.270425936708492 14.157190315368302 50.43955367312954 106.42044085964784 0.3999478449170277
2.299359677756589 14.14745708340679 45.67940291313135 111.19967431295412 0.40554578710611117
2.327666540695791 14.135962724895132 41.41085863666725 116.22221981539747 0.41132318041629956
2.355337072665695 14.122778186173425 37.58430834093355 121.50130022953603 0.41728455612339715
2.3823419812373943 14.107948685216062 34.147673583863096 127.0507531594824 0.42343149487208026
2.4085629506390394 14.091113860175549 31.061059646170254 132.8662549774527 0.42971644622407024
2.434089783636313 14.072601825393305 28.283358844469443 138.9871348051398 0.43621260678318624
2.458832781216441 14.052293626999333 25.78502306053428 145.43148874798962 0.44292808653017585
2.4826988493634476 14.02987702646515 23.53395169180181 152.21885773500964 0.4498670217179325
2.5057937598435074 14.005796191475234 21.503284872785027 159.3704605458215 0.4570321864947148
2.5280266948808876 13.979852709695214 19.671109983376414 166.9094426132946 0.4644374615898438
2.5493224593511545 13.951790176131853 18.015580835845597 174.8606464730346 0.47210248455695547
2.5697349089026056 13.921957370680017 16.51972671261303 183.25111614049723 0.48003597586587116
2.589168881031046 13.890050088234736 15.166113325863666 192.11028488794082 0.4882429228708952
2.607639854994329 13.856190738887596 13.939466348106121 201.4701139827485 0.4967396880988885
2.6251150904950986 13.820368248314072 12.828703059966964 211.365209539188 0.5055522532297165
2.6415699573216846 13.782565566936569 11.821163154224935 221.80255567056207 0.514635400615029
2.657015591526714 13.742854837010162 10.906610919996233 232.88326789573685 0.5241159724304619
2.6675613670799367 13.703713819342571 10.216331476688524 246.2330111556649 1.1957558867317062
