M[M_sun], R[km], Lambda[1], P_c[MeV/fm^3], rho_c[fm^-3]
0.24982501275953561 17.007319856850394 3350319.5737308385 3.154575696877379 0.1586418077598382
0.26145176658989167 16.595689627625777 2683883.5945973815 3.356050062816087 0.16135551312825833
0.2735144243812511 16.233979037609654 2159717.809185204 3.566485551896209 0.16404842089264307
0.2860300805962686 15.9149369336787 1708259.618478933 3.7861956504082 0.16671231201671036
0.2989899677593113 15.633110052930176 1415351.6110232093 4.015595335864788 0.16935077606375565
0.3124069712971623 15.383728608091186 1152198.571158544 4.255081358931522 0.1719777441382598
0.32628044794857464 15.16248490913738 941227.8393678969 4.505110730884748 0.17459768651950527
0.340609236996066 14.966254655743276 771479.5404118838 4.766183002029889 0.17721307244324436
0.3554087080028477 14.791942547247862 634325.4765769814 5.037015322274415 0.17977143643838236
0.37067853243177884 14.636991862413774 523064.83523725625 5.31902540359702 0.18231919698230195
0.38642076302239786 14.4994730504112 432560.69668297144 5.613330242603786 0.18487080523430047
0.40263361571771966 14.377441672819272 358722.48184025346 5.920585319202771 0.1874290996775185
0.4193271684761447 14.269049244306698 298233.21597799717 6.241502467930571 0.18999462781414464
0.43651414435459823 14.173263811079673 248559.23868547275 6.574555858493559 0.19252245768655082
0.4541814529402944 14.088711730478355 207665.21993063568 6.919950511270825 0.19502981062367108
0.47234048051386207 14.014142827095954 173891.34846241123 7.280797313927187 0.1975574657249111
0.4909990144607234 13.948888552256195 145938.20210972233 7.657995008074535 0.20010804474732768
0.5101466917094315 13.891802553795344 122735.61603090608 8.049501109605188 0.20264233959097458
0.5297885381041684 13.842125723152947 103430.6126355185 8.454751866830785 0.2051387264755071
0.549944178527999 13.799520257045256 87335.38659277139 8.878674793393312 0.20766557622793907
0.5705839067002816 13.762908209455038 73884.67029104027 9.322376491956833 0.2102287257294758
0.5917349991165937 13.73206697699683 62622.98495843376 9.77843997697435 0.21273493495194337
0.6133790093322965 13.70639696726904 53172.76766095031 10.254798207355275 0.21526741083838516
0.6355424178703803 13.68549414739403 45225.92386809577 10.753729177643473 0.2178392721208006
0.6582010124514617 13.668917474185726 38532.42538476758 11.269014478450435 0.22036957719408548
0.681353832328079 13.656166814655865 32883.87473997433 11.804565956595756 0.22290786491740172
0.7050181763285633 13.647111516700644 28104.638598932946 12.365989768583594 0.22549937209514323
0.7291851957284853 13.64136129398514 24059.693260981847 12.946379819380002 0.22807067587528762
0.7538318635806275 13.63856427463106 20627.227619885856 13.548927529594062 0.23064128194038772
0.7789760747826061 13.638462010370048 17710.914187541443 14.181071684249217 0.2332678094089932
0.8046112589205905 13.640902302477242 15228.858668207567 14.833313199158665 0.2358559489292637
0.8307329653718124 13.645628096681222 13112.4855199865 15.511974132959997 0.23846472958673312
0.8573341125095743 13.652429789138628 11306.085126989568 16.224507644089567 0.24114193060614397
0.8843929939822821 13.660908044392635 9761.267031002857 16.956275160132336 0.24376953575127164
0.9119327262031109 13.671262969489542 8438.698929887232 17.721403027633187 0.24644174473472374
0.9399306250985272 13.683038245486863 7304.762106288727 18.523642938131065 0.24917313419399503
0.9683556430267579 13.696061672118041 6331.165208145387 19.34545461205794 0.2518333314431181
0.9972427929389238 13.710390623662967 5494.175255964856 20.20911022526225 0.2545742292310997
1.0265586219253182 13.725774417251406 4773.573943130288 21.10767928976348 0.2573405365925507
1.0562813428425206 13.742031694262243 4152.464034581167 22.035880045211048 0.26009498696323946
1.0864195744278613 13.7590777428871 3616.506016115879 23.01144057930572 0.2629325347926865
1.1169535845379106 13.776806768625299 3153.2631667163196 24.018251729179653 0.26574257301023735
1.1478701038098318 13.795095204452728 2752.5545847749113 25.067389197521855 0.2685878791377325
1.1791397973327291 13.81375781228736 2405.5797749546746 26.17026566291736 0.27151954953116403
1.2107535649677887 13.832760186003082 2104.72920506225 27.29915001581778 0.27438987719577823
1.2427096778229942 13.852010180845138 1843.4162898696843 28.486100418138797 0.2773562381230768
1.2749971102971895 13.871490824252081 1616.44848969009 29.723084607657533 0.2803665238503843
1.3075589198925865 13.890918037099068 1418.9109307913832 31.00105115747598 0.2833602805404895
1.3404032319524941 13.91031771183056 1246.783968464398 32.34464290121933 0.2864496996690407
1.373499456268734 13.929578772062936 1096.807893958077 33.73434435077906 0.2895358653261566
1.4068471117982082 13.948662672928279 965.8164299682527 35.182290910353366 0.2926714730814259
1.4403933921541527 13.967456000586484 847.7407618335769 36.70400944582672 0.2959100897608702
1.4741394169396094 13.985884021855824 751.3575968674954 38.26897577204878 0.299117767360916
1.5080519164096147 14.003901571784462 663.7211655399 39.910250591293995 0.30241262900787785
1.5420941309558607 14.021360096683722 586.9411062759464 41.62964230706343 0.3057869764207084
1.5762634463501144 14.038284627853468 519.5636756895843 43.401798289881434 0.3091420248310749
1.610510930597743 14.054503749784566 460.3908301139395 45.26381444728324 0.3126092698319748
1.6448318680245677 14.070104644578842 408.3916787038092 47.20813542845174 0.3161488972509834
1.6791757674397156 14.084906187918124 362.6457076155495 49.22108061385514 0.319705080950866
1.7135241631288387 14.098837360664275 322.3336737735383 51.334984936132614 0.32337117507014485
1.7478510948416786 14.11191205809245 286.80640217757235 53.541711820507594 0.32710068051940094
1.7821302488291502 14.124077404432503 255.45917656688323 55.8451367974694 0.33091677590252805
1.809357119522401 14.128924081430341 232.42872063266412 58.64206992734941 0.6238897201666165
1.822353255395992 14.115818267157099 219.73193624911224 61.66993833203482 0.950485859080865
1.8238648443577619 14.08447198588404 213.57038543381827 65.68165038004778 1.258553588894281
