e[MeV/fm^3], P[MeV/fm^3], rho[fm^-3], v2[1], mu_q[MeV], mu_e[MeV]
57.966178572082526 0.019822096656569643 0.06138222726183227 0.020213769750225503 316.50152527280727 77.43622658892006
58.97886553652739 0.04029231778491282 0.06244035487608422 0.02021376975022545 316.5692934474086 78.01774239494746
60.00900954170713 0.061115411515191176 0.06351672285237621 0.0202137697502254 316.6382298327464 78.60928256730938
61.056911517999424 0.08229746078476974 0.06461164562424372 0.02021376975022536 316.7083545668328 79.21101990942611
62.122877583322726 0.10384465339076865 0.0657254430455351 0.02021376975022541 316.77968813482585 79.82313020356239
63.2072191325579 0.12576328379761126 0.06685844048384562 0.020213769750225444 316.8522513750136 80.44579226217607
64.31025292851837 0.1480597549758732 0.06801096891556957 0.02021376975022536 316.92606548490176 81.07918798015595
65.43230119448147 0.1707405802726909 0.06918336502258365 0.020213769750225388 317.0011520274056 81.72350238795603
66.57369170831848 0.19381238531448375 0.07037597129060076 0.02021376975022543 317.07753293714944 82.37892370564802
67.73475789824626 0.21728190994245533 0.07158913610921809 0.020213769750225485 317.1552305268739 83.04564339790468
68.91583894023093 0.2411560101814899 0.07282321387369146 0.020213769750225374 317.23426749395423 83.72385622993208
70.11727985706676 0.26544166024290894 0.07407856508846006 0.020213769750225416 317.3146669270307 84.41376032436374
71.33943161917078 0.2901459545619121 0.07535555647246375 0.020213769750225527 317.3964523127535 85.11555721913992
72.58265124710447 0.3152761098699245 0.07665456106626516 0.020213769750225333 317.47964754264353 85.82945192637874
73.84730191587138 0.3408394673028474 0.07797595834102718 0.02021376975022536 317.5642769200718 86.55565299226706
75.13375306100984 0.36684349454559 0.07932013430936627 0.02021376975022543 317.65036516735915 87.29437255798216
76.44238048651009 0.39329578801348236 0.08068748163811194 0.020213769750225374 317.737937432998 88.04582642166103
77.7735664746028 0.4202040750715146 0.08207839976302166 0.020213769750225347 317.8270192989993 88.81023410144435
79.12769989742563 0.4475762162915398 0.083493295005458 0.020213769750225458 317.917636788365 89.58781889959874
80.50517633062739 0.4754202077486422 0.08493258069109047 0.020213769750225485 318.0098163726905 90.37880796775187
81.90639816892423 0.503744183356962 0.08639667727063668 0.020213769750225347 318.10358497989773 91.18343237324824
83.33177474364764 0.532556417245786 0.08788601244268512 0.02021376975022543 318.19897000210096 92.00192716664891
84.78172244232269 0.5618653261766728 0.08940102127863886 0.020213769750225374 318.2959993036092 92.83453145039694
86.25666483030022 0.5916794720020981 0.09094214634980562 0.020213769750225347 318.3947012290657 93.68148844866234
87.75703277449892 0.6220075641667497 0.09250983785669231 0.020213769750225458 318.4951046117284 94.54304557839852
89.28326456926261 0.6528584622515763 0.09410455376050969 0.02021376975022543 318.59723878189254 95.41945452161343
90.83580606440474 0.6842411785620499 0.09572675991696245 0.02021376975022543 318.70113357545915 96.31097129889659
92.41511079544615 0.7161648807607628 0.0973769302123308 0.020213769750225374 318.8068193426504 97.2178563442056
94.02164011610984 0.7486388945456444 0.09905554670191061 0.02021376975022543 318.91432695687604 98.14037458094867
95.65586333308609 0.7816727063740752 0.10076309975082555 0.020444556497375727 319.0236878237519 99.07879549937097
97.31856058230089 0.816056228640476 0.10250008817728369 0.021143731107176267 319.136503905505 100.02667143609851
99.01053274820332 0.8526303623886233 0.1042670193982881 0.022148268755866285 319.2544693873357 100.97780883967164
100.73237291959056 0.8916983215161539 0.10606440957786765 0.023195089629546056 319.3781816436563 101.9313776177457
102.48456121337036 0.9332417123652468 0.10789278377786245 0.024244320499804878 319.50759112600883 102.88901751524612
104.26766188785147 0.9774423613247285 0.10975267611130493 0.02539232353100246 319.6430427030471 103.85086963079654
106.0823015496166 1.024635114570075 0.11164462989845117 0.0266453782969599 319.7851697777435 104.81634529696913
107.92911531809489 1.0750446365254234 0.1135691978254936 0.0277788021311412 319.93426001233786 105.78130231160223
109.80862154361081 1.1281797072734265 0.11552694210601785 0.028805566002740368 320.08885730677713 106.73142013136399
111.72142834164526 1.1843202938141164 0.11751843464523617 0.030035486381081777 320.2495430963934 107.66848974809766
113.66824067302245 1.244152290647585 0.11954425720705734 0.03149886058910212 320.41779579084044 108.59828702087346
115.649728277489 1.308110829652819 0.12160500158403348 0.03303693823528736 320.59446422959945 109.52347147300993
117.66646551504283 1.3762953753549434 0.12370126977023689 0.03461896788101404 320.77974103903364 110.44735584325198
119.71913045672895 1.4490480276626132 0.12583367413711757 0.03639043642437162 320.9742228915551 111.37103506013682
121.80854173019522 1.527097587638331 0.12800283761239173 0.03835015349666976 321.1791589162221 112.29408493257715
123.93540793793245 1.6108181456369755 0.13020939386201427 0.040347490823449406 321.39514403207943 113.21772642968058
126.1003693218534 1.7003377163185989 0.132453987475289 0.042389080157613834 321.62233271179537 114.14379265478505
128.30417889688687 1.7960878424162197 0.13473727415316758 0.044673420986997336 321.86139240806733 115.07295874694331
130.54779963756877 1.8991181314688441 0.13705992089979765 0.04716514115173803 322.1139942602442 116.0046080350665
132.8319671322914 2.009743381295322 0.13942260621736857 0.049672658909580725 322.3805450220754 116.94008424851009
135.1574024636915 2.1281927405145087 0.14182602030432165 0.05224343917342855 322.6613065090283 117.8807289512251
137.52494682472812 2.255031851323708 0.14427086525697272 0.05513300302891433 322.95707975673804 118.82716586201033
139.935753044268 2.391773670038781 0.14675785527460983 0.05825265786895062 323.27011898016644 119.7788561326899
142.39056385809766 2.538603061939731 0.14928771686813144 0.06136054593521689 323.60054472728007 120.73731040174971
144.89020389083603 2.695921503901235 0.15186118907227733 0.0645629264836653 323.9488193432197 121.70358531144568
147.4356198341191 2.864476911409646 0.15447902366151736 0.06818399118328244 324.3159224602353 122.6783173853767
150.02821745391236 3.046438897988094 0.15714198536966417 0.07205860445109935 324.70488269810244 123.66113934427685
152.66871368618274 3.241747475983989 0.15985085211327105 0.07588348331446859 325.1153874103239 124.65362848304947
155.3580694739042 3.451075682146731 0.16260641521888092 0.079848016925257 325.54820809698214 125.65664148580903
158.0973594404955 3.675416894712453 0.1654094796541903 0.0843604300993841 326.00455456173626 126.67082374490862
160.88832956066545 3.917867764128449 0.16826086426320164 0.08914899268527554 326.4884777238241 127.69600478945968
163.73161864001148 4.177946157750183 0.17116140200542876 0.09383488480835533 326.9990268086456 128.73368726158944
166.6283708286139 4.456739016795908 0.1741119401992218 0.0987316721020911 327.5374210486425 129.7845631879333
169.57983551036094 4.755625254692338 0.17711334076929286 0.10432326153323168 328.1052348622671 130.8492304849147
172.58816664135566 5.078835289880503 0.18016648049850287 0.11020902657679843 328.70764140232393 131.92770257293938
175.65389710977664 5.425362779105658 0.1832722512839938 0.11593631122301118 329.3429835291755 133.02122987706292
178.77840329454557 5.7968531003437125 0.18643156039773146 0.12199997887308356 330.01303026403775 134.13034575303038
181.96324224004124 6.195480948728327 0.18964533075154366 0.12886025354073372 330.72014502906404 135.2554967325695
185.21085761873275 6.6262094178351605 0.19291450116672404 0.1360186841275266 331.4699414455561 136.39679811771842
188.5218388731202 7.088006384701722 0.1962400266482864 0.14302068964483639 332.260725944784 137.5550869814201
191.8977936292147 7.5830449751780815 0.19962287866394346 0.15048258668050107 333.09466800582453 138.73070634994983
195.34070794579162 8.114647597441977 0.20306404542789766 0.15883989137514432 333.9751744681341 139.9238447269764
198.85332551310398 8.68848543817391 0.20656453218952264 0.1674744741274199 334.90813739982997 141.1344201213246
202.4363268377891 9.303566953640837 0.2101253615270203 0.17595358634665037 335.89187088823957 142.36290250555425
206.0916087009205 9.962713312097382 0.21374757364614286 0.18503427083634727 336.92896586588216 143.60932826674164
209.82175454001012 10.670836196663753 0.21743222668406056 0.19508610320783903 338.0241280211374 144.87344273723065
213.62979230748903 11.434134305905163 0.22118039701847075 0.20534885932995595 339.18318720685465 146.15472836650088
217.51654549413152 12.251732907661566 0.22499317958203396 0.21544598386354719 340.4044907023497 147.45334729128197
221.4842694859355 13.127182872331222 0.2288716881822305 0.22628681563853426 341.6909877724504 148.7689301888711
225.5363720000462 14.067476494715235 0.23281705582673107 0.23811978493421582 343.04886105568795 150.1005378117511
229.67610097351556 15.078895132251393 0.23683043505437637 0.25002645426421255 344.48329259811624 151.44715027308908
233.90449652387548 16.160751776542153 0.24091299827186163 0.26173297081614755 345.99265407961093 152.80870939316515
238.22424978016144 17.317313090628982 0.24506593809622593 0.2742959177826534 347.5800607362814 154.1844130903239
242.63988630121915 18.55810511401694 0.24929046770324392 0.28778133108239246 349.2531636385562 155.57240897573485
247.15472925436765 19.888699062567856 0.2535878211818257 0.30111430688047136 351.0156813440657 156.9713890814588
251.7701348078516 21.308654870052194 0.2579592538945236 0.3141797333519909 352.86597295294854 158.3812011963101
256.48930674127445 22.822803300036885 0.2624060428442545 0.32815226865122593 354.8069993943876 159.80070826690738
261.3182500076981 24.443512239530342 0.26692948704734376 0.34286675173533254 356.8476030465223 161.22703081140023
266.26010146580705 26.174538616670976 0.2715309079130001 0.3571232908990072 358.9891740542533 162.65908998356983
271.31666349170916 28.015767035023735 0.2762116496293319 0.37102033505309606 361.2300433342424 164.09678602271964
276.4917198448972 29.972329990287854 0.2809730795560164 0.3857971520244039 363.57266143843907 165.53887094812643
281.7931790729731 32.05955278126517 0.28581658862374076 0.4010429765370147 366.0265462172358 166.9815104704905
287.22358495653197 34.278183967699945 0.2907435917405257 0.4154958750204605 368.59018181588107 168.4245285037896
292.78535534778484 36.628601733351054 0.29575552820505524 0.4297090149000802 371.2619493171839 169.86798462211658
295.11253510203005 37.63485692427584 0.2978394061700067 0.04096693259600437 374.0435549823692 161.12801777249376
383.6835276051969 42.2734166247893 0.6243950831904264 0.06377525374333493 376.94459794145695 145.36811989567116
434.714800290604 45.863257526579176 0.8135224451391109 0.07901361868737866 379.9606671788878 129.33048161799564
482.21414544728816 49.99956860623086 0.9910230384916471 0.09634028600581401 383.09038866636536 113.03495256454924
526.5968593290878 54.65938190759956 1.1582300165543469 0.11155385322908196 386.3347227899467 96.52603501441234
570.5985750047629 59.854213357942136 1.327095800721485 0.12163775817990807 389.7028640665028 79.69135382562801
616.6014005313152 65.62197813163864 1.5093144324790422 0.12039241565730835 393.1881327574918 62.388878335495555
672.965495293366 72.06345416598802 1.7486520347571355 0.1132994760521695 396.7896384541251 44.28848482814155
738.3660687426673 79.39864486580483 2.0415159006155292 0.38918853348079585 400.50779877029254 24.29552611132589
755.5357556629151 87.32962718924855 2.084464890429605 0.46261989688704075 404.35111361099285 4.698698917594561
773.5426392219406 95.67323068933307 2.128791291893404 0.46239878322335404 408.31161020405585 0.0
792.5583523716101 104.4468447339236 2.1751383363012273 0.4603624407761542 412.3890532448661 0.0
812.6518277194035 113.67535980964473 2.223615302152684 0.4582597956956982 416.5839348821544 0.0
833.9061742711938 123.39245401148166 2.2743685685680393 0.4561751062440962 420.9029358921993 0.0
856.3339558731358 133.59963216854183 2.3273767217836383 0.454109223621574 425.3387759803205 0.0
879.99266763742 144.31821640287134 2.3827168019100617 0.4519895697937395 429.89158412624585 0.0
904.9898191935844 155.5886553931434 2.4405404726346047 0.44987956185026867 434.56234892977125 0.0
931.3674781768951 167.42788656650265 2.5009187865737017 0.4477834448378615 439.355388483256 0.0
959.2173100405354 179.8676438320013 2.56394694679369 0.44567867503223235 444.26540759641796 0.0
988.5710323213474 192.91922050883284 2.6296596914987656 0.44359136582716285 449.29265536387015 0.0
1019.5602693537749 206.63176395480988 2.698236070359354 0.44148379211309363 454.438548388393 0.0
1052.263952507308 221.03505364148953 2.769785308298044 0.4394154527304308 459.70576553505447 0.0
1086.7470915044269 236.15102689730412 2.8443650107828478 0.4373565937573196 465.09080125928034 0.0
1123.112318243613 252.01717971173883 2.9221020739752035 0.4353016083450405 470.5941250666191 0.0
1161.4754552310576 268.6763043383413 3.0031451393878252 0.43325514716957514 476.21747958266144 0.0
1201.9572332740274 286.1728207768467 3.0876461389459617 0.43122160003496424 481.9625119934439 0.0
1244.6569201534187 304.54145697283093 3.175706135769608 0.42920610006818594 487.82722036852493 0.0
1289.6970741169825 323.82660242459355 3.267468810021964 0.42721216561450026 493.81233560314513 0.0
1337.2149868913878 344.0784777605619 3.363100887923693 0.42524260059925245 499.91981936193486 0.0
1387.347127821202 365.34645108505845 3.4627600836565366 0.42330012929034755 506.1507575403436 0.0
1440.2197202232046 387.6751122348405 3.5665771976155805 0.4213718786804379 512.5043553326884 0.0
1496.0112623302641 411.12882959617764 3.6747551615655527 0.419456456889459 518.9816123002372 0.0
1554.8919766846168 435.76925885662723 3.787489098466187 0.4175782988686043 525.5846144661255 0.0
1617.00989624245 461.6492316899719 3.904936296923503 0.4157175934564039 532.3142356068302 0.0
1682.587996530901 488.8482756103866 4.027335648198324 0.413876985575341 539.1706223504631 0.0
1751.7834663494978 517.4223606657339 4.154849841402576 0.41207753246181245 546.1550349292145 0.0
1824.8163728791355 547.4505332267563 4.287718283591678 0.4102881469826034 553.2696081258325 0.0
1901.9499894880905 579.0265583109367 4.4262165218761975 0.40852292654795885 560.5152580576214 0.0
1983.3712704435268 612.2163968607697 4.570526548655615 0.4067970017832523 567.8928524860116 0.0
2069.337462568072 647.1114879759143 4.720910736967755 0.40509446986487996 575.4038998047281 0.0
2160.12574147449 683.8105059948699 4.877652404480548 0.4034173408077293 583.0505273516877 0.0
2256.014855826225 722.4119000635566 5.041023384521922 0.40176761018883766 590.8338785315234 0.0
2357.2996295036573 763.0197647749596 5.211308990265606 0.40014696751831824 598.7553676549504 0.0
2464.29274994205 805.7445040052891 5.388810105965152 0.3985568039304619 606.8167396252557 0.0
2577.326017568564 850.7032703055982 5.573844242949697 0.3969868044779239 615.0200749129865 0.0
2696.8085465614517 898.0401075067447 5.766797916885106 0.39544420396375246 623.3668798524265 0.0
2823.0608533705927 947.8674132551305 5.967959960660652 0.39393880877422216 631.8589807340489 0.0
2956.494480395095 1000.3297554068522 6.177707764893875 0.3924557238231099 640.4983504204833 0.0
3097.5676600032098 1055.5879262036997 6.396457461222924 0.39099912570581496 649.2869964644982 0.0
3246.711316073291 1113.792670844923 6.62458811027934 0.3895759777991241 658.2268894947701 0.0
3404.387029429882 1175.1053828497184 6.862502725987449 0.38817669877570626 667.3201659195176 0.0
3571.167592412346 1239.7263617866815 7.110703342523536 0.3868011125691191 676.5690217582426 0.0
3747.5633031971215 1307.8332899201623 7.36961767969223 0.385457292625786 685.975375769143 0.0
3934.1476043724074 1379.626115000587 7.639729778332037 0.3842687244520655 695.5417407332205 0.0
4129.939255498675 1454.7588715407867 7.92007256271028 0.383697489544347 705.2704871049425 0.0
4329.549619286896 1531.3405607110926 8.205630869648656 0.3836558769641658 715.1639945116509 0.0
4532.523262852202 1609.212591933752 8.496000612529926 0.3836558769641658 725.2241998430259 0.0
4738.920746470737 1688.3981995146185 8.791268427586772 0.38365587696416625 735.4541047144605 0.0
4948.794261486012 1768.917406969356 9.091508978636279 0.38365587696416714 745.8562959427603 0.0
5162.194518228953 1850.789669614447 9.396794810790675 0.38365587696416625 756.4332869396794 0.0
5379.16405339493 1934.031306903058 9.707186776134408 0.38365587696416714 767.1871859981078 0.0
5599.771176774229 2018.6685262876847 10.022782597188943 0.38365587696416625 778.121378831108 0.0
5824.0726723420175 2104.7231132741185 10.343663507891755 0.38365587696416714 789.238679885126 0.0
6052.121324657961 2192.215318968888 10.669905020702233 0.38365587696416803 800.54170537919 0.0
6283.9653397587845 2281.1636379012884 11.00157609814302 0.38365587696416625 812.0328446019741 0.0
6519.679487992238 2371.5967561546554 11.338783705070584 0.38365587696416625 823.7158034782369 0.0
6759.325290224091 2463.538276570698 11.681615851916536 0.38365587696416537 835.5936312341289 0.0
7002.957168679432 2557.0090785559087 12.030150393949313 0.38365587696416803 847.6690252580861 0.0
7250.6308611869445 2652.0305462558326 12.384467068511654 0.38365587696416625 859.9447481452487 0.0
7502.426632954526 2748.633473889193 12.74468070128915 0.38365587696416537 872.424778168156 0.0
7758.410933448302 2846.843355184191 13.110886353463412 0.38365587696416625 885.1124088345838 0.0
8018.63953289919 2946.6815867176783 13.48316380873112 0.38365587696416803 898.0104043456598 0.0
8283.1773070499 3048.173058449617 13.86160587693891 0.38365587696416803 911.1219802089801 0.0
8552.109303984718 3151.35039957737 14.246334226052792 0.3836558769641689 924.4513517560326 0.0
8825.507136267666 3256.2410846819866 14.637451303471533 0.38365587696416714 938.0020683988776 0.0
9103.427748424501 3362.8669608654354 15.035038572812837 0.38365587696416537 951.7769525415057 0.0
9385.946573680603 3471.2569685279504 15.4392039472317 0.38365587696416714 965.7797429636067 0.0
9673.15293195074 3581.4453757797655 15.850075205883236 0.38365587696416714 980.0148667260887 0.0
9965.123872865615 3693.461743164514 16.267762574317242 0.38365587696416537 994.4861427243112 0.0
10261.917434573119 3807.3283373587246 16.692349080663792 0.38365587696416714 1009.1964475666584 0.0
10563.620893843878 3923.0786426083705 17.123959581199806 0.38365587696416625 1024.1501070474442 0.0
10870.327492419867 4040.7484316557384 17.56272746556231 0.38365587696416625 1039.3517426093997 0.0
11182.120028274476 4160.36947042992 18.008771182756917 0.38365587696416537 1054.8054580592986 0.0
11499.057628707678 4281.964443467038 18.462175319031317 0.38365587696416537 1070.5141839883645 0.0
11821.240607257201 4405.571836645383 18.92308338078194 0.38365587696416625 1086.4828923464984 0.0
12148.765908453463 4531.2288433037875 19.391634054775576 0.38365587696416803 1102.7163881017966 0.0
12481.722425985035 4658.969568028298 19.86795451041729 0.38365587696416714 1119.2190771896508 0.0
12820.170435779193 4788.817136032652 20.35213097715637 0.38365587696416714 1135.993947131959 0.0
13164.224420013577 4920.815469077111 20.844327230741733 0.38365587696416803 1153.0466721344635 0.0
13513.984915320334 5055.003138631446 21.3446870967239 0.38365587696416537 1170.382235204539 0.0
13869.547294141488 5191.416734893541 21.853347012873716 0.38365587696416537 1188.0053633911405 0.0
14230.973095652738 5330.079867729816 22.370395015816577 0.38365587696416714 1205.9191068279333 0.0
14598.392065877471 5471.042314964657 22.896016717431895 0.38365587696416625 1224.1298962593892 0.0
14971.908314289596 5614.3440188095765 23.430361054501002 0.38365587696416803 1242.6428917775577 0.0
