e[MeV/fm^3], P[MeV/fm^3], rho[fm^-3], v2[1], mu_q[MeV], mu_e[MeV]
57.966178572082526 0.019822096656569643 0.06138222726183227 0.020213769750225503 316.50152527280727 77.43622658892006
58.97886553652739 0.04029231778491282 0.06244035487608422 0.02021376975022545 316.5692934474086 78.01774239494746
60.00900954170713 0.061115411515191176 0.06351672285237621 0.0202137697502254 316.6382298327464 78.60928256730938
61.056911517999424 0.08229746078476974 0.06461164562424372 0.02021376975022536 316.7083545668328 79.21101990942611
62.122877583322726 0.10384465339076865 0.0657254430455351 0.02021376975022541 316.77968813482585 79.82313020356239
63.2072191325579 0.12576328379761126 0.06685844048384562 0.020213769750225444 316.8522513750136 80.44579226217607
64.31025292851837 0.1480597549758732 0.06801096891556957 0.02021376975022536 316.92606548490176 81.07918798015595
65.43230119448147 0.1707405802726909 0.06918336502258365 0.020213769750225388 317.0011520274056 81.72350238795603
66.57369170831848 0.19381238531448375 0.07037597129060076 0.02021376975022543 317.07753293714944 82.37892370564802
67.73475789824626 0.21728190994245533 0.07158913610921809 0.020213769750225485 317.1552305268739 83.04564339790468
68.91583894023093 0.2411560101814899 0.07282321387369146 0.020213769750225374 317.23426749395423 83.72385622993208
70.11727985706676 0.26544166024290894 0.07407856508846006 0.020213769750225416 317.3146669270307 84.41376032436374
71.33943161917078 0.2901459545619121 0.07535555647246375 0.020213769750225527 317.3964523127535 85.11555721913992
72.58265124710447 0.3152761098699245 0.07665456106626516 0.020213769750225333 317.47964754264353 85.82945192637874
73.84730191587138 0.3408394673028474 0.07797595834102718 0.02021376975022536 317.5642769200718 86.55565299226706
75.13375306100984 0.36684349454559 0.07932013430936627 0.02021376975022543 317.65036516735915 87.29437255798216
76.44238048651009 0.39329578801348236 0.08068748163811194 0.020213769750225374 317.737937432998 88.04582642166103
77.7735664746028 0.4202040750715146 0.08207839976302166 0.020213769750225347 317.8270192989993 88.81023410144435
79.12769989742563 0.4475762162915398 0.083493295005458 0.020213769750225458 317.917636788365 89.58781889959874
80.50517633062739 0.4754202077486422 0.08493258069109047 0.020213769750225485 318.0098163726905 90.37880796775187
81.90639816892423 0.503744183356962 0.08639667727063668 0.020213769750225347 318.10358497989773 91.18343237324824
83.33177474364764 0.532556417245786 0.08788601244268512 0.02021376975022543 318.19897000210096 92.00192716664891
84.78172244232269 0.5618653261766728 0.08940102127863886 0.020213769750225374 318.2959993036092 92.83453145039694
86.25666483030022 0.5916794720020981 0.09094214634980562 0.020213769750225347 318.3947012290657 93.68148844866234
87.75703277449892 0.6220075641667497 0.09250983785669231 0.020213769750225458 318.4951046117284 94.54304557839852
89.28326456926261 0.6528584622515763 0.09410455376050969 0.02021376975022543 318.59723878189254 95.41945452161343
90.83580606440474 0.6842411785620499 0.09572675991696245 0.02021376975022543 318.70113357545915 96.31097129889659
92.41511079544615 0.7161648807607628 0.0973769302123308 0.020213769750225374 318.8068193426504 97.2178563442056
94.02164011610984 0.7486388945456444 0.09905554670191061 0.02021376975022543 318.91432695687604 98.14037458094867
95.65586333308609 0.7816727063740752 0.10076309975082555 0.020444556497375727 319.0236878237519 99.07879549937097
97.31856058230089 0.816056228640476 0.10250008817728369 0.021143731107176267 319.136503905505 100.02667143609851
99.01053274820332 0.8526303623886233 0.1042670193982881 0.022148268755866285 319.2544693873357 100.97780883967164
100.73237291959056 0.8916983215161539 0.10606440957786765 0.023195089629546056 319.3781816436563 101.9313776177457
102.48456121337036 0.9332417123652468 0.10789278377786245 0.024244320499804878 319.50759112600883 102.88901751524612
104.26766188785147 0.9774423613247285 0.10975267611130493 0.02539232353100246 319.6430427030471 103.85086963079654
106.0823015496166 1.024635114570075 0.11164462989845117 0.0266453782969599 319.7851697777435 104.81634529696913
107.92911531809489 1.0750446365254234 0.1135691978254936 0.0277788021311412 319.93426001233786 105.78130231160223
109.80862154361081 1.1281797072734265 0.11552694210601785 0.028805566002740368 320.08885730677713 106.73142013136399
111.72142834164526 1.1843202938141164 0.11751843464523617 0.030035486381081777 320.2495430963934 107.66848974809766
113.66824067302245 1.244152290647585 0.11954425720705734 0.03149886058910212 320.41779579084044 108.59828702087346
115.649728277489 1.308110829652819 0.12160500158403348 0.03303693823528736 320.59446422959945 109.52347147300993
117.66646551504283 1.3762953753549434 0.12370126977023689 0.03461896788101404 320.77974103903364 110.44735584325198
119.71913045672895 1.4490480276626132 0.12583367413711757 0.03639043642437162 320.9742228915551 111.37103506013682
121.80854173019522 1.527097587638331 0.12800283761239173 0.03835015349666976 321.1791589162221 112.29408493257715
123.93540793793245 1.6108181456369755 0.13020939386201427 0.040347490823449406 321.39514403207943 113.21772642968058
126.1003693218534 1.7003377163185989 0.132453987475289 0.042389080157613834 321.62233271179537 114.14379265478505
128.30417889688687 1.7960878424162197 0.13473727415316758 0.044673420986997336 321.86139240806733 115.07295874694331
130.54779963756877 1.8991181314688441 0.13705992089979765 0.04716514115173803 322.1139942602442 116.0046080350665
132.8319671322914 2.009743381295322 0.13942260621736857 0.049672658909580725 322.3805450220754 116.94008424851009
135.1574024636915 2.1281927405145087 0.14182602030432165 0.05224343917342855 322.6613065090283 117.8807289512251
137.52494682472812 2.255031851323708 0.14427086525697272 0.05513300302891433 322.95707975673804 118.82716586201033
139.935753044268 2.391773670038781 0.14675785527460983 0.05825265786895062 323.27011898016644 119.7788561326899
142.39056385809766 2.538603061939731 0.14928771686813144 0.06136054593521689 323.60054472728007 120.73731040174971
144.89020389083603 2.695921503901235 0.15186118907227733 0.0645629264836653 323.9488193432197 121.70358531144568
147.4356198341191 2.864476911409646 0.15447902366151736 0.06818399118328244 324.3159224602353 122.6783173853767
150.02821745391236 3.046438897988094 0.15714198536966417 0.07205860445109935 324.70488269810244 123.66113934427685
152.66871368618274 3.241747475983989 0.15985085211327105 0.07588348331446859 325.1153874103239 124.65362848304947
155.3580694739042 3.451075682146731 0.16260641521888092 0.079848016925257 325.54820809698214 125.65664148580903
158.0973594404955 3.675416894712453 0.1654094796541903 0.0843604300993841 326.00455456173626 126.67082374490862
160.88832956066545 3.917867764128449 0.16826086426320164 0.08914899268527554 326.4884777238241 127.69600478945968
163.73161864001148 4.177946157750183 0.17116140200542876 0.09383488480835533 326.9990268086456 128.73368726158944
166.6283708286139 4.456739016795908 0.1741119401992218 0.0987316721020911 327.5374210486425 129.7845631879333
169.57983551036094 4.755625254692338 0.17711334076929286 0.10432326153323168 328.1052348622671 130.8492304849147
172.58816664135566 5.078835289880503 0.18016648049850287 0.11020902657679843 328.70764140232393 131.92770257293938
175.65389710977664 5.425362779105658 0.1832722512839938 0.11593631122301118 329.3429835291755 133.02122987706292
178.77840329454557 5.7968531003437125 0.18643156039773146 0.12199997887308356 330.01303026403775 134.13034575303038
181.96324224004124 6.195480948728327 0.18964533075154366 0.12886025354073372 330.72014502906404 135.2554967325695
185.21085761873275 6.6262094178351605 0.19291450116672404 0.1360186841275266 331.4699414455561 136.39679811771842
188.5218388731202 7.088006384701722 0.1962400266482864 0.14302068964483639 332.260725944784 137.5550869814201
191.8977936292147 7.5830449751780815 0.19962287866394346 0.15048258668050107 333.09466800582453 138.73070634994983
195.34070794579162 8.114647597441977 0.20306404542789766 0.15883989137514432 333.9751744681341 139.9238447269764
198.85332551310398 8.68848543817391 0.20656453218952264 0.1678895801573912 334.90813739982997 148.3084943057175
204.23673885842697 9.623562607083976 0.21188153048825584 0.046311667359923814 335.89187088823957 144.61284905075425
211.34090773152275 9.976252214699324 0.23858182674908068 0.052979217728976236 336.92896586588216 140.71673777851584
224.0075252870604 10.722610926617095 0.2857836184511177 0.061043809553256556 338.0241280211374 136.83473361926502
236.87019615768975 11.535495142027504 0.333873488622521 0.07125969364185836 339.18318720685465 132.82440609544497
248.63796865929027 12.460864886058634 0.37871130522098145 0.0823533481568422 340.4044907023497 128.8874940308105
260.3160743256127 13.465677591398277 0.42350104751105866 0.09103397632179833 341.6909877724504 124.8600599708484
271.75926320858645 14.563366663179817 0.46776902862568204 0.10464444809680962 343.04886105568795 120.75655611656585
282.5699405874745 15.783695813373923 0.5100207320897976 0.1187209476247979 344.48329259811624 116.64486235180472
293.21263719087347 17.108385077303915 0.5517870073044054 0.1309477243451873 345.99265407961093 112.45263724455194
303.67471896755535 18.544998182576524 0.5929174783163154 0.14431496313276415 347.5800607362814 108.1818487035973
313.9923913920745 20.105207109975215 0.6334286163785291 0.15819381831879442 349.2531636385562 103.8315408191492
324.23462778825143 21.79639992548261 0.6735573227917522 0.17109824564053466 351.0156813440657 99.4126956151247
334.55600058136014 23.62455449687994 0.7141776728607696 0.18269753386789978 352.86597295294854 94.88190630092429
345.03506073391947 25.59835916137873 0.7555639669087713 0.1934242269782125 354.8069993943876 90.22202532869184
355.7835246935875 27.733237277999 0.7981317590968395 0.20312641655671992 356.8476030465223 85.40032680319455
366.87428117478436 30.037614719754107 0.842152973640825 0.21169098177281898 358.9891740542533 80.40050264764623
378.36585812845505 32.51690988061714 0.8878514559488733 0.21908034729195625 361.2300433342424 75.21193870965043
390.3385387923022 35.18144506580856 0.9355462418701176 0.22532431775771866 363.57266143843907 69.81341799174601
402.9091901353017 38.0505186516799 0.9857111071387596 0.23077366907110086 366.0265462172358 64.16671711920132
416.164213001462 41.14489880437563 1.0387251851462735 0.23523771059758758 368.59018181588107 58.254197688312175
430.17081214175874 44.4662441607908 1.0948790385344178 0.2384398122979321 371.2619493171839 52.059067206941435
445.0202512867462 48.02760640808454 1.154578567771987 0.24085157639358257 374.0435549823692 45.55624076491668
460.91031290116484 51.872098941667005 1.218709128787568 0.24245822067626333 376.94459794145695 38.68817923720997
477.87953970449314 55.99576031660462 1.2874794639246785 0.24323017254268264 379.9606671788878 31.44787465928375
496.0933944187543 60.43025872245564 1.3617002312981343 0.24333367903637781 383.09038866636536 23.797215327840902
515.6906165519226 65.19608180835695 1.4420926694508203 0.24171368756863632 386.3347227899467 15.702321717475066
537.0662122006945 70.32846529286418 1.531417147074027 0.2495841163473136 389.7028640665028 7.1060933450316615
558.3928402867476 75.85295129226854 1.6130846404295562 0.29490029164443854 393.1881327574918 0.0
576.5114390222243 81.74810740642324 1.6589497428172604 0.32543367984087834 396.7896384541251 0.0
595.7412138294036 88.00752746430867 1.7071847370589877 0.32557598800081666 400.50779877029254 0.0
616.1906372149919 94.66687599798951 1.757999804863185 0.3257194311257887 404.35111361099285 0.0
637.8847123587269 101.73466270253999 1.811392367379164 0.32586310359415993 408.31161020405585 0.0
660.8897412194966 109.23285300969758 1.8674603915307686 0.3260082716826944 412.3890532448661 0.0
685.2983870415691 117.19211899289785 1.926345744085188 0.3261542632793861 416.5839348821544 0.0
711.2222048714018 125.64922051040084 1.988246840837419 0.32629803257504175 420.9029358921993 0.0
738.6865232054645 134.6127817519839 2.053156356843063 0.32643954361227223 425.3387759803205 0.0
767.7731818700458 144.109924092376 2.1211903814956536 0.3265837288281004 429.89158412624585 0.0
798.6338378089662 154.19086163742006 2.19257491646067 0.3267263519339343 434.56234892977125 0.0
831.3252329270598 164.87430457267743 2.2674025810199776 0.3268670151124877 439.355388483256 0.0
865.9831753481719 176.20542308431683 2.3458356091996886 0.32700737461457097 444.26540759641796 0.0
902.6539374119192 188.19958998887205 2.4279256992524854 0.32714558968496465 449.29265536387015 0.0
941.5240902492134 200.91861049207174 2.5139388097058113 0.3272842576134565 454.438548388393 0.0
982.7048057988826 214.39929346885853 2.60403094264026 0.32741943594586154 459.70576553505447 0.0
1026.2937629357666 228.67417196869778 2.6983013107891836 0.32755311528239206 465.09080125928034 0.0
1072.438403233519 243.7921532539425 2.7969402523194864 0.3276856817344047 470.5941250666191 0.0
1121.303993086473 259.80802296664973 2.900166616037962 0.3278168515039219 476.21747958266144 0.0
1173.0632438583107 276.7790489854868 3.0082045578851924 0.3279463645231 481.9625119934439 0.0
1227.8624097776421 294.7538591332679 3.1212138537826575 0.3280739199743259 487.82722036852493 0.0
1285.8784833873367 313.7911937668656 3.2394093352997704 0.32819932565126697 493.81233560314513 0.0
1347.308566481679 333.95643145068385 3.3630364576470146 0.32832243867931155 499.91981936193486 0.0
1412.349887040216 355.3150336172634 3.4923300606727747 0.3284431245602004 506.1507575403436 0.0
1481.1874027341062 377.9284679499036 3.6274907502001907 0.32856220618195664 512.5043553326884 0.0
1554.0795629796196 401.8825302833351 3.768822063969729 0.328679803124885 518.9816123002372 0.0
1631.2721995555057 427.2588097269328 3.916611988069094 0.3287944453502192 525.5846144661255 0.0
1712.980965686243 454.12893836198276 4.071095453479389 0.3289073615248044 532.3142356068302 0.0
1799.5307962353816 482.60084813889557 4.23263333392724 0.3290184412126256 539.1706223504631 0.0
1891.1509942382122 512.7507158349955 4.4014674009204215 0.32912642957354743 546.1550349292145 0.0
1988.1609510853264 544.6845941370414 4.577952463993897 0.3292332241976834 553.2696081258325 0.0
2090.944656504459 578.5300430858537 4.762502199893894 0.3293380202542706 560.5152580576214 0.0
2199.776276130063 614.3781881912893 4.955388934219926 0.3294399378395485 567.8928524860116 0.0
2315.031444322661 652.3538291250688 5.157004377857742 0.32953995491714405 575.4038998047281 0.0
2437.1145392131466 692.5913047939371 5.367769794001795 0.32963797944830686 583.0505273516877 0.0
2566.4340957744703 735.2263929262143 5.588092463687361 0.32973392179222794 590.8338785315234 0.0
2703.4222869496407 780.4027302340256 5.818399126957112 0.3298277114297137 598.7553676549504 0.0
2848.5374682541296 828.2726557603603 6.059138940655627 0.32991929604601067 606.8167396252557 0.0
3002.266013378571 878.9978210731792 6.310785058680945 0.33000929022646064 615.0200749129865 0.0
3165.20858564983 932.7778915428065 6.57391699808147 0.33009731046037905 623.3668798524265 0.0
3337.8368529666222 989.7696893444268 6.848965408018895 0.33018281598092303 631.8589807340489 0.0
3520.755836342168 1050.1743544369913 7.136494396820315 0.33026668065294196 640.4983504204833 0.0
3714.6396165922615 1114.2159986776933 7.43712655913667 0.33034869163113045 649.2869964644982 0.0
3920.123210252068 1182.1057815844285 7.751428539487443 0.33042847860923485 658.2268894947701 0.0
4137.886991304998 1254.0699508791156 8.080002646921526 0.3305065989891154 667.3201659195176 0.0
4368.775206401966 1330.389244833494 8.423600777837327 0.33058308590833496 676.5690217582426 0.0
4613.541810438881 1411.3144345255375 8.78286336676635 0.33065750785191295 685.975375769143 0.0
4873.033390490254 1497.1270807288595 9.158514001566367 0.3307231139538418 695.5417407332205 0.0
5145.8104994076275 1587.348750736004 9.549081588409733 0.3307545947224457 705.2704871049425 0.0
5423.946818698266 1679.3442526909892 9.946971261729981 0.3307568827746463 715.1639945116509 0.0
5706.7695191977255 1772.8898074860983 10.351565067372782 0.3307568827746472 725.2241998430259 0.0
5994.362985363719 1868.0133258615183 10.76298372205862 0.33075688277464765 735.4541047144605 0.0
6286.799940415158 1964.7388615224418 11.181331260448948 0.3307568827746472 745.8562959427603 0.0
6584.151043933667 2063.0897856118254 11.606708765055831 0.3307568827746472 756.4332869396794 0.0
6886.475566388283 2163.0857022452483 12.039201025624177 0.3307568827746472 767.1871859981078 0.0
7193.868690380148 2264.758093723158 12.478944206226949 0.3307568827746472 778.121378831108 0.0
7506.4095384836055 2368.1331303816023 12.926051496164051 0.33075688277464765 789.238679885126 0.0
7824.171660502693 2473.2351393244926 13.380628112573525 0.3307568827746463 800.54170537919 0.0
8147.222226545055 2580.0863375272493 13.842770146078328 0.3307568827746472 812.0328446019741 0.0
8475.665421327958 2688.721184802189 14.312626638785666 0.33075688277464765 823.7158034782369 0.0
8809.586967791034 2799.1680346016055 14.790320222189814 0.33075688277464677 835.5936312341289 0.0
9149.062697655074 2911.4519687890834 15.275959377839278 0.3307568827746463 847.6690252580861 0.0
9494.1702757979 3025.5986755575123 15.769655209716971 0.3307568827746463 859.9447481452487 0.0
9845.02154345394 3141.645147164958 16.271567713009222 0.3307568827746472 872.424778168156 0.0
10201.70909105576 3259.6220085342693 16.78182934354582 0.33075688277464543 885.1124088345838 0.0
10564.31062863033 3379.554962791728 17.300551269898072 0.3307568827746472 898.0104043456598 0.0
10932.916553790004 3501.4739095698073 17.82786281094293 0.3307568827746472 911.1219802089801 0.0
11307.645372210935 3625.4180454365405 18.363933495726037 0.3307568827746472 924.4513517560326 0.0
11688.596868566583 3751.4203748594728 18.90890607184408 0.3307568827746472 938.0020683988776 0.0
12075.850389141877 3879.5071421684643 19.46289404862754 0.3307568827746472 951.7769525415057 0.0
12469.511042305237 4009.7131126798095 20.026047789518643 0.3307568827746481 965.7797429636067 0.0
12869.70328608511 4142.079451743032 20.59854533873832 0.3307568827746472 980.0148667260887 0.0
13276.534481142928 4276.64166963584 21.180540281760813 0.33075688277464455 994.4861427243112 0.0
13690.085497612523 4413.426514711609 21.77214830786832 0.3307568827746472 1009.1964475666584 0.0
14110.477946613079 4552.4742106850335 22.37354338861771 0.3307568827746481 1024.1501070474442 0.0
14537.8417508321 4693.827730379232 22.984911385732524 0.3307568827746463 1039.3517426093997 0.0
14972.292280649795 4837.5252333415265 23.606417343040956 0.3307568827746463 1054.8054580592986 0.0
15413.911923820346 4983.5939698886705 24.238179120866604 0.3307568827746481 1070.5141839883645 0.0
15862.840456844478 5132.080172060329 24.880396677367944 0.33075688277464543 1086.4828923464984 0.0
16319.212961860983 5283.028519203644 25.533263255154253 0.3307568827746472 1102.7163881017966 0.0
16783.153302996343 5436.479980230983 26.196956048836256 0.3307568827746481 1119.2190771896508 0.0
17254.745468497644 5592.462334833138 26.871595208332806 0.3307568827746472 1135.993947131959 0.0
17734.148977394398 5751.028345027056 27.557408934602 0.3307568827746481 1153.0466721344635 0.0
18221.503917046248 5912.2243456711285 28.254597630503504 0.3307568827746463 1170.382235204539 0.0
18716.943179050017 6076.094291575666 28.963351404952903 0.3307568827746481 1188.0053633911405 0.0
19220.552511858314 6242.666544631559 29.683792925942235 0.3307568827746481 1205.9191068279333 0.0
19732.512703085093 6412.000901586441 30.41618082033777 0.3307568827746481 1224.1298962593892 0.0
20252.968818474063 6584.145343933498 31.160722612858045 0.3307568827746481 1242.6428917775577 0.0
20782.063360801894 6759.14700544693 31.917622161752853 0.33075688277465076 1261.4631623079213 0.0
