M[M_sun], R[km], Lambda[1], P_c[MeV/fm^3], rho_c[fm^-3]
0.23841724892012095 16.20908015294055 2780876.1263280716 3.453507347168396 0.169602847481901
0.24841297084899133 15.866269236645408 2282168.2917028368 3.635534128599521 0.17197828248593067
0.25869360260205254 15.562942925883114 1881641.4910386812 3.8247365318573396 0.17437454826580753
0.26925406429095966 15.293778432779444 1558328.2192207712 4.020217735927731 0.1767658899008338
0.28010688725206945 15.05406357072391 1295656.4661404835 4.222310706455633 0.17914438118448098
0.2912332195385778 14.840038628644171 1081378.4293272928 4.432381126515007 0.18154668205437804
0.30265502804436517 14.648652368014764 905782.4126066342 4.650776498749477 0.1839766574310749
0.3143561594241181 14.477159699460538 761115.9951822764 4.87786397826125 0.18643596043769758
0.3263386154103122 14.323387766310413 641678.4753227427 5.110949394592436 0.18886473603585952
0.3386056568392331 14.185145722268476 542614.6361282094 5.353241801630523 0.1913154678879372
0.351155039088128 14.060876162435365 460127.2151591302 5.605230141326584 0.19379616308593184
0.3639871584655503 13.949035785962998 391237.01025257155 5.867326765422224 0.19631244152844068
0.37710942153159194 13.848340955889594 333498.7897476148 6.136420630988345 0.19880429749471548
0.39051059480722417 13.75773491060842 284958.87159160036 6.415944240524735 0.20132636615728547
0.4041945985642717 13.676123017897973 244066.32746987932 6.706704180374554 0.2038830737080664
0.41816464032639705 13.60271348635959 209492.83273601523 7.008792025853507 0.2064657796934781
0.43242181877408686 13.536794976661136 180212.03744297446 7.31884126862981 0.20902515050922876
0.4469576520087613 13.477366194778009 155310.6678561902 7.641431369003178 0.21162898636844907
0.4617791528658532 13.42413041080057 134124.85188997924 7.977096112039145 0.21427733195138163
0.4768820881315635 13.376381519021326 116040.66062998444 8.323901783088187 0.21693256441206185
0.492269054191692 13.33374003831131 100573.83984295905 8.681804882149589 0.21958524408240807
0.5079331450054303 13.295583385299464 87311.50366587646 9.054306708981711 0.22228602754407695
0.5238822394646376 13.26174766301923 75928.08784999406 9.44201197905871 0.22503778558799556
0.5401097811504297 13.23170709740828 66133.98915818552 9.839509429858367 0.22776355481356475
0.5566132001845195 13.205151601920985 57692.10019219676 10.252959515840256 0.23053597578637258
0.5733904323939077 13.181877693654384 50401.946051046776 10.68333186315862 0.23335902936421798
0.5904549869071966 13.16151240607915 44093.74245205937 11.127640490945394 0.23618591180527185
0.6077822738361893 13.143769778095152 38628.09602434453 11.586713648672436 0.2390305570212282
0.6253774872243013 13.12851661045492 33887.205810881285 12.064628418333955 0.24193454429339764
0.6432479520506801 13.115453520532759 29764.484467614016 12.561052541240091 0.24488630569141356
0.6613761257552594 13.104499546380538 26180.694990965112 13.070981077890732 0.24781745783527998
0.6797705681257029 13.095314159048774 23050.844998361103 13.601864361925967 0.25080724669880017
0.6984143948919316 13.087808566532553 20170.81238260422 14.154608030378101 0.2538573936783768
0.7173292761522713 13.081964799107055 17937.207683989192 14.723166175529023 0.25690339689430186
0.7364957611316878 13.077483301860502 15849.894824254983 15.31320891827762 0.25999812726238236
0.7558929813805301 13.074197125063538 14020.640574572713 15.927503275785073 0.2631588150991786
0.7755344440709914 13.072071872093895 12416.476411380982 16.56307757180373 0.266344016909125
0.7954186642398494 13.070987119887956 11007.08920067331 17.219170105097476 0.2695433698557373
0.8155351133183223 13.070709575954881 9766.939354611422 17.902306226771923 0.27281460765551313
0.8358764254795792 13.071312836827024 8676.035709544298 18.613118594621053 0.27615590046967964
0.8564299305759274 13.072563139405885 7714.551733598338 19.34319056933517 0.27948737024705095
0.8772072816417271 13.074474877837481 6865.405383168445 20.10329042878336 0.2828897095399445
0.8981750539094617 13.076809147019397 6116.539592369727 20.894669024603882 0.28636461906694277
0.9193588758943861 13.079724674660817 5454.202557672801 21.711907077970864 0.28986145466436164
0.9407340696166375 13.082951290779068 4867.719043161216 22.558327123309947 0.2934058063203706
0.9622679592715812 13.08626177618661 4348.205229737142 23.439551811312867 0.29703354767727497
0.9840015517702543 13.089990352341113 3887.681589816798 24.356000666767034 0.300738583676023
1.005888242777155 13.093756211294675 3478.955712714105 25.29930470379872 0.30443883637978125
1.0279299446493146 13.097633018367898 3115.807685668756 26.28144276606913 0.3082255344802842
1.0501222970987034 13.101528656910276 2793.1435240690835 27.30391349830931 0.3121005749390706
1.0724512667248747 13.10535242509089 2505.7376661049343 28.362989564785142 0.31603083758754863
1.0948966525576582 13.109005905761263 2249.9963919950383 29.45879872427478 0.3200101932328162
1.1174622270549988 13.11253577670766 2021.892919712646 30.599608393878974 0.32407868974147236
1.1401319174716096 13.115863342402804 1818.323596059523 31.787269763095065 0.32823701078962364
1.1628883474716756 13.11884474750717 1636.5371065869945 33.01610610302303 0.33244602035454235
1.1857189247615108 13.121555305617358 1474.264487789772 34.29072166755185 0.33672910923306054
1.2086159828571055 13.123841963508745 1328.9815201510683 35.61780775075157 0.3411178553985485
1.2315724613045131 13.125781010292235 1199.0367394644113 36.99938398969427 0.34561126279398124
1.2545677798456742 13.127230352391882 1082.6476923963498 38.43166591246571 0.3501653648369364
1.2775792700047548 13.128200664775358 978.3138740239634 39.916985074468634 0.3547986338283122
1.3005890468857055 13.12847984957633 880.9608783739665 41.46372899360318 0.3595490376642407
1.3236166554286124 13.128291074565817 800.6572002190446 43.074355652905744 0.36441874261349266
1.3466198715548352 13.127501206529253 725.157598248983 44.75145388232599 0.36940970100541565
1.3695874965776174 13.125973806317369 657.2796986595332 46.4871612627242 0.37445396378328666
1.3924828478014373 13.123687639750031 596.2285110493116 48.294644929703175 0.379627088186626
1.4153169932784953 13.120702346062279 541.2573544993646 50.177545947828115 0.3849355299816443
1.4380700352820492 13.11688050749769 491.69371692685695 52.13905615769819 0.3903821155160875
1.4607144218840509 13.112279315930971 447.06237840952883 54.182559570075306 0.39596845119663154
1.4832578608311238 13.106827587293097 406.7386700204816 56.30635926034959 0.40166300454329484
1.505634306300318 13.100409626000214 370.3761112807441 58.515568530932725 0.4074920453756467
1.5278786470767989 13.093167785980011 337.5019888492672 60.81862036846359 0.4134817616655582
1.5499327480646596 13.084926731318436 307.8006899125723 63.21976664062711 0.419635268381897
1.5718127623300295 13.075865438660482 280.9435992904681 65.72352378311344 0.42595340436667983
1.5934474314636031 13.06543894709658 256.5842802376369 68.33475588049568 0.4324416315169588
1.6148538389611307 13.054073482251157 234.543110177964 71.0585181324305 0.4391149302685771
1.6360591532138669 13.04191015565523 214.5617196546195 73.90025008291957 0.4459804592871852
1.6569391443411046 13.028341628863187 196.44376136244685 76.86258877500904 0.4530276828017357
1.677555436613432 13.013721858941043 179.98836777386103 79.95348653875116 0.460267310675436
1.6978402776383679 12.997891343509517 165.04789536258397 83.18168720718089 0.46772821110109525
1.7178113463668157 12.980883095406277 151.45389282584296 86.55425811621389 0.47542091909151196
1.737437264758805 12.962823160918964 139.12073750529842 90.07872255682304 0.48335025323758046
1.7566772533766075 12.943300181866789 127.86842677093075 93.76313600685434 0.4915238496318848
1.7755223935942503 12.922801859462307 117.67793609704458 97.61615798196988 0.49996078113886744
1.7939728228418683 12.900721424474652 108.31879819581602 101.64702925008619 0.5086770540055249
1.811985329022949 12.877452275922368 99.81600106462062 105.8656333546531 0.5176799291339008
1.8295505077910017 12.852901827057096 92.05861889221416 110.28258505998222 0.5269820942092122
1.8466323670793883 12.826921935769944 84.97887808371641 114.9092962264548 0.536607183567395
1.8632188436091686 12.799498029515378 78.50544711157734 119.75801347591391 0.546574934362452
1.8793103343590964 12.770914104188984 72.60146044740677 124.84008427624964 0.5568870678616002
1.894873477392616 12.74083923382767 67.19048045346315 130.16569315056674 0.567553005886473
1.9098788832159872 12.709283673394546 62.24198911365286 135.7544238434185 0.5786181895093954
1.9243145001659274 12.676441956085728 57.714979531999646 141.62259805556732 0.5901011231384607
1.9381509310613718 12.641905751904181 53.55607611434557 147.78780814979766 0.6020200721835917
1.9513862054323232 12.606165944658773 49.75804983712219 154.2689981837672 0.6144104496703622
1.9640063866655901 12.568884471469437 46.26601195165259 161.08664573313413 0.6273042599964597
1.9759712581021 12.530140038902207 43.06555594900197 168.24759483901343 0.6406657220579937
1.9872819021438832 12.489874480310945 40.12403973847163 175.7887045223644 0.6545849334905867
1.997906257836756 12.44809567733432 37.41994058502233 183.73620075454795 0.6691030916966455
2.007835508747413 12.404792357666146 34.935426631812916 192.11296347079642 0.6842275241053742
2.0170460863860904 12.360020755928579 32.64974419864285 200.93704843318977 0.6999707713726058
2.0255593927357842 12.313828787437581 30.546660117278435 210.25612213695572 0.7164326107851813
2.0332868354991285 12.265963967033992 28.612431667146204 220.095605360507 0.7336117526523686
2.0402837330528882 12.2165868798445 26.824317676040458 230.48661311348397 0.7515514141231802
2.04650067844869 12.165857526176081 25.18419412391329 241.48491172400338 0.7703565668327432
2.0519408015453986 12.113521941650502 23.667456075208577 253.1069097993456 0.7899756394017363
2.056582086555173 12.059810000959992 22.272213746812394 265.4287703360734 0.8105830097624185
2.060410278696072 12.004504386223514 20.98313203074667 278.4708733670611 0.8321336196188482
2.063430432910911 11.94776680970414 19.7933111013279 292.3152831261081 0.8547777625538804
2.065599048939575 11.88954623990501 18.697260339673388 307.00044399014763 0.8785300600562914
2.0669672498489775 11.82990135453916 17.681395804936024 322.60365454884834 0.9034892622497532
2.0674641800119864 11.768910943273386 16.74649048009027 339.1991565140925 0.9297653523182393
