M[M_sun], R[km], Lambda[1], P_c[MeV/fm^3], rho_c[fm^-3]
0.23841724892012095 16.20908015294055 2780876.1263280716 3.453507347168396 0.169602847481901
0.24839946720430833 15.86681240491241 2282988.70091461 3.6352758875507534 0.1719749975621229
0.2586624623949123 15.563836245920255 1882796.0839578304 3.824205362213537 0.17436805041303172
0.26921055029881047 15.294739976563218 1559430.432338366 4.019362032444754 0.17675542199229083
0.28004587494582633 15.055253760007789 1296917.7628767763 4.221138979782657 0.17913067965893315
0.2911586712503675 14.841479612732718 1082737.7085486546 4.430877258489818 0.18152976050154715
0.30255618116480826 14.650191898549883 907061.2675635845 4.648923521353162 0.18395658871562406
0.31424015050670023 14.478812361926785 762455.4992324038 4.875565711777297 0.1864112423114156
0.3262003780049156 14.32502965288722 642952.2711252567 5.108233471979654 0.18883643582440807
0.33844843221665744 14.186799591918382 543755.5363804683 5.350107904973648 0.19128419751605275
0.3509773925860736 14.062616731999292 461192.75912786357 5.60165867624659 0.1937618375768765
0.3637883987253879 13.950706234309843 392206.6903019558 5.8632967058267464 0.196275122476123
0.3768844035517929 13.849948463642521 334377.5305720043 6.131722505937217 0.19876079204016217
0.3902637948330943 13.759308469060333 285779.53055287106 6.410727052071683 0.2012798657592869
0.4039224698153675 13.677742820680974 244810.56579690927 6.700944600673936 0.20383383206796446
0.4178654870016364 13.604211348600819 210175.0567387993 7.002202757956447 0.2064094446177976
0.4320944867549066 13.538036038368453 180803.81359233282 7.311641464686693 0.20896580024824038
0.44660413203800037 13.47870819503149 155865.5654237648 7.633592892397111 0.21156666647955916
0.4613987318113304 13.425374418186305 134621.15409547338 7.968589727848896 0.21421220490961024
0.4764707795862436 13.377511684874975 116486.89277355056 8.31432858995376 0.21685926960956914
0.49183209864501115 13.334801177764124 100970.33403385308 8.671483083072278 0.21950930460901386
0.5074649780018647 13.296611132401432 87673.54341064075 9.04320287606251 0.22220717200277357
0.5233833382764859 13.26272202610779 76256.26879876602 9.429874932461757 0.2249531818298425
0.5395792844212005 13.232605509133984 66427.09270863864 9.82623777724266 0.22767254677766524
0.5560517361149245 13.206036264532289 57956.57900506496 10.238771303930886 0.2304422171383344
0.5727967697772067 13.18260701399739 50638.80125011023 10.668121234403483 0.23325326965615403
0.5898201734928021 13.162151952918428 44307.941895794116 11.110390717602488 0.23601039935057638
0.6067289793902165 13.14441888707051 38928.539509261645 11.576657594415428 0.2665103495818458
0.6223525051592985 13.128035541706431 34590.251829588924 12.072095726944589 0.3108073992318819
0.636872106976101 13.110998328758422 30996.61089080625 12.603300846591374 0.35302701708148787
0.6504874863987272 13.092772653215855 27958.286571865672 13.169404831428606 0.39247800497897783
0.6634151413726678 13.072617824987534 25329.926504790525 13.771291479392026 0.43109399963493306
0.6758274570295556 13.050582582238443 23021.276473437083 14.410913195998397 0.46884785846262356
0.6878430159185106 13.026428028480497 20967.76866878886 15.083967140980745 0.5039352626307818
0.6995740987228147 13.000321100164253 19122.833511080116 15.794516382686174 0.5375684408108833
0.7111554833279782 12.972223132683965 17449.965112501934 16.544798348562768 0.5702861466386465
0.7226473483803841 12.942440946628713 15927.411623721286 17.330677210765813 0.6026502590005285
0.7341014696223108 12.911004723598225 14535.595344819327 18.15278104612509 0.6316678497016899
0.7456649086935688 12.878112926758343 13254.001599759744 19.016868034452944 0.6600085030753312
0.7573547252683087 12.844071749676589 12075.78598846242 19.921775424448807 0.6884092228914842
0.7692075583062712 12.808839278773037 10990.54332110986 20.859716460574234 0.7148651698416121
0.7812723297248894 12.772883898047107 9992.658337491139 21.84190713344825 0.7405406038649281
0.793613946716316 12.736161799567094 9072.765788221768 22.87023030535851 0.7655161567958937
0.8062105054094812 12.698850251609468 8227.430393669323 23.935055215041018 0.7896422966740139
0.8191276405196781 12.661329120635504 7451.960829428901 25.042625202612207 0.8130231990071269
0.8323773903362194 12.623607613402374 6740.281596148871 26.199286883108165 0.835979703499904
0.8459835803066358 12.585871229482388 6089.048889811009 27.405670493478574 0.8583695243202498
0.859948278256923 12.54826427724724 5494.607402118931 28.647424410688576 0.8800468023022686
0.8742834346860568 12.510852664185768 4952.420622555686 29.942497633922034 0.9017722258556333
0.8889867568575707 12.473935991406947 4459.880408273373 31.29252402418347 0.9235103854476693
0.9040587867695152 12.437337977492458 4012.429940219701 32.6934103673982 0.945001288428385
0.919514976224744 12.40143185805791 3607.044228155239 34.13962507452974 0.9657477559454418
0.9353485611843786 12.36607046636521 3240.3909184069207 35.64576847405971 0.9865644112673099
0.9515438028278992 12.331382724959608 2909.2010296916155 37.21371979879063 1.0074869577581154
0.9681142166405983 12.29743443588572 2610.402292411554 38.83838843010015 1.0282975289497587
0.9850049929181457 12.264321241860413 2342.336871466157 40.5168239870285 1.0488909837236096
1.002287280381894 12.231906659049088 2099.5891909877 42.26321208049211 1.0696445329788151
1.019876035592538 12.200295199988853 1882.3935690445817 44.079739418493936 1.0905581480606859
1.037776473883605 12.169508212133358 1687.5034932886015 45.96698937949272 1.1115959286129113
1.0559727148526055 12.139530299112161 1512.709946357478 47.91255995137812 1.132440408604936
1.074470598494335 12.110372014697433 1356.1813056574654 49.93593410228891 1.1535342028904378
1.093205341979204 12.081844708103038 1216.1492118847282 52.039800343310986 1.1748886405985854
1.112205205743282 12.054145292813518 1090.7104062779702 54.22698522719759 1.1965190943478188
1.1314254913679171 12.027074325973532 978.5236386613749 56.495370475334305 1.2183484322970275
1.1508496928885716 12.000671140355005 878.218079341086 58.8418947587136 1.2403031741551755
1.1704734340964484 11.974945434717663 788.5692722502932 61.28188985429726 1.2626412291827305
1.1902395359636622 11.949677496162249 708.4684393810128 63.81891930995323 1.2853855798563212
1.2101493866645767 11.924901398180486 636.7115508889294 66.4567622431694 1.3085625072276277
1.2301813912837354 11.900604940806419 572.722760819449 69.19944417417294 1.332201581819318
1.2503075088660491 11.876769706715763 515.3223911560984 72.04492767987615 1.3562429057119
1.2704915525591647 11.85320212028441 464.22036894464907 74.99773955647342 1.3807331598776889
1.290696980386358 11.82987886316037 418.44684175299903 78.0699384029445 1.4058176272741114
1.310945245780915 11.806836463106087 377.4500804048241 81.2666859819878 1.4315266099844606
1.331157995450822 11.783898798878594 340.76518263672347 84.5934852032872 1.4578863881681872
1.3513560730131533 11.760998889607537 307.87449578975196 88.05628605448916 1.4849489278845456
1.3714771612380507 11.738214139658432 278.44418923217876 91.6613313749263 1.512786911041152
1.3915153384844101 11.715339955657392 252.0244023834701 95.41533262734235 1.5414552269557975
1.4114200229694747 11.692351949245563 228.35193924603425 99.32544481921946 1.571008842475621
1.4311938712850356 11.669252971836688 207.10098717215703 103.39945223301478 1.6014808415859236
1.4507981159820522 11.64589409602367 187.9970956411267 107.64547132237442 1.6329818878722513
1.4701927047199044 11.622229225935241 170.83361513521703 112.07058655662483 1.6655795888610847
1.4893615074066027 11.598218802360453 155.39337563181604 116.68632380208967 1.6993631402901739
1.5082945532454735 11.573872217518634 141.49478104119538 121.50363561037206 1.7344508718458609
1.5269448796888485 11.548971971594302 128.96921804625336 126.53340942548499 1.7709652333494836
1.5452853717816604 11.523637899207044 117.68395230924695 131.7862334524345 1.809013935630215
1.563292957899111 11.497707169375628 107.50565844836528 137.27234440894657 1.84873890726099
1.5809675760077575 11.47119431057044 98.3044999246335 143.0067562385365 1.8903266203377347
1.5982350441208482 11.443943937938894 90.0003339732351 149.00373739425598 1.9339841562774183
1.6151286745865743 11.416060428245858 82.48281647651595 155.27841065734108 1.979944398823309
1.6315727069493142 11.387410521661593 75.68492150510167 161.84722621435031 2.0285143337432805
1.6475795062989387 11.357922342000947 69.51672536496815 168.72750928596935 2.0800439690349903
1.663112243703888 11.327619887565135 63.928363441949486 175.93811524615694 2.13496350095995
1.6781850191674428 11.29649616827556 58.85334203764809 183.49883477448515 2.1938972951868303
1.692716947848058 11.264407356011064 54.249514717656204 191.4289248296261 2.255953512900043
1.706708575952135 11.231365413938194 50.0573821072509 199.74097416079312 2.302321987297555
1.7201370169677193 11.19744632812756 46.25143574965681 208.47822726604824 2.348842822258402
1.7329366983847432 11.162420069291926 42.793615278927696 217.6696929961911 2.3975140200358314
1.74510106629063 11.126374865733112 39.64334594964523 227.3465168590965 2.4484819271040106
1.7565861944449175 11.089169286373487 36.778514335443816 237.5186605063698 2.5016962204510143
1.7674177076032898 11.050914615407931 34.16548398128856 248.24342883028152 2.55748882125477
1.7775074688311625 11.011393919087858 31.784560940208472 259.5610949556774 2.616018065541801
1.7869029484952172 10.970759190367 29.60855712448552 271.4873471740033 2.6772663140155304
1.795545315683129 10.928872900478135 27.62175842616645 284.0912091864664 2.741600566709792
1.803405198686287 10.885694790249289 25.806757511206538 297.4111343826939 2.8091289544193834
1.8105205859528803 10.841317279551738 24.14355783865292 311.49582448260514 2.880043516926652
1.8168352392384155 10.795653325654722 22.621669810586614 326.41185367772545 2.9546267582588865
1.8223408510114094 10.748744830197534 21.229785727639904 342.20857363231084 3.033021522154552
1.8270194618110083 10.700475915250275 19.95396915646785 358.9638952058299 3.115578337018227
1.830879514217331 10.650967490721714 18.783012085902726 376.7480680461075 3.202536899124751
1.8338910152493977 10.600121857514644 17.709561919659247 395.6348921611798 3.2941342313380404
1.8360520564005431 10.547975834094517 16.724322626158354 415.72633421487825 3.3908295683815584
1.8373612398531731 10.494568740109196 15.819691015324219 437.106146725992 3.4928595405273533
1.837807123992824 10.439929104507792 14.989691097949061 459.8810164783023 3.6006082634361603
