M[M_sun], R[km], Lambda[1], P_c[MeV/fm^3], rho_c[fm^-3]
0.23841724892012095 16.20908015294055 2780876.1263280716 3.453507347168396 0.169602847481901
0.24841872669017484 15.866147989389283 2281951.1646128194 3.635632271981219 0.17197953090686396
0.25870442284252687 15.562693596407533 1881327.7566903853 3.824938414244117 0.17437701791376767
0.2692736317161693 15.293196389165955 1557761.5142110097 4.02054298776838 0.17676986873998674
0.2801316227779489 15.05349706482147 1295108.1425863884 4.222756107539173 0.1791495894591289
0.29126673098531575 14.83952790347837 1080905.670627317 4.432952818768661 0.18155311474694893
0.3026921216553509 14.648076705169965 905216.5167005009 4.651480947720664 0.18398428698229372
0.3143998116991347 14.476587641365796 760673.041882261 4.878707912934115 0.18644475432953414
0.32638988216587916 14.322774928637081 641240.4077831281 5.111982048736635 0.18887549640528223
0.33866520984896753 14.184523397465762 542190.961958242 5.354433448238034 0.19132735827126876
0.35122423884352455 14.060262102209974 459740.4461007889 5.606588247875796 0.19380921590812356
0.3640625957940434 13.94845978514083 390875.7659919889 5.8688593445833 0.19632663347784943
0.37719478799701245 13.847791695116806 333155.29542422213 6.138207401370524 0.19882084329901253
0.3906074845482873 13.7571372129771 284647.9387659001 6.417928525600834 0.20134405193701368
0.40430097585540986 13.675605892390553 243783.87448445839 6.708894871383631 0.20390180306400046
0.4182804568407868 13.602197335457372 206644.69897546354 7.011298487202502 0.2064872087341533
0.4325442017389169 13.536127257456814 179970.25107281745 7.3215801088890435 0.2090477276356999
0.4470890006283743 13.476797399438302 155101.3248591536 7.644413312590127 0.21165269434161196
0.46192254419946327 13.42358507925215 132443.9930225042 7.9803323021679935 0.21430210904644198
0.4770375218002453 13.3759222811574 115869.29086997978 8.32754411975564 0.2169604510683639
0.4924336618853816 13.33326232319968 100419.61797291596 8.685732230475013 0.2196141383440997
0.508113154393866 13.295298775863493 87178.26250852455 9.05853181185762 0.22231603274829487
0.5240676850089152 13.2613730032333 75809.24330520396 9.446548754105688 0.22506889572915875
0.5403129004854234 13.231416472720461 66024.30839687113 9.844560045718536 0.2277981885282065
0.5568225506712138 13.204857218967526 57593.484039412935 10.25835917831043 0.23057165787628636
0.5736197790931247 13.181544639374074 50308.31480201418 10.689096106551258 0.23339570395798803
0.5906957493791283 13.161284742669471 44013.69298777397 11.134020999233732 0.23622650734116127
0.6080350867678846 13.143608964899288 38556.74739705808 11.593501760684314 0.23907230060601084
0.6256466776559513 13.12820574474392 33819.51432983258 12.071843503252703 0.241977445530795
0.643522720903142 13.115257726165453 29706.82349531217 12.569002721634966 0.24493357784140393
0.6616752242771693 13.104328770824184 26123.46323857081 13.079408492386314 0.24786579496288272
0.6800787539864203 13.095163563581043 23002.82757600629 13.610790739532519 0.2508566479151126
0.6987381359037249 13.087696263658621 20279.14354548827 14.16405703887151 0.2539080159594991
0.7176658823001477 13.08186908017095 17897.957875932516 14.73352325418088 0.25695888408615764
0.7368412569912961 13.077389476237363 15701.868866241668 15.32415092795496 0.26005489995874653
0.7562601932593807 13.074144367277725 13988.927464476463 15.939058309496493 0.2632167235365118
0.7759176228469197 13.072040749539337 12387.442978943656 16.57570697875881 0.2664073096038483
0.7958176596579062 13.070942676738182 10980.873614074608 17.232484161843672 0.2696079043454055
0.8159456564504173 13.070765163880138 9744.556947072097 17.916338804824452 0.27288057014340994
0.8363033496799396 13.07132839779859 8654.64833927861 18.628303955872198 0.27622681713186614
0.8568680336041521 13.072579728044381 7695.201513948047 19.359296381007223 0.27956082784638336
0.8776686957099212 13.074550154205856 6848.322591969972 20.12024137260625 0.2829645073627321
0.8986517186741639 13.076854973280621 6100.4759399849745 20.91250704278797 0.2864409451958063
0.9198495324915487 13.079767930505549 5439.607439183811 21.73129863637908 0.28994442815226024
0.9412204795320191 13.082960428707002 4854.879069118832 22.578713236473664 0.2934905725192662
0.9627892727247443 13.086359660169535 4336.570365680492 23.460985311302203 0.2971201994184682
0.9845328908246751 13.090034076480759 3877.0686037302394 24.379264423233458 0.3008326348111859
1.0064422436940483 13.09388038209605 3469.4318685953826 25.323743079948432 0.30453460806740895
1.0284938719596746 13.09769499619617 3107.2381875014516 26.307116758073594 0.30832336375043545
1.0507024569776537 13.101557873092263 2785.0802664000457 27.330890071508495 0.3122006858011558
1.0730353864559679 13.105336654000485 2498.5536345097653 28.39220907154676 0.31613927204251113
1.0955038830374966 13.109048516452656 2243.254233457802 29.489484427204395 0.32012116034530225
1.1180919831507932 13.11264107381194 2015.885793246593 30.631839353477275 0.32419191624082383
1.1407734364765143 13.115924992308505 1812.8703619378339 31.821129818093247 0.3283529882316355
1.1635502125249158 13.118924038163485 1631.5959314160716 33.05272148709144 0.3325714353481909
1.186391930597959 13.121605639102754 1469.7407408532083 34.32917427661857 0.33685767576366554
1.2093044523762353 13.123897948711987 1324.87129704305 35.658202742217426 0.3412497699231745
1.2322648394867162 13.125786186087234 1195.3211661266844 37.04183009214501 0.3457462249678474
1.2552829304706445 13.127313410283222 1079.2278274242042 38.47750874963143 0.35031112731223685
1.2782987760554374 13.128146684597862 975.1591030138896 39.9651434429379 0.35494833966066386
1.301328839322716 13.128474092034676 881.8627040626194 41.514338756037745 0.3597029655278581
1.3243577906462605 13.128236536796091 798.0687686188253 43.12756156331785 0.3645771332833713
1.3473714514926787 13.127426369468207 722.804380671226 44.807406689307875 0.36957230944089475
1.3703401585804926 13.12587439952369 655.1346620171997 46.54751204835978 0.37462935349760995
1.3932735562458856 13.123609560401786 594.2322914442345 48.35810757435313 0.37980784367410236
1.4161074809674978 13.120565631053395 539.4621432699541 50.244309093218575 0.38512199322861024
1.4388629185478894 13.116682919349513 490.0737996676883 52.209320515268345 0.39057456189586426
1.4615277078812474 13.112091650500568 445.5424157429756 54.256535928940146 0.3961668043294043
1.4840759934325456 13.106633552592688 405.3652222649924 56.38608744846122 0.4018767800808437
1.5064524543954616 13.100167629540374 369.1136970469871 58.5995177900664 0.40771312008886734
1.5287036557892262 13.092853794773607 336.3485888245287 60.907054635687196 0.4137106016837744
1.550773476356854 13.084603763179203 306.7197628721033 63.31296703648978 0.41987220933403213
1.5726291552013256 13.075297258453713 279.9471730551018 65.8217876170754 0.4261985906955528
1.5942926351726112 13.065060097398344 255.68347715182477 68.43840256830444 0.4326961274655187
1.6157030689999767 13.053672687516132 233.72088349919193 71.16789317017556 0.43937932834118615
1.6368789408808189 13.041287647395082 213.81302085395816 74.01572206640178 0.4462551601103695
1.657791331895905 13.02779531400038 195.74998089099742 76.98695028658179 0.4533235312713928
1.6784013555233046 13.013160971082096 179.34956690249547 80.08482460145878 0.460574664285328
1.6986882731937147 12.997193859116067 164.44219165765568 83.32045823548061 0.4680483412939062
1.7186454277437788 12.98015231778016 150.92323027257714 86.70095539877063 0.4757546519290615
1.7382586600207832 12.961877996440872 138.60261382330032 90.233873725557 0.4836981367538378
1.757495375762163 12.942452980489234 127.40950514480696 93.92730519532573 0.49188667006367287
1.776348953871697 12.92171222073187 117.20954749334048 97.78995393503638 0.5003399942321146
1.7947821997534479 12.899637563626666 107.91851897293469 101.83110975937173 0.5090737349996708
1.8127851983686105 12.876339358053162 99.44814886701712 106.06070389747704 0.5180947941125508
1.8303265645591653 12.851606106179263 91.71816503623731 110.48940313436832 0.5274163639889952
1.8474018265596868 12.825674665039726 84.66896714906471 115.1286809261181 0.5370625834538971
1.8639869570911747 12.798284063332979 78.22436042433188 119.99085064012462 0.5470528810517664
1.8800516519570405 12.769458396386252 72.33187718151534 125.08383616292201 0.5573758736919073
1.8956165664339684 12.739458037496172 66.94584091180427 130.4247466061756 0.5680671441466172
1.9105919257695945 12.707806781720087 62.01593611793627 136.02988519812737 0.5791593913275085
1.9250078453315325 12.674798435725313 57.504480030013006 141.91566051826507 0.5906705891231733
1.9388429208030298 12.640399507224704 53.367567048244574 148.09976176120387 0.602620139647845
1.9520325431361216 12.60435072357489 49.57771892686866 154.60124348464672 0.6150435626175726
1.9646237512665587 12.566942264238698 46.09821117649039 161.43708443130947 0.6279599997882727
1.976565160898544 12.528090157535804 42.90904465160321 168.6208235005848 0.6413569273768801
1.9878435314205043 12.487733208923734 39.97841569425966 176.1869784445586 0.6553161893834543
1.998432668856503 12.445815091597552 37.286594120931156 184.16144912581822 0.6698773038112673
2.0083311002159436 12.402491100147293 34.81231251131075 192.5627140881158 0.6850319053387572
2.017516141124977 12.35755623836869 32.532222094349144 201.41792019809435 0.7008239901795549
2.0259846154842807 12.311254601667974 30.439512856655718 210.77058409210326 0.7173383169903739
2.033688094851587 12.263373130335728 28.512640146069167 220.641412207816 0.7345568951899106
2.0406399850936414 12.213939522499993 26.734075398625837 231.07136690411787 0.752556513683384
2.046825663646459 12.16297000773893 25.095165597041095 242.10668888672615 0.7714086539951597
2.05221989918631 12.110607678016239 23.587680874986017 253.77400792307637 0.7910964581199373
2.0568219916124764 12.056698371459863 22.193974449550957 266.1402787485743 0.8117627878225371
2.0605975253495954 12.001320580437566 20.913232478794054 279.23468773118736 0.8333893089166413
2.0635742114371194 11.944413684831778 19.727274838731184 293.13095489657417 0.8561010140734687
2.0657058140234197 11.88618199548715 18.63590932563962 307.8781834697099 0.8799443575116894
2.067012517257752 11.826351808792538 17.624211095850843 323.5429591414804 0.9049822998847534
2.0674639885212667 11.765299438567506 16.694643121129463 340.20561738335124 0.9313446600142906
