e[MeV/fm^3], P[MeV/fm^3], rho[fm^-3], v2[1], mu_q[MeV], mu_e[MeV]
70.21755168181654 0.006206087273093519 0.07407856508846018 0.017597877650005332 316.5185077347417 89.2771661002368
71.43578994790998 0.027644495228360377 0.07535555647246353 0.0175978776500052 316.5894798429086 89.8124074562691
72.67502861766434 0.04945246571785267 0.07665456106626496 0.017597877650005228 316.6616753923034 90.35687548400062
73.93562970314778 0.07163636938565421 0.07797595834102777 0.01759787765000538 316.7351154730202 90.91072923592193
75.21796145691394 0.09420268669514797 0.07932013430936638 0.01759787765000533 316.8098215387112 91.47413050632369
76.5223984795798 0.11715800982215896 0.0806874816381126 0.01759787765000522 316.8858154128541 92.04724387856187
77.84932182925448 0.14050904458066893 0.08207839976302188 0.017597877650005325 316.96311929512683 92.630236773136
79.19911913285509 0.16426261238173973 0.08349329500545777 0.017597877650005436 317.0417557678931 93.22327949659658
80.57218469934486 0.18842565222626206 0.08493258069109116 0.017597877650005332 317.12174780279906 93.82654529129692
81.96891963491473 0.21300522273190858 0.08639667727063695 0.017597877650005284 317.20311876748366 94.44021038599915
83.38973196016327 0.23800850419525207 0.0878860124426853 0.017597877650005242 317.2858924324053 95.06445404735784
84.83503672928572 0.26344280068923775 0.08940102127863886 0.01759787765000527 317.37009297778565 95.69945863228664
86.3052561513196 0.28931554219685157 0.0909421463498059 0.01759787765000538 317.45574500067295 96.34540964122833
87.80081971348744 0.3156342867816875 0.09250983785669148 0.017597877650005325 317.54287352212793 97.00249577234631
89.32216430665855 0.3424067227958098 0.09410455376051008 0.01759787765000531 317.63150399453286 97.67090897664707
90.86973435297011 0.3696406711256137 0.09572675991696154 0.017597877650005242 317.7216623090265 98.3508445140514
92.44398193566516 0.39734408747669764 0.0973769302123309 0.017597877650005228 317.8133748030682 99.04250101043964
94.04536693114535 0.4255250646977123 0.09905554670190979 0.01759787765000531 317.90666826813106 99.74608051566989
95.67435714332068 0.45419183514462985 0.10076309975082554 0.017892055534992374 318.00156995752883 100.46178856260559
97.33169327479138 0.4843410207312542 0.10250008817728433 0.018775745774211428 318.10048622561175 101.18570399772256
99.01814146064449 0.5170082040359527 0.10426701939828847 0.020025246310001077 318.2058447860128 101.91428658825437
100.73429318912723 0.5525181669555139 0.1060644095778678 0.02129999675038627 318.31828524079526 102.64750316311726
102.48063871606901 0.5907964457966746 0.10789278377786223 0.022549781036994038 318.43751805132047 103.38670836290729
104.25774423592242 0.6320103592916358 0.10975267611130558 0.023887708108000116 318.5638120290785 104.13237516689382
106.06623539667063 0.676492214395437 0.11164462989845152 0.025339806313660923 318.697770868173 104.88465247088972
107.90674784282342 0.7245234535359056 0.11356919782549418 0.026726883379044414 318.8398212612412 105.64215664334085
109.77980899298537 0.7757858510810522 0.11552694210601787 0.028008654354195556 318.9889635986241 106.39548846211913
111.68603200563659 0.8304189676497289 0.11751843464523576 0.02941848660514751 319.1453310518051 107.14305877628786
113.62612253642692 0.8889903796251314 0.1195442572070575 0.0310000273545607 319.31003653378224 107.89037199216354
115.60075117782822 0.9518318179215621 0.1216050015840337 0.03259969837934959 319.4836179784206 108.6399435927219
117.61049319554543 1.0189345897359714 0.12370126977023699 0.03419210470702347 319.6659546827271 109.3941654142798
119.65602415051524 1.0905481505064962 0.12583367413711752 0.03592218882239359 319.8573917239201 110.15411877028433
121.73815641876267 1.1672766767204164 0.12800283761239192 0.03778190969818496 320.0588603075681 110.92020174565145
123.85759205422588 1.2493614886182018 0.1302093938620144 0.0396255479711905 320.27062777688235 111.69348487044105
126.01496433860267 1.3368161240061027 0.13245398747528928 0.041461386350795104 320.4925793312381 112.47517112638602
128.2110155783424 1.429932568241939 0.13473727415316794 0.04346252473119688 320.7250671173629 113.26594974297757
130.4466887956552 1.52951487508801 0.1370599208997976 0.045590760196347446 320.969220213987 114.06610244230104
132.72270298041246 1.6357091714792171 0.13942260621736857 0.04767926014436641 321.22510082538804 114.87651716166351
135.03976205186157 1.748593799706529 0.14182602030432198 0.04977029748745049 321.49267975935425 115.69799950047124
137.3986835249372 1.8685229353243933 0.14427086525697244 0.05206400529136951 321.77234677231564 116.53110782929468
139.80057355445675 1.9965668028217445 0.14675785527460983 0.05448295484632937 322.0654823434704 117.37614392238619
142.24614757531495 2.1327305435734982 0.1492877168681315 0.05683638595368079 322.37191652081754 118.23384218287305
144.73619757503982 2.2771938463603174 0.15186118907227755 0.059208520968313694 322.69174413674494 119.10477732777403
147.27162660197732 2.430390920319256 0.15447902366151722 0.0618292055008095 323.0254080857181 119.98940983187808
149.85374556019306 2.5937403356179334 0.15714198536966398 0.06457197399617759 323.3745941649684 120.88804723823948
152.4832372283129 2.7670401807274834 0.15985085211327107 0.06721882453614525 323.7388555425644 121.80124809303793
155.16100474728017 2.9506159576823916 0.1626064152188807 0.06990575565196155 324.1184454344821 122.72942464238325
157.8880490867394 3.1450019316856195 0.16540947965419006 0.07289593855263288 324.5138717435153 123.67293532678868
160.66593902373984 3.3520690822739376 0.16826086426320178 0.07600220080988451 324.92718571735776 124.63202719571277
163.4952840125817 3.5713158744339593 0.17116140200542868 0.07897532922519734 325.3576004812541 125.6070903482084
166.37712853614147 3.8032695276021222 0.17411194019922174 0.08202037368123771 325.8055622707938 126.59840218489457
169.31260061973967 4.048620249866702 0.17711334076929286 0.08542133552471287 326.2716886567447 127.60620334892384
172.303551331823 4.309718566586897 0.18016648049850292 0.0889270452590527 326.7583492276527 128.63058410314463
175.35050383107742 4.585737524453315 0.1832722512839939 0.09226446929582366 327.26444376458807 129.67181814230588
178.45466868853612 4.877441713994387 0.18643156039773165 0.09572802473872655 327.7906096931573 130.73004905217363
181.61738960046912 5.18586172672753 0.18964533075154347 0.09956214286511778 328.3377308078966 131.80536363429957
184.84067158507494 5.5134958934314255 0.19291450116672415 0.10348029397253222 328.90808973361146 132.89762523650757
188.12508868773136 5.859506730761704 0.19624002664828616 0.10723125726635341 329.50063467169656 134.00704679883177
191.47199658539387 6.224818666062787 0.19962287866394354 0.11114950466071183 330.116072530961 135.1336328978941
194.88301649425165 6.610906017540677 0.2030640454278977 0.11544544815415358 330.7555888744374 136.2772622126371
198.3602890613904 7.020342674256472 0.2065645321895225 0.11979382346787826 331.42129567013734 137.43754067535426
201.9044613376726 7.452308308070558 0.2101253615270204 0.12397650239191993 332.11220306471756 138.61467605675114
205.5170562570145 7.907903230714149 0.21374757364614289 0.1283699626450635 332.8290718474655 139.80852765902867
209.2000509218192 8.389163756231573 0.21743222668406043 0.1331367755092301 333.57341318817043 141.01869117551004
212.95568685700158 8.89862029273525 0.22118039701847075 0.1379109881763032 334.34705688852574 142.2445530860434
216.7847142491265 9.435507109353031 0.224993179582034 0.1425209986125906 335.149090910276 143.4863497980139
220.6888478651131 10.001107919216421 0.22887168818223044 0.1473848211915132 335.9803024130194 144.74379875149575
224.67051841244387 10.598148441577159 0.23281705582673115 0.15260238957125072 336.84253077264475 146.0161250814302
228.73201076449018 11.228941923303356 0.23683043505437643 0.1577674592771845 337.73719306437926 147.30260528428684
232.87421847820065 11.892825884399452 0.2409129982718618 0.16277849446563675 338.6634726746745 148.60351662363965
237.8201873229547 12.712576463489448 0.24573869725063494 0.01235118266258975 339.6221443059857 150.47722340584156
287.27045151280277 13.45004166102915 0.42272996669778073 0.017475359606565627 340.61534675451054 141.02909930258664
336.41155916493614 14.433916919749908 0.5987499548719069 0.02289552872224737 341.6439533067965 131.74654616179993
381.43036713970855 15.58318080753592 0.761562407132983 0.030682762252270623 342.70726027181 122.58791712121818
419.91399137719117 16.933524195798878 0.9028270221727356 0.03759879181560358 343.8059831368225 113.74555496564166
456.4865319778128 18.39584644479704 1.0380920437563526 0.04964645064424267 344.9424917462097 104.84922607297686
485.8530350259697 20.0816288494456 1.148953640458278 0.060308520567095625 346.11701155796936 96.51590997785834
514.3135632524593 21.878129166321486 1.2573884149605177 0.06898581859637593 347.328966229596 88.15268801635811
540.5308587071995 23.828354483523714 1.3590830069524746 0.0815308146536809 348.57896372915343 79.92904378718208
564.6720381713785 25.955408257895076 1.4548478981966957 0.09233563903318909 349.86949367684684 71.88715211564286
588.1283242909003 28.21758933832154 1.5494207053649227 0.10164300823919181 351.2000887836266 63.85268887117181
610.7623214320995 30.63176044602626 1.6426969955831854 0.11085692241027412 352.5703075794808 55.8831642477808
633.3880451997092 33.23487329587489 1.7402333115650177 0.11284402929693504 353.98060905644974 48.029061002675974
658.480924835998 36.005036155411695 1.8548296777552977 0.1117011695010518 355.4334521442952 40.09541386850712
684.623558057171 38.960736736737395 1.9788775838754527 0.12327269761854964 356.9277197298895 32.0363012343734
708.503078170485 42.12718015460645 2.0937765548836555 0.32098484852956277 358.4631014669581 23.764442164820966
717.0612020820546 45.45200578644322 2.1177502179882968 0.3891648763036444 360.03988091456415 15.845137289826845
725.9209760964931 48.906022830757514 2.1423633044120263 0.3900450127143875 361.66030746350987 8.194794047179085
735.1036549468182 52.48950024536244 2.1677104818498156 0.39013287261572005 363.3227610243933 2.4619806971075655
744.6327557963826 56.20602535869304 2.1938783013402663 0.38978732289568185 365.0270429856405 0.0
754.5259792075128 60.05990449265563 2.220918272943206 0.3893038411237728 366.7732551876847 0.0
764.8063002603293 64.05947148227568 2.2488815722255593 0.3888031145026658 368.5632457970251 0.0
775.4752333960162 68.20484363276779 2.2777593857651506 0.3882951717616341 370.39513942729127 0.0
786.5443398200376 72.50004270702222 2.307570031039181 0.38778133216797617 372.26881070045994 0.0
798.0261128006988 76.9494405511696 2.338333942664849 0.38726274585471865 374.18425749083553 0.0
809.9398654125208 81.5600331934553 2.3700892445755666 0.3867402943261533 376.1425479489815 0.0
822.2887677724777 86.33255892979479 2.4028306654701375 0.38621545674407276 378.1420680020603 0.0
835.084765907858 91.27114734226812 2.4365761042441405 0.3856890857891293 380.18264288681297 0.0
848.3404800291286 96.38017779102321 2.471344868594081 0.38516199441966403 382.2641765278808 0.0
862.0705136992157 101.6647816942301 2.507161044521971 0.38463485785307494 384.38684656688184 0.0
876.2816832052948 107.12708503074737 2.544028092712566 0.38410855027820867 386.54960838431725 0.0
890.9857646814008 112.77111771383119 2.581962183896397 0.3835836622271991 388.75217980057613 0.0
906.1946431481431 118.60094325375307 2.6209794555185426 0.38305197531427737 390.99427615507426 0.0
921.927849495772 124.62326144037225 2.661107405996323 0.3824941513827502 393.27543963785325 0.0
938.2169426934059 130.84896490186418 2.7023925686716366 0.38194424239783853 395.59516773161965 0.0
955.0484091231401 137.27318562887098 2.744807829070963 0.3814245832474463 397.95311125729603 0.0
972.4324753132344 143.89932414455834 2.7883639124966906 0.38090900047605114 400.3486982341418 0.0
990.3777290905138 150.7301534954783 2.8330672678486373 0.3803574562161298 402.78113502043635 0.0
1008.94853468754 157.78810945173495 2.8790187692881197 0.37980201768486443 405.2503908250171 0.0
1028.1167739223984 165.06320986659648 2.9261673805083994 0.37929165348645366 407.7560864453435 0.0
1047.8844431216162 172.55587298606895 2.9745071703373402 0.37876157745757144 410.2972643916196 0.0
1068.3016674102046 180.28334082716702 3.024109129674467 0.3782148991291061 412.8731075256692 0.0
1089.3762835270343 188.24835388528322 3.0749842849462614 0.37770235510063355 415.48395412590855 0.0
1111.0933226837753 196.44553531540788 3.1271031587810056 0.3771737261603114 418.12942481666244 0.0
1133.523424908491 204.89908955624657 3.1805624249602418 0.37663813975074945 420.80808286670407 0.0
1156.630535862172 213.59624818799247 3.235298296306611 0.37613315921627954 423.519388423576 0.0
1180.4505752101725 222.54958293340044 3.291366492304402 0.375607842202629 426.263926491692 0.0
1205.031318500337 231.77555023240512 3.34883353196792 0.37510035771792527 429.04133904117657 0.0
1230.3177531511637 241.25444597179686 3.407596853231769 0.374585850256552 431.84962364736657 0.0
1256.4161834358672 251.0231396986019 3.467813076767746 0.3740791007265525 434.68879187402194 0.0
1283.25526286662 261.0569271887218 3.5293752926302377 0.3735760962356025 437.55954505588323 0.0
1310.9648072005637 271.4007171949229 3.5924705258615925 0.37307369577061067 440.4615602408136 0.0
1339.4297978704221 282.0138320968893 3.656902781618784 0.3725812204435739 443.39219174670734 0.0
1368.792106147235 292.94559648925946 3.72288276562435 0.37208442799261476 446.35224304333093 0.0
1398.9819037421933 304.1718714334564 3.790307801050859 0.3716038034785232 449.3424024244641 0.0
1430.1024598582455 315.72827931579826 3.8593211810899892 0.37111434974995916 452.3623894048231 0.0
1462.088675880944 327.59129836122486 3.929796018851573 0.37064537538403997 455.4088468583903 0.0
1495.0028096493165 339.78285377860374 4.001831123782082 0.3701653696053997 458.48357591050296 0.0
1528.8998807047317 352.3220148318919 4.075503364103146 0.36970159603410657 461.5871295346198 0.0
1563.7456270752643 365.1967653765369 4.150756320102694 0.36923699388868414 464.7192724425523 0.0
1599.6003815033605 378.4267610027337 4.22763461944012 0.36876834616142684 467.87587687666405 0.0
1636.4671522593835 392.0137098573712 4.306160575838256 0.36832833068187476 471.0599151315838 0.0
1674.3620313867507 405.963149485396 4.386353389774546 0.3678727566240658 474.2716930347005 0.0
1713.3972863365907 420.3136638210491 4.468359818591115 0.36741752168861375 477.5110201023164 0.0
1753.4657308813091 435.02679072064376 4.551981677593956 0.3669909859327616 480.77294680996494 0.0
1794.6450109042485 450.13037590137156 4.637356652253282 0.3665552686222089 484.06176219100337 0.0
1837.0215437480745 465.6540771243701 4.724594403135203 0.36611591480377914 487.37742484726095 0.0
1880.594199643437 481.59722777533796 4.813680760038257 0.36569437072584154 490.71942709513365 0.0
1925.3068238923724 497.93903659686924 4.9044895829179795 0.36528353433630123 494.0830324628434 0.0
1971.2541106636172 514.7132952832927 4.997182917414659 0.3648639751070153 497.47289006040484 0.0
2018.5261290219637 531.9508325622304 5.091870501381722 0.3644452159119327 500.8888825459008 0.0
2067.100034463573 549.6433545261299 5.1885038669283325 0.36404339483811743 504.3299917615031 0.0
2116.940560866474 567.7774538634419 5.286990315387201 0.3636487121730356 507.7922253856572 0.0
2168.1483484116056 586.3889067078746 5.387496599740923 0.363257747811482 511.2801267663313 0.0
2220.7603769892876 605.4902600815129 5.490061132341334 0.36286229188042896 514.7936148893198 0.0
2274.8380433015923 625.1019845960564 5.594737162439474 0.3624700440504771 518.3310928584808 0.0
2330.32783117971 645.2046408778855 5.7014156880401865 0.3620916235671032 521.8894715714698 0.0
2387.3283999404903 665.8332336871384 5.81025674116367 0.3617184311367341 525.4730848306887 0.0
2445.8798416648483 687.0013571860619 5.921300823745915 0.3613492635254216 529.0818842067226 0.0
2505.986389834625 708.7096402348367 6.034520086759689 0.36098442795179153 532.7136335653959 0.0
2567.653188160936 730.9590733981855 6.149889264634317 0.36062413501930113 536.3662857953279 0.0
2630.989443309601 753.7881602510846 6.267576323125721 0.3602679711411447 540.0438741161018 0.0
2696.038744616962 777.2116708307492 6.387624080228807 0.35991394116497055 543.7463790946406 0.0
2762.808763227086 801.2311622448091 6.509998671715445 0.3595637283277213 547.4708712870953 0.0
2831.31477208942 825.8514223581883 6.6346976488313105 0.3592207671485834 551.216467733508 0.0
2901.6585540072 851.1082664616313 6.761873602960767 0.3588832129324313 554.9868210458568 0.0
2973.887245663312 877.0176574999592 6.891571666055333 0.3585498314065507 558.781937487146 0.0
3047.9770018333934 903.5701050392951 7.023709518261911 0.35822094980305597 562.5981454122898 0.0
3123.980099046704 930.7834370957665 7.15834168580891 0.35789656756406174 566.4358348263322 0.0
3202.0074467498966 958.6964202942345 7.295624210457541 0.35757639716300194 570.2982070044372 0.0
3282.1101551328115 987.32635277228 7.435604765165467 0.357260380180084 574.1852909518561 0.0
3364.245349698177 1016.6569575019147 7.578167076292881 0.35694886714990126 578.0926279967849 0.0
3448.4979001099405 1046.717614976938 7.723417785188079 0.3566417367422723 582.021979385741 0.0
3534.976835134658 1077.5462519048463 7.871502084942301 0.35633875379518365 585.9760320290837 0.0
3623.73749687181 1109.1615879501053 8.022470301342597 0.35603836042470416 589.9548350790684 0.0
3714.732608707857 1141.5455331339047 8.176187872476392 0.3557410206212781 593.9531011119569 0.0
3808.0859847326437 1174.7412114236122 8.332821351215282 0.3554490093757421 597.9740527294582 0.0
3903.8910382120666 1208.7810010594296 8.492488543577045 0.3551620351265994 602.019805726412 0.0
4002.207848335212 1243.6852119095174 8.65524267392641 0.35487909556633834 606.0904271513187 0.0
4102.942775077374 1279.4196226905606 8.820883810182732 0.35460055476509567 610.1797613821134 0.0
4206.268689567215 1316.04458300298 8.989651088261398 0.3543260383305924 614.2925763096104 0.0
4312.2837011227675 1353.5938308418404 9.161656770616588 0.3540554435005978 618.4303648993331 0.0
4421.052684661123 1392.089285891867 9.336956963881146 0.3537872343007429 622.5932101621104 0.0
4532.474906533566 1431.4939584514825 9.515328421424737 0.353519795368201 626.7740504200112 0.0
4646.815827695976 1471.9002451914719 9.697128610250179 0.3532572850536484 630.9792782513232 0.0
4764.110501024394 1513.3201596315178 9.882390666241658 0.3530018282863754 635.2097160524316 0.0
4884.429159328369 1555.777418976704 10.071173837248267 0.3527450599131505 639.4654611461091 0.0
