e[MeV/fm^3], P[MeV/fm^3], rho[fm^-3], v2[1], mu_q[MeV], mu_e[MeV]
70.21755168181654 0.006206087273093519 0.07407856508846018 0.017597877650005332 316.5185077347417 89.2771661002368
71.43578994790998 0.027644495228360377 0.07535555647246353 0.0175978776500052 316.5894798429086 89.8124074562691
72.67502861766434 0.04945246571785267 0.07665456106626496 0.017597877650005228 316.6616753923034 90.35687548400062
73.93562970314778 0.07163636938565421 0.07797595834102777 0.01759787765000538 316.7351154730202 90.91072923592193
75.21796145691394 0.09420268669514797 0.07932013430936638 0.01759787765000533 316.8098215387112 91.47413050632369
76.5223984795798 0.11715800982215896 0.0806874816381126 0.01759787765000522 316.8858154128541 92.04724387856187
77.84932182925448 0.14050904458066893 0.08207839976302188 0.017597877650005325 316.96311929512683 92.630236773136
79.19911913285509 0.16426261238173973 0.08349329500545777 0.017597877650005436 317.0417557678931 93.22327949659658
80.57218469934486 0.18842565222626206 0.08493258069109116 0.017597877650005332 317.12174780279906 93.82654529129692
81.96891963491473 0.21300522273190858 0.08639667727063695 0.017597877650005284 317.20311876748366 94.44021038599915
83.38973196016327 0.23800850419525207 0.0878860124426853 0.017597877650005242 317.2858924324053 95.06445404735784
84.83503672928572 0.26344280068923775 0.08940102127863886 0.01759787765000527 317.37009297778565 95.69945863228664
86.3052561513196 0.28931554219685157 0.0909421463498059 0.01759787765000538 317.45574500067295 96.34540964122833
87.80081971348744 0.3156342867816875 0.09250983785669148 0.017597877650005325 317.54287352212793 97.00249577234631
89.32216430665855 0.3424067227958098 0.09410455376051008 0.01759787765000531 317.63150399453286 97.67090897664707
90.86973435297011 0.3696406711256137 0.09572675991696154 0.017597877650005242 317.7216623090265 98.3508445140514
92.44398193566516 0.39734408747669764 0.0973769302123309 0.017597877650005228 317.8133748030682 99.04250101043964
94.04536693114535 0.4255250646977123 0.09905554670190979 0.01759787765000531 317.90666826813106 99.74608051566989
95.67435714332068 0.45419183514462985 0.10076309975082554 0.017892055534992374 318.00156995752883 100.46178856260559
97.33169327479138 0.4843410207312542 0.10250008817728433 0.018775745774211428 318.10048622561175 101.18570399772256
99.01814146064449 0.5170082040359527 0.10426701939828847 0.020025246310001077 318.2058447860128 101.91428658825437
100.73429318912723 0.5525181669555139 0.1060644095778678 0.02129999675038627 318.31828524079526 102.64750316311726
102.48063871606901 0.5907964457966746 0.10789278377786223 0.022549781036994038 318.43751805132047 103.38670836290729
104.25774423592242 0.6320103592916358 0.10975267611130558 0.023887708108000116 318.5638120290785 104.13237516689382
106.06623539667063 0.676492214395437 0.11164462989845152 0.025339806313660923 318.697770868173 104.88465247088972
107.90674784282342 0.7245234535359056 0.11356919782549418 0.026726883379044414 318.8398212612412 105.64215664334085
109.77980899298537 0.7757858510810522 0.11552694210601787 0.028008654354195556 318.9889635986241 106.39548846211913
111.68603200563659 0.8304189676497289 0.11751843464523576 0.02941848660514751 319.1453310518051 107.14305877628786
113.62612253642692 0.8889903796251314 0.1195442572070575 0.0310000273545607 319.31003653378224 107.89037199216354
115.60075117782822 0.9518318179215621 0.1216050015840337 0.03259969837934959 319.4836179784206 108.6399435927219
117.61049319554543 1.0189345897359714 0.12370126977023699 0.03419210470702347 319.6659546827271 109.3941654142798
119.65602415051524 1.0905481505064962 0.12583367413711752 0.03592218882239359 319.8573917239201 110.15411877028433
121.73815641876267 1.1672766767204164 0.12800283761239192 0.03778190969818496 320.0588603075681 110.92020174565145
123.85759205422588 1.2493614886182018 0.1302093938620144 0.0396255479711905 320.27062777688235 111.69348487044105
126.01496433860267 1.3368161240061027 0.13245398747528928 0.041461386350795104 320.4925793312381 112.47517112638602
128.2110155783424 1.429932568241939 0.13473727415316794 0.04346252473119688 320.7250671173629 113.26594974297757
130.4466887956552 1.52951487508801 0.1370599208997976 0.045590760196347446 320.969220213987 114.06610244230104
132.72270298041246 1.6357091714792171 0.13942260621736857 0.04767926014436641 321.22510082538804 114.87651716166351
135.03976205186157 1.748593799706529 0.14182602030432198 0.04977029748745049 321.49267975935425 115.69799950047124
137.3986835249372 1.8685229353243933 0.14427086525697244 0.05206400529136951 321.77234677231564 116.53110782929468
139.80057355445675 1.9965668028217445 0.14675785527460983 0.05448295484632937 322.0654823434704 117.37614392238619
142.24614757531495 2.1327305435734982 0.1492877168681315 0.05683638595368079 322.37191652081754 118.23384218287305
144.73619757503982 2.2771938463603174 0.15186118907227755 0.059208520968313694 322.69174413674494 119.10477732777403
147.27162660197732 2.430390920319256 0.15447902366151722 0.0618292055008095 323.0254080857181 119.98940983187808
149.85374556019306 2.5937403356179334 0.15714198536966398 0.06457197399617759 323.3745941649684 120.88804723823948
152.4832372283129 2.7670401807274834 0.15985085211327107 0.06721882453614525 323.7388555425644 121.80124809303793
155.16100474728017 2.9506159576823916 0.1626064152188807 0.06990575565196155 324.1184454344821 122.72942464238325
157.8880490867394 3.1450019316856195 0.16540947965419006 0.07289593855263288 324.5138717435153 123.67293532678868
160.66593902373984 3.3520690822739376 0.16826086426320178 0.07600220080988451 324.92718571735776 124.63202719571277
163.4952840125817 3.5713158744339593 0.17116140200542868 0.07897532922519734 325.3576004812541 125.6070903482084
166.37712853614147 3.8032695276021222 0.17411194019922174 0.08202037368123771 325.8055622707938 126.59840218489457
169.31260061973967 4.048620249866702 0.17711334076929286 0.08542133552471287 326.2716886567447 127.60620334892384
172.303551331823 4.309718566586897 0.18016648049850292 0.0889270452590527 326.7583492276527 128.63058410314463
175.35050383107742 4.585737524453315 0.1832722512839939 0.09226446929582366 327.26444376458807 129.67181814230588
178.45466868853612 4.877441713994387 0.18643156039773165 0.09572802473872655 327.7906096931573 130.73004905217363
181.61738960046912 5.18586172672753 0.18964533075154347 0.09956214286511778 328.3377308078966 131.80536363429957
184.84067158507494 5.5134958934314255 0.19291450116672415 0.10348029397253222 328.90808973361146 132.89762523650757
188.12508868773136 5.859506730761704 0.19624002664828616 0.10723125726635341 329.50063467169656 134.00704679883177
191.47199658539387 6.224818666062787 0.19962287866394354 0.11114950466071183 330.116072530961 1183.8074667660178
194.88301649425165 6.610906017540677 0.2030640454278977 0.11544544815415358 330.7555888744374 1175.18029821602
198.3602890613904 7.020342674256472 0.2065645321895225 0.11979382346787826 331.42129567013734 1166.199816653716
201.9044613376726 7.452308308070558 0.2101253615270204 0.12397650239191993 332.11220306471756 1156.8793753447706
205.5170562570145 7.907903230714149 0.21374757364614289 0.1283699626450635 332.8290718474655 1147.2087111309697
209.2000509218192 8.389163756231573 0.21743222668406043 0.1331367755092301 333.57341318817043 1137.1674381119176
212.95568685700158 8.89862029273525 0.22118039701847075 0.1379109881763032 334.34705688852574 1126.7308719964572
216.7847142491265 9.435507109353031 0.224993179582034 0.1425209986125906 335.149090910276 1115.911316313394
220.6888478651131 10.001107919216421 0.22887168818223044 0.1473848211915132 335.9803024130194 1104.6981521651844
224.67051841244387 10.598148441577159 0.23281705582673115 0.15260238957125072 336.84253077264475 1093.0665661033806
228.73201076449018 11.228941923303356 0.23683043505437643 0.1577674592771845 337.73719306437926 1080.9974415769245
232.87421847820065 11.892825884399452 0.2409129982718618 0.16276966708385543 338.6634726746745 1068.5017948214356
237.09907459677976 12.591262929879372 0.2450659380962259 0.1680647442175771 339.6221443059857 1055.569174988041
241.4095830266287 13.327795359770137 0.24929046770324403 0.17367604335428166 340.61534675451054 1042.17072940475
245.80798450797525 14.104290408314728 0.25358782118182577 0.17916063314688135 341.6439533067965 1028.2946773089366
250.29536865638684 14.920249387540146 0.2579592538945237 0.18448376658109078 342.70726027181 1013.9505115950601
254.87391430339358 15.777295306389933 0.26240604284425445 0.19013115054428797 343.8059831368225 999.1285802356963
259.54734193097937 16.679902122692877 0.2669294870473437 0.19603884001981875 344.9424917462097 983.7969136853029
264.3177234138911 17.62921742422393 0.2715309079130002 0.20173455319505607 346.11701155796936 967.9524704826789
269.1864120746621 18.624978432827973 0.2762116496293318 0.20727097595137622 347.328966229596 951.6030255721039
274.15586021544175 19.66893704821644 0.28097307955601647 0.2131521958171756 348.57896372915343 934.7403773759125
279.2306731431928 20.76658998854091 0.28581658862374093 0.21922189252154145 349.86949367684684 917.3309405551922
284.412585417037 21.918069468750467 0.29074359174052566 0.2249894143101847 351.2000887836266 899.381018907233
289.7032992122702 23.123430865940225 0.29575552820505524 0.2306016920899494 352.5703075794808 880.8965679267476
295.1055673860831 24.38451504681977 0.300853862127132 0.23656661428271297 353.98060905644974 861.8713957443103
300.6250734626658 25.70790002720107 0.3060400828553784 0.24263779812409947 355.4334521442952 842.2723310395567
306.2629978571605 27.092417065261266 0.3113157054123131 0.24831998114039466 356.9277197298895 822.1144438311662
312.0214966673664 28.538529352055203 0.3166822709369256 0.2538541104542591 358.4631014669581 801.4019207355501
317.9036494111742 30.048126085066315 0.3221413471348811 0.2597359108053192 360.03988091456415 780.1309364996779
323.9164360611114 31.628890065835524 0.32769452873648597 0.2656390932017807 361.66030746350987 758.2711465142462
330.06021547034334 33.278110584552124 0.3333434379625472 0.2710787578055842 363.3227610243933 735.8444060210786
336.3377248306841 34.996751726455315 0.3390897249982634 0.27638164452897485 365.0270429856405 712.8533943192136
342.75239563416363 36.78671837750218 0.3449350684752844 0.2820159576097043 366.7732551876847 689.2967375663852
349.3127469329602 38.65679115669434 0.35088117596208035 0.28759239956345484 368.5632457970251 665.1495037275332
356.0179982424811 40.60254779373834 0.3569297844627652 0.2926507180164095 370.39513942729127 640.4369920377422
362.87161894726887 42.62554485678177 0.3630826609245175 0.2976058496429581 372.26881070045994 615.1608938647942
369.8776838050342 44.72802159039085 0.3693416027537498 0.3028324596598386 374.18425749083553 589.3212378846313
377.04571989459646 46.91882012835673 0.3757084383411748 0.30793255850782497 376.1425479489815 562.9036145906925
384.37423920137996 49.19272886637786 0.3821850275959231 0.3125215544923945 378.1420680020603 535.9297980604708
391.8673537720589 51.551645656583794 0.38877326248886857 0.31704011341831206 380.18264288681297 508.4021458757653
399.53022857376277 53.998550771733285 0.3954750676053199 0.32173794710659864 382.2641765278808 480.3219541071484
407.3724291860139 56.54109433027862 0.4022924007072386 0.3262560177033471 384.38684656688184 451.6868263433381
415.3926093188036 59.174483419942426 0.40922725330514964 0.33032373141907057 386.54960838431725 422.51085465340964
423.5953061809909 61.90062597545923 0.41628165123991057 0.3343330679737635 388.75217980057613 392.79784568138314
431.9870027817532 64.72329723895402 0.4234576552745099 0.33844367777413575 390.99427615507426 362.55163953996976
440.5770251421459 67.64881573370899 0.43075736169606577 0.34234063934627335 393.27543963785325 331.7784121521388
449.3643086509324 70.67296114055506 0.4381829029282034 0.34585294088734964 395.59516773161965 300.48494254931626
458.3538473549931 73.79767867736162 0.4457364481539887 0.3493186232354084 397.95311125729603 268.67594120807695
467.5536981515388 77.027587172091 0.45342020394959914 0.35284678491275834 400.3486982341418 236.35912423185854
477.1378222442507 80.42648882854286 0.46137350228354923 0.00884560510247942 402.78113502043635 203.5451979629805
810.5890442484259 84.92073071881956 1.4527538309862826 0.018110312847165688 405.2503908250171 170.73464731875566
1102.7490436103446 91.39763828577246 2.3271799201746926 0.027832534975663042 407.7560864453435 138.233670950817
1352.2642683555182 99.54914158263053 3.0843277790653847 0.0373578269708357 410.2972643916196 106.2077133854175
1586.657256574593 109.33789443738746 3.8192715227490477 0.04345406932292473 412.8731075256692 74.81332552289642
1843.3195730356963 120.96642882230522 4.660778560483272 0.11585553162500506 415.48395412590855 42.610914401233174
1934.9435950745276 133.88910212937947 4.947754340233059 0.3905500858133837 418.12942481666244 11.478218657527893
1963.4601059952026 147.24070466354297 5.015779040914019 0.46808337507733055 420.80808286670407 0.0
1992.7202085398658 160.93318956337794 5.085089810741285 0.46728769402434356 423.519388423576 0.0
2022.8307872870002 174.98273752402815 5.155964604159927 0.46588633229166376 426.263926491692 0.0
2053.8457717850965 189.40944668773597 5.2284739314077315 0.46452811144856954 429.04133904117657 0.0
2085.699803155227 204.186100143196 5.302499482434931 0.4631454147690697 431.84962364736657 0.0
2118.5139702861243 219.35878187492696 5.378210484891046 0.4617795956467732 434.68879187402194 0.0
2152.207169618431 234.89677160349493 5.4554940879859934 0.4604180535906446 437.55954505588323 0.0
2186.9267730654215 250.85572300029312 5.534551106295641 0.459054346561508 440.4615602408136 0.0
2222.5383747061564 267.18153624524524 5.61515988592271 0.4577119129624587 443.39219174670734 0.0
2259.2040849193877 283.9363501519136 5.69755105298062 0.45635386590460003 446.35224304333093 0.0
2296.844699474729 301.09031451059263 5.781616280118415 0.4550347447705416 449.3424024244641 0.0
2335.5770041978167 318.6871415461258 5.867509301969071 0.4536872966373342 452.3623894048231 0.0
2375.3227781641053 336.69352443118356 5.955080443681882 0.4523915582322613 455.4088468583903 0.0
2416.154359571341 355.1382318580186 6.044443206733529 0.45106084833790927 458.48357591050296 0.0
2458.1343524673016 374.04503300028665 6.135682703155029 0.44977106973328507 461.5871295346198 0.0
2501.2231518194385 393.39835326777273 6.228737103972336 0.44847426481658825 464.7192724425523 0.0
2545.4840006285845 413.21749747826243 6.323639113006497 0.44716222325295885 467.87587687666405 0.0
2590.9231809611333 433.50734130243774 6.420423998737684 0.44592620008737427 471.0599151315838 0.0
2637.5588265743436 454.2746169113187 6.5191136510491905 0.444642083579887 474.2716930347005 0.0
2685.5172747619813 475.5660666769996 6.619865885328382 0.44335515210108767 477.5110201023164 0.0
2734.6708911981327 497.3282965174801 6.722448027975113 0.4421453358968561 480.77294680996494 0.0
2785.112050872805 519.5998832918898 6.827024920120185 0.44090549494418685 484.06176219100337 0.0
2836.937815806043 542.4165756245561 6.933714864533354 0.43965154559498565 487.37742484726095 0.0
2890.1457064860992 565.7763944018174 7.042500647866478 0.4384446680812495 490.71942709513365 0.0
2944.6660897726542 589.6479095797513 7.1532282208739355 0.43726484199360005 494.0830324628434 0.0
3000.6108987575644 614.0772628622133 7.2660900916185875 0.43605622524750753 497.47289006040484 0.0
3058.0809387972904 639.1012663865306 7.381204361297887 0.43484642980224564 500.8888825459008 0.0
3117.048585035934 664.7080136364962 7.498514850015641 0.4336820386651423 504.3299917615031 0.0
3177.4685939000497 690.8758756172507 7.617906427740105 0.43253498813603475 507.7922253856572 0.0
3239.459333275752 717.6531494496487 7.7395762903370615 0.43139548313311415 511.2801267663313 0.0
3303.061709294408 745.054348020534 7.863565627953528 0.4302395010170539 514.7936148893198 0.0
3368.342084444199 773.101624923652 7.989925964403209 0.42908972488931685 518.3310928584808 0.0
3435.2357129202232 801.7670466352781 8.118527950871963 0.42797728902367727 521.8894715714698 0.0
3503.8583413531187 831.0975956368696 8.249560736071674 0.42687718290730636 525.4730848306887 0.0
3574.2542796098023 861.1089577743508 8.383067889807224 0.4257859707862215 529.0818842067226 0.0
3646.424718931938 891.7984314963975 8.5190109305106 0.42470464949348585 532.7136335653959 0.0
3720.3720853856635 923.1639574336009 8.65735487729649 0.4236339354947889 536.3662857953279 0.0
3796.2234487769024 955.2562273396592 8.798296320183345 0.42257269102316375 540.0438741161018 0.0
3874.02694037824 988.0922407956134 8.941881439798381 0.4215150187240324 543.7463790946406 0.0
3953.7865251304383 1021.669359540891 9.088062652847649 0.42046604970638235 547.4708712870953 0.0
4035.517389932962 1055.9914444303756 9.236833998265531 0.41943615782034005 551.216467733508 0.0
4119.337659050456 1091.105357380884 9.388374028755461 0.41841993265315125 554.9868210458568 0.0
4205.299340827587 1127.029431669686 9.542731521089006 0.41741376730560464 558.781937487146 0.0
4293.370003340219 1163.746743627913 9.699803761243858 0.4164187375885886 562.5981454122898 0.0
4383.607863577512 1201.2782974468387 9.8596511152534 0.41543493152167965 566.4358348263322 0.0
4476.140514116002 1239.67375280535 10.022454167887496 0.414461564048759 570.2982070044372 0.0
4571.024301772291 1278.9529314261722 10.18826452623363 0.4134985413807817 574.1852909518561 0.0
4668.204316544503 1319.0896568973183 10.356939842473304 0.4125470171572845 578.0926279967849 0.0
4767.77696368446 1360.1203921305687 10.528601929106294 0.41160670664704657 582.021979385741 0.0
4869.866882488765 1402.0929680382205 10.703417720009682 0.4106769725886741 585.9760320290837 0.0
4974.535038302628 1445.028788973159 10.88144176363069 0.4097530880902953 589.9548350790684 0.0
5081.720270499753 1488.8982252026153 11.062508844012559 0.40883655359614846 593.9531011119569 0.0
5191.5643541258 1533.7558857485321 11.246810980491027 0.40793445385945937 597.9740527294582 0.0
5304.173571933427 1579.6421200025043 11.434483377617386 0.40704597594336356 602.019805726412 0.0
5419.614054772117 1626.580098421387 11.62558378221033 0.40616810897518896 606.0904271513187 0.0
5537.77162207253 1674.5198295050234 11.819873102685216 0.4053020593948258 610.1797613821134 0.0
5658.844826219938 1723.5383134539913 12.01762756860474 0.40444673948837906 614.2925763096104 0.0
5782.944134594438 1773.6764806033843 12.218974057002919 0.40360190095319926 618.4303648993331 0.0
5910.140907231708 1824.959289041964 12.423973488183746 0.4027627945070922 622.5932101621104 0.0
6040.311552530567 1877.3320089034828 12.632358182558788 0.40192439711436556 626.7740504200112 0.0
6173.759776042707 1930.911392331537 12.844538296664492 0.401099828049281 630.9792782513232 0.0
6310.5248655378255 1985.7118386045834 13.060552713999224 0.4002958181665308 635.2097160524316 0.0
6450.684018898659 2041.7602975985162 13.280465801878835 0.39948725200711266 639.4654611461091 0.0
