e[MeV/fm^3], P[MeV/fm^3], rho[fm^-3], v2[1], mu_q[MeV], mu_e[MeV]
70.21755168181654 0.006206087273093519 0.07407856508846018 0.017597877650005332 316.5185077347417 89.2771661002368
71.43578994790998 0.027644495228360377 0.07535555647246353 0.0175978776500052 316.5894798429086 89.8124074562691
72.67502861766434 0.04945246571785267 0.07665456106626496 0.017597877650005228 316.6616753923034 90.35687548400062
73.93562970314778 0.07163636938565421 0.07797595834102777 0.01759787765000538 316.7351154730202 90.91072923592193
75.21796145691394 0.09420268669514797 0.07932013430936638 0.01759787765000533 316.8098215387112 91.47413050632369
76.5223984795798 0.11715800982215896 0.0806874816381126 0.01759787765000522 316.8858154128541 92.04724387856187
77.84932182925448 0.14050904458066893 0.08207839976302188 0.017597877650005325 316.96311929512683 92.630236773136
79.19911913285509 0.16426261238173973 0.08349329500545777 0.017597877650005436 317.0417557678931 93.22327949659658
80.57218469934486 0.18842565222626206 0.08493258069109116 0.017597877650005332 317.12174780279906 93.82654529129692
81.96891963491473 0.21300522273190858 0.08639667727063695 0.017597877650005284 317.20311876748366 94.44021038599915
83.38973196016327 0.23800850419525207 0.0878860124426853 0.017597877650005242 317.2858924324053 95.06445404735784
84.83503672928572 0.26344280068923775 0.08940102127863886 0.01759787765000527 317.37009297778565 95.69945863228664
86.3052561513196 0.28931554219685157 0.0909421463498059 0.01759787765000538 317.45574500067295 96.34540964122833
87.80081971348744 0.3156342867816875 0.09250983785669148 0.017597877650005325 317.54287352212793 97.00249577234631
89.32216430665855 0.3424067227958098 0.09410455376051008 0.01759787765000531 317.63150399453286 97.67090897664707
90.86973435297011 0.3696406711256137 0.09572675991696154 0.017597877650005242 317.7216623090265 98.3508445140514
92.44398193566516 0.39734408747669764 0.0973769302123309 0.017597877650005228 317.8133748030682 99.04250101043964
94.04536693114535 0.4255250646977123 0.09905554670190979 0.01759787765000531 317.90666826813106 99.74608051566989
95.67435714332068 0.45419183514462985 0.10076309975082554 0.017892055534992374 318.00156995752883 100.46178856260559
97.33169327479138 0.4843410207312542 0.10250008817728433 0.018775745774211428 318.10048622561175 101.18570399772256
99.01814146064449 0.5170082040359527 0.10426701939828847 0.020025246310001077 318.2058447860128 101.91428658825437
100.73429318912723 0.5525181669555139 0.1060644095778678 0.02129999675038627 318.31828524079526 102.64750316311726
102.48063871606901 0.5907964457966746 0.10789278377786223 0.022549781036994038 318.43751805132047 103.38670836290729
104.25774423592242 0.6320103592916358 0.10975267611130558 0.023887708108000116 318.5638120290785 104.13237516689382
106.06623539667063 0.676492214395437 0.11164462989845152 0.025339806313660923 318.697770868173 104.88465247088972
107.90674784282342 0.7245234535359056 0.11356919782549418 0.026726883379044414 318.8398212612412 105.64215664334085
109.77980899298537 0.7757858510810522 0.11552694210601787 0.028008654354195556 318.9889635986241 106.39548846211913
111.68603200563659 0.8304189676497289 0.11751843464523576 0.02941848660514751 319.1453310518051 107.14305877628786
113.62612253642692 0.8889903796251314 0.1195442572070575 0.0310000273545607 319.31003653378224 107.89037199216354
115.60075117782822 0.9518318179215621 0.1216050015840337 0.03259969837934959 319.4836179784206 108.6399435927219
117.61049319554543 1.0189345897359714 0.12370126977023699 0.03419210470702347 319.6659546827271 109.3941654142798
119.65602415051524 1.0905481505064962 0.12583367413711752 0.03592218882239359 319.8573917239201 110.15411877028433
121.73815641876267 1.1672766767204164 0.12800283761239192 0.03778190969818496 320.0588603075681 110.92020174565145
123.85759205422588 1.2493614886182018 0.1302093938620144 0.0396255479711905 320.27062777688235 111.69348487044105
126.01496433860267 1.3368161240061027 0.13245398747528928 0.041461386350795104 320.4925793312381 112.47517112638602
128.2110155783424 1.429932568241939 0.13473727415316794 0.04346252473119688 320.7250671173629 113.26594974297757
130.4466887956552 1.52951487508801 0.1370599208997976 0.045590760196347446 320.969220213987 114.06610244230104
132.72270298041246 1.6357091714792171 0.13942260621736857 0.04767926014436641 321.22510082538804 114.87651716166351
135.03976205186157 1.748593799706529 0.14182602030432198 0.04977029748745049 321.49267975935425 115.69799950047124
137.3986835249372 1.8685229353243933 0.14427086525697244 0.05206400529136951 321.77234677231564 116.53110782929468
139.80057355445675 1.9965668028217445 0.14675785527460983 0.05448295484632937 322.0654823434704 117.37614392238619
142.24614757531495 2.1327305435734982 0.1492877168681315 0.05683638595368079 322.37191652081754 118.23384218287305
144.73619757503982 2.2771938463603174 0.15186118907227755 0.059208520968313694 322.69174413674494 119.10477732777403
147.27162660197732 2.430390920319256 0.15447902366151722 0.0618292055008095 323.0254080857181 119.98940983187808
149.85374556019306 2.5937403356179334 0.15714198536966398 0.06457197399617759 323.3745941649684 120.88804723823948
152.4832372283129 2.7670401807274834 0.15985085211327107 0.06721882453614525 323.7388555425644 121.80124809303793
155.16100474728017 2.9506159576823916 0.1626064152188807 0.06990575565196155 324.1184454344821 122.72942464238325
157.8880490867394 3.1450019316856195 0.16540947965419006 0.07289593855263288 324.5138717435153 123.67293532678868
160.66593902373984 3.3520690822739376 0.16826086426320178 0.07600220080988451 324.92718571735776 124.63202719571277
163.4952840125817 3.5713158744339593 0.17116140200542868 0.07897532922519734 325.3576004812541 125.6070903482084
166.37712853614147 3.8032695276021222 0.17411194019922174 0.08202037368123771 325.8055622707938 126.59840218489457
169.31260061973967 4.048620249866702 0.17711334076929286 0.08542133552471287 326.2716886567447 127.60620334892384
172.303551331823 4.309718566586897 0.18016648049850292 0.0889270452590527 326.7583492276527 128.63058410314463
175.35050383107742 4.585737524453315 0.1832722512839939 0.09226446929582366 327.26444376458807 129.67181814230588
178.45466868853612 4.877441713994387 0.18643156039773165 0.09572802473872655 327.7906096931573 130.73004905217363
181.61738960046912 5.18586172672753 0.18964533075154347 0.09956214286511778 328.3377308078966 131.80536363429957
184.84067158507494 5.5134958934314255 0.19291450116672415 0.10348029397253222 328.90808973361146 132.89762523650757
188.12508868773136 5.859506730761704 0.19624002664828616 0.10723125726635341 329.50063467169656 134.00704679883177
191.47199658539387 6.224818666062787 0.19962287866394354 0.11114950466071183 330.116072530961 135.1336328978941
194.88301649425165 6.610906017540677 0.2030640454278977 0.11544544815415358 330.7555888744374 136.2772622126371
198.3602890613904 7.020342674256472 0.2065645321895225 0.11979382346787826 331.42129567013734 137.43754067535426
201.9044613376726 7.452308308070558 0.2101253615270204 0.12397650239191993 332.11220306471756 138.61467605675114
205.5170562570145 7.907903230714149 0.21374757364614289 0.1283699626450635 332.8290718474655 139.80852765902867
209.2000509218192 8.389163756231573 0.21743222668406043 0.1331367755092301 333.57341318817043 141.01869117551004
212.95568685700158 8.89862029273525 0.22118039701847075 0.1379109881763032 334.34705688852574 142.2445530860434
216.7847142491265 9.435507109353031 0.224993179582034 0.1425209986125906 335.149090910276 143.4863497980139
220.6888478651131 10.001107919216421 0.22887168818223044 0.1473848211915132 335.9803024130194 144.74379875149575
224.67051841244387 10.598148441577159 0.23281705582673115 0.15260238957125072 336.84253077264475 146.0161250814302
228.73201076449018 11.228941923303356 0.23683043505437643 0.1577674592771845 337.73719306437926 147.30260528428684
232.87421847820065 11.892825884399452 0.2409129982718618 0.16276966708385543 338.6634726746745 148.60351662363965
237.09907459677976 12.591262929879372 0.2450659380962259 0.1680647442175771 339.6221443059857 149.91845083271977
241.4095830266287 13.327795359770137 0.24929046770324403 0.17367604335428166 340.61534675451054 151.2461733723472
245.80798450797525 14.104290408314728 0.25358782118182577 0.17916063314688135 341.6439533067965 152.5860269646372
250.29536865638684 14.920249387540146 0.2579592538945237 0.18448376658109078 342.70726027181 153.9383214680799
254.87391430339358 15.777295306389933 0.26240604284425445 0.19013115054428797 343.8059831368225 155.30255316107613
259.54734193097937 16.679902122692877 0.2669294870473437 0.19603884001981875 344.9424917462097 156.67695034502995
264.3177234138911 17.62921742422393 0.2715309079130002 0.20173455319505607 346.11701155796936 158.06114921462316
269.1864120746621 18.624978432827973 0.2762116496293318 0.20727097595137622 347.328966229596 159.45546560193614
274.15586021544175 19.66893704821644 0.28097307955601647 0.2131521958171756 348.57896372915343 160.8593430130801
279.2306731431928 20.76658998854091 0.28581658862374093 0.2194363373766608 349.86949367684684 162.27041922778363
282.9895363953455 21.59749619234124 0.2893864610916411 0.0030972959389740998 351.2000887836266 153.35808735430675
775.222665113743 24.499271166495696 1.873692768211407 0.008692950612328353 352.5703075794808 121.1183275887411
1152.9137198173084 28.593339012868444 3.1482007958134632 0.018706990200218224 353.98060905644974 88.95528172176036
1380.19197659747 33.92100759853239 3.923330461939818 0.05986111938295524 355.4334521442952 56.37717130967246
1465.1451510688041 40.162886449598865 4.216870205579405 0.6264058114431252 356.9277197298895 25.453307794947833
1474.5846260075018 46.65577415698176 4.243784264943997 0.7174154950642864 358.4631014669581 0.0
1483.5915829317962 53.371648271983574 4.2688454310515125 0.7449747514899361 360.03988091456415 0.0
1492.9172855641714 60.31271633603157 4.294683941847491 0.7436137140809387 361.66030746350987 0.0
1502.5592093600067 67.47579762675552 4.321282045544918 0.7422034680785652 363.3227610243933 0.0
1512.5235115066544 74.86406209127254 4.348645232066714 0.7407431311529442 365.0270429856405 0.0
1522.8181854686886 82.48200453936101 4.376783881332404 0.7392363591466684 366.7732551876847 0.0
1533.4618022476457 90.34187395598057 4.405736821446138 0.7376853890130946 368.5632457970251 0.0
1544.4509436359917 98.4396312249267 4.435482802335235 0.7360956230503564 370.39513942729127 0.0
1555.7925473064392 106.77887072599009 4.466028787979904 0.734470275606613 372.26881070045994 0.0
1567.494382510972 115.36376044328301 4.4973838209435755 0.7328121616281145 374.18425749083553 0.0
1579.5709713922408 124.20336158055024 4.529574685313358 0.7311233681486158 376.1425479489815 0.0
1592.0203611138656 133.29464177898427 4.5625841181126585 0.7294080337596247 378.1420680020603 0.0
1604.8494411727231 142.64102437691412 4.596418440946976 0.7276684133984466 380.18264288681297 0.0
1618.0656659146969 152.2463094262209 4.631085327793335 0.7259067408283411 382.2641765278808 0.0
1631.6783355010293 162.1155970043283 4.66659710271397 0.7241248959791351 384.38684656688184 0.0
1645.6889421410824 172.2482987394264 4.702945640769396 0.7223255348001025 386.54960838431725 0.0
1660.1038408675436 182.64733456500696 4.740135503824148 0.7205104562454414 388.75217980057613 0.0
1674.929405903085 193.31561021652408 4.778171216024322 0.7186501900100115 390.99427615507426 0.0
1690.176350996459 204.25814943091405 4.817060738726475 0.7166745133490613 393.27543963785325 0.0
1705.8626971077924 215.4838087520977 4.856820061370348 0.7147048966592884 395.59516773161965 0.0
1721.9785557035545 226.9865331028325 4.897433930228841 0.7128203232610106 397.95311125729603 0.0
1738.5283922690444 238.76776070078927 4.938901812402529 0.7109287868740735 400.3486982341418 0.0
1755.5150811019328 250.8277868174639 4.981219228816666 0.7088789742753372 402.78113502043635 0.0
1772.9777047595549 263.1871016994693 5.024430629556377 0.706792264358965 405.2503908250171 0.0
1790.897256706047 275.83474056613676 5.068509874579024 0.7048501933381504 407.7560864453435 0.0
1809.272000221507 288.7682662197238 5.113445479434759 0.7028073085648803 410.2972643916196 0.0
1828.1299250965478 302.0010865222387 5.159261370306725 0.7006760662918028 412.8731075256692 0.0
1847.4758676137242 315.5357781730282 5.20596556485929 0.6986537223381877 415.48395412590855 0.0
1867.2990405800213 329.36580703201264 5.253541482346433 0.6965393468722123 418.12942481666244 0.0
1887.6378861587748 343.50902330124336 5.302018709043615 0.6943740078449485 420.80808286670407 0.0
1908.468372630819 357.9517204968341 5.351363964860425 0.6923052316303568 423.519388423576 0.0
1929.8128316214106 372.70587749955666 5.401607369000716 0.6901261083260781 426.263926491692 0.0
1951.6981646473735 387.7845077320005 5.452775109621502 0.6879973284452401 429.04133904117657 0.0
1974.0853692708317 403.16426405763616 5.504803186761983 0.6858083113302627 431.84962364736657 0.0
1997.0369905456644 418.87690211428617 5.557761163458465 0.6836305754623933 434.68879187402194 0.0
2020.5114580132313 434.90153448403004 5.611608113484419 0.6814365697662303 437.55954505588323 0.0
2044.5839228923662 451.27566183674213 5.666423989824279 0.6792238594877436 440.4615602408136 0.0
2069.178365629196 467.95622759782987 5.722097409923853 0.6770224923380148 443.39219174670734 0.0
2094.379507124042 484.9869152722105 5.778729244353143 0.6747796473814116 446.35224304333093 0.0
2120.147088882114 502.34772685390175 5.836280323723172 0.6725788977053 449.3424024244641 0.0
2146.5397872827994 520.0673418395181 5.894811599812598 0.6703134478625383 452.3623894048231 0.0
2173.5092855071716 538.1158772786135 5.954235758500602 0.668114715860554 455.4088468583903 0.0
2201.0957121730203 556.5155783728902 6.014613273355159 0.665836889059582 458.48357591050296 0.0
2229.3312713405535 575.2827080869864 6.075983345874932 0.6636110119575598 461.5871295346198 0.0
2258.194381511267 594.4055491673926 6.138318779842399 0.661351605249326 464.7192724425523 0.0
2287.707047481548 613.8880657569531 6.201601195768724 0.6590475686220021 467.87587687666405 0.0
2317.8780673950755 633.7384816385382 6.265867973939957 0.6568577363520038 471.0599151315838 0.0
2348.7164250880805 653.9611006219457 6.331130456848649 0.6545619128681395 474.2716930347005 0.0
2380.284371255287 674.5854996121118 6.397451964342521 0.652243007195942 477.5110201023164 0.0
2412.5052026899098 695.5654459987987 6.464698839245534 0.6500435122899084 480.77294680996494 0.0
2445.43427651473 716.9342171041419 6.532971801243785 0.6477697437647603 484.06176219100337 0.0
2479.119052837278 738.7141039225233 6.602319097644173 0.6454512849051923 487.37742484726095 0.0
2513.5559303690247 760.9017100601546 6.6727297495189255 0.6432007788424077 490.71942709513365 0.0
2548.6979158643358 783.4657198671711 6.7441040190610915 0.6409821366032116 494.0830324628434 0.0
2584.6107382068867 806.4448595531237 6.81655675845361 0.6386897904689235 497.47289006040484 0.0
2621.3429809358777 829.8614433818468 6.890135546896808 0.6363767715703332 500.8888825459008 0.0
2658.8772563154344 853.7045349333563 6.964809475286511 0.6341316002834407 504.3299917615031 0.0
2697.1803274986078 877.9505871119769 7.040500517119771 0.6319016332628511 507.7922253856572 0.0
2736.3205890227714 902.6392349767925 7.117324634068532 0.6296683182058942 511.2801267663313 0.0
2776.3168014282664 927.7784045511715 7.1952981110958865 0.6273837394575601 514.7936148893198 0.0
2817.196289955794 953.3772717329801 7.274429794986274 0.6250934369613734 518.3310928584808 0.0
2858.91824619487 979.4101363843531 7.354642781615794 0.6228591553726694 521.8894715714698 0.0
2901.5490008498814 1005.9151058641065 7.436048114426916 0.6206319084021192 525.4730848306887 0.0
2945.1087975286314 1032.9006735398118 7.518663306325634 0.6184051076324568 529.0818842067226 0.0
2989.5911874746876 1060.3587903708544 7.602455328971445 0.6161810356423505 532.7136335653959 0.0
3034.9907448629356 1088.282187151131 7.687394047624401 0.6139614456522242 536.3662857953279 0.0
3081.378304416243 1116.710349431411 7.7735912444350195 0.6117442637103032 540.0438741161018 0.0
3128.7757677803934 1145.6523992221328 7.8610657275024876 0.6095171897354703 543.7463790946406 0.0
3177.175897019685 1175.0983849572954 7.949775389722615 0.6072914068414335 547.4708712870953 0.0
3226.582235988588 1205.0472001826631 8.039710979920187 0.6050892122618254 551.216467733508 0.0
3277.0600473011928 1235.534857925003 8.130973942728374 0.6028996035838059 554.9868210458568 0.0
3328.6329166948435 1266.5711202284647 8.22358434999591 0.6007152658102655 558.781937487146 0.0
3381.273839744743 1298.1353450087636 8.317471743146085 0.5985388700719394 562.5981454122898 0.0
3435.0102974763313 1330.2397377317443 8.412663908580114 0.5963709660302268 566.4358348263322 0.0
3489.910638225499 1362.9206584027384 8.509259647369811 0.5942101742801107 570.2982070044372 0.0
3546.0003233806515 1396.188574772681 8.607280368485414 0.5920566275078443 574.1852909518561 0.0
3603.239177816839 1430.0151022316008 8.706633278343848 0.5899132692819737 578.0926279967849 0.0
3661.676472956973 1464.4249075180696 8.807381954553207 0.5877798367983829 582.021979385741 0.0
3721.3774539076553 1499.4517084678673 8.909615630736798 0.5856552522691061 585.9760320290837 0.0
3782.369574568719 1535.1067190932597 9.013357078578347 0.5835288824564504 589.9548350790684 0.0
3844.607026243681 1571.357068627608 9.11849773063962 0.5814045050051533 593.9531011119569 0.0
3908.1644767186995 1608.241646285614 9.225141246422321 0.5792988653085587 597.9740527294582 0.0
3973.0965824157915 1645.788044806302 9.333359433217826 0.5772105126072233 602.019805726412 0.0
4039.4330168779843 1684.0083023709094 9.443176513588718 0.5751328657318293 606.0904271513187 0.0
4107.100181157445 1722.8551632485148 9.554446902636679 0.5730691727524153 610.1797613821134 0.0
4176.203814482576 1762.384474094416 9.667320737218226 0.5710172421509121 614.2925763096104 0.0
4246.798469046642 1802.6222434313358 9.781861606755518 0.5689768551239673 618.4303648993331 0.0
4318.916064877149 1843.5813431433135 9.89809515957633 0.5669367253390973 622.5932101621104 0.0
4392.475553095551 1885.2089847295606 10.015857093121754 0.5648847077462325 626.7740504200112 0.0
4467.6363735840005 1927.5878698287984 10.13536504310849 0.5628534148448328 630.9792782513232 0.0
4544.417572258171 1970.7268282583152 10.256641308698535 0.5608597103698667 635.2097160524316 0.0
4622.853568346985 2014.6396522658117 10.379713063554943 0.5588512947093207 639.4654611461091 0.0
