e[MeV/fm^3], P[MeV/fm^3], rho[fm^-3], v2[1], mu_q[MeV], mu_e[MeV]
70.21755168181654 0.006206087273093519 0.07407856508846018 0.017597877650005332 316.5185077347417 89.2771661002368
71.43578994790998 0.027644495228360377 0.07535555647246353 0.0175978776500052 316.5894798429086 89.8124074562691
72.67502861766434 0.04945246571785267 0.07665456106626496 0.017597877650005228 316.6616753923034 90.35687548400062
73.93562970314778 0.07163636938565421 0.07797595834102777 0.01759787765000538 316.7351154730202 90.91072923592193
75.21796145691394 0.09420268669514797 0.07932013430936638 0.01759787765000533 316.8098215387112 91.47413050632369
76.5223984795798 0.11715800982215896 0.0806874816381126 0.01759787765000522 316.8858154128541 92.04724387856187
77.84932182925448 0.14050904458066893 0.08207839976302188 0.017597877650005325 316.96311929512683 92.630236773136
79.19911913285509 0.16426261238173973 0.08349329500545777 0.017597877650005436 317.0417557678931 93.22327949659658
80.57218469934486 0.18842565222626206 0.08493258069109116 0.017597877650005332 317.12174780279906 93.82654529129692
81.96891963491473 0.21300522273190858 0.08639667727063695 0.017597877650005284 317.20311876748366 94.44021038599915
83.38973196016327 0.23800850419525207 0.0878860124426853 0.017597877650005242 317.2858924324053 95.06445404735784
84.83503672928572 0.26344280068923775 0.08940102127863886 0.01759787765000527 317.37009297778565 95.69945863228664
86.3052561513196 0.28931554219685157 0.0909421463498059 0.01759787765000538 317.45574500067295 96.34540964122833
87.80081971348744 0.3156342867816875 0.09250983785669148 0.017597877650005325 317.54287352212793 97.00249577234631
89.32216430665855 0.3424067227958098 0.09410455376051008 0.01759787765000531 317.63150399453286 97.67090897664707
90.86973435297011 0.3696406711256137 0.09572675991696154 0.017597877650005242 317.7216623090265 98.3508445140514
92.44398193566516 0.39734408747669764 0.0973769302123309 0.017597877650005228 317.8133748030682 99.04250101043964
94.04536693114535 0.4255250646977123 0.09905554670190979 0.01759787765000531 317.90666826813106 99.74608051566989
95.67435714332068 0.45419183514462985 0.10076309975082554 0.017892055534992374 318.00156995752883 100.46178856260559
97.33169327479138 0.4843410207312542 0.10250008817728433 0.018775745774211428 318.10048622561175 101.18570399772256
99.01814146064449 0.5170082040359527 0.10426701939828847 0.020025246310001077 318.2058447860128 101.91428658825437
100.73429318912723 0.5525181669555139 0.1060644095778678 0.02129999675038627 318.31828524079526 102.64750316311726
102.48063871606901 0.5907964457966746 0.10789278377786223 0.022549781036994038 318.43751805132047 103.38670836290729
104.25774423592242 0.6320103592916358 0.10975267611130558 0.023887708108000116 318.5638120290785 104.13237516689382
106.06623539667063 0.676492214395437 0.11164462989845152 0.025339806313660923 318.697770868173 104.88465247088972
107.90674784282342 0.7245234535359056 0.11356919782549418 0.026726883379044414 318.8398212612412 105.64215664334085
109.77980899298537 0.7757858510810522 0.11552694210601787 0.028008654354195556 318.9889635986241 106.39548846211913
111.68603200563659 0.8304189676497289 0.11751843464523576 0.02941848660514751 319.1453310518051 107.14305877628786
113.62612253642692 0.8889903796251314 0.1195442572070575 0.0310000273545607 319.31003653378224 107.89037199216354
115.60075117782822 0.9518318179215621 0.1216050015840337 0.03259969837934959 319.4836179784206 108.6399435927219
117.61049319554543 1.0189345897359714 0.12370126977023699 0.03419210470702347 319.6659546827271 109.3941654142798
119.65602415051524 1.0905481505064962 0.12583367413711752 0.03592218882239359 319.8573917239201 110.15411877028433
121.73815641876267 1.1672766767204164 0.12800283761239192 0.03778190969818496 320.0588603075681 110.92020174565145
123.85759205422588 1.2493614886182018 0.1302093938620144 0.0396255479711905 320.27062777688235 111.69348487044105
126.01496433860267 1.3368161240061027 0.13245398747528928 0.041461386350795104 320.4925793312381 112.47517112638602
128.2110155783424 1.429932568241939 0.13473727415316794 0.04346252473119688 320.7250671173629 113.26594974297757
130.4466887956552 1.52951487508801 0.1370599208997976 0.045590760196347446 320.969220213987 114.06610244230104
132.72270298041246 1.6357091714792171 0.13942260621736857 0.04767926014436641 321.22510082538804 114.87651716166351
135.03976205186157 1.748593799706529 0.14182602030432198 0.04977029748745049 321.49267975935425 115.69799950047124
137.3986835249372 1.8685229353243933 0.14427086525697244 0.05206400529136951 321.77234677231564 116.53110782929468
139.80057355445675 1.9965668028217445 0.14675785527460983 0.05448295484632937 322.0654823434704 117.37614392238619
142.24614757531495 2.1327305435734982 0.1492877168681315 0.05683638595368079 322.37191652081754 118.23384218287305
144.73619757503982 2.2771938463603174 0.15186118907227755 0.059208520968313694 322.69174413674494 119.10477732777403
147.27162660197732 2.430390920319256 0.15447902366151722 0.0618292055008095 323.0254080857181 119.98940983187808
149.85374556019306 2.5937403356179334 0.15714198536966398 0.06457197399617759 323.3745941649684 120.88804723823948
152.4832372283129 2.7670401807274834 0.15985085211327107 0.06721882453614525 323.7388555425644 121.80124809303793
155.16100474728017 2.9506159576823916 0.1626064152188807 0.06990575565196155 324.1184454344821 122.72942464238325
157.8880490867394 3.1450019316856195 0.16540947965419006 0.07289593855263288 324.5138717435153 123.67293532678868
160.66593902373984 3.3520690822739376 0.16826086426320178 0.07600220080988451 324.92718571735776 124.63202719571277
163.4952840125817 3.5713158744339593 0.17116140200542868 0.07897532922519734 325.3576004812541 125.6070903482084
166.37712853614147 3.8032695276021222 0.17411194019922174 0.08202037368123771 325.8055622707938 126.59840218489457
169.31260061973967 4.048620249866702 0.17711334076929286 0.08542133552471287 326.2716886567447 127.60620334892384
172.303551331823 4.309718566586897 0.18016648049850292 0.0889270452590527 326.7583492276527 128.63058410314463
175.35050383107742 4.585737524453315 0.1832722512839939 0.09226446929582366 327.26444376458807 129.67181814230588
178.45466868853612 4.877441713994387 0.18643156039773165 0.09572802473872655 327.7906096931573 130.73004905217363
181.61738960046912 5.18586172672753 0.18964533075154347 0.09956214286511778 328.3377308078966 131.80536363429957
184.84067158507494 5.5134958934314255 0.19291450116672415 0.10348029397253222 328.90808973361146 132.89762523650757
188.12508868773136 5.859506730761704 0.19624002664828616 0.10723125726635341 329.50063467169656 134.00704679883177
191.47199658539387 6.224818666062787 0.19962287866394354 0.11114950466071183 330.116072530961 135.1336328978941
194.88301649425165 6.610906017540677 0.2030640454278977 0.11544544815415358 330.7555888744374 136.2772622126371
198.3602890613904 7.020342674256472 0.2065645321895225 0.11979382346787826 331.42129567013734 137.43754067535426
201.9044613376726 7.452308308070558 0.2101253615270204 0.12397650239191993 332.11220306471756 138.61467605675114
205.5170562570145 7.907903230714149 0.21374757364614289 0.1283699626450635 332.8290718474655 139.80852765902867
209.2000509218192 8.389163756231573 0.21743222668406043 0.1331367755092301 333.57341318817043 141.01869117551004
212.95568685700158 8.89862029273525 0.22118039701847075 0.1379109881763032 334.34705688852574 142.2445530860434
216.7847142491265 9.435507109353031 0.224993179582034 0.1425209986125906 335.149090910276 143.4863497980139
220.6888478651131 10.001107919216421 0.22887168818223044 0.1473848211915132 335.9803024130194 144.74379875149575
224.67051841244387 10.598148441577159 0.23281705582673115 0.15260238957125072 336.84253077264475 146.0161250814302
228.73201076449018 11.228941923303356 0.23683043505437643 0.1577674592771845 337.73719306437926 147.30260528428684
232.87421847820065 11.892825884399452 0.2409129982718618 0.16276966708385543 338.6634726746745 148.60351662363965
237.09907459677976 12.591262929879372 0.2450659380962259 0.1680647442175771 339.6221443059857 149.91845083271977
241.4095830266287 13.327795359770137 0.24929046770324403 0.17367604335428166 340.61534675451054 151.2461733723472
245.80798450797525 14.104290408314728 0.25358782118182577 0.17916063314688135 341.6439533067965 152.5860269646372
250.29536865638684 14.920249387540146 0.2579592538945237 0.18448376658109078 342.70726027181 153.9383214680799
254.87391430339358 15.777295306389933 0.26240604284425445 0.19013115054428797 343.8059831368225 155.30255316107613
259.54734193097937 16.679902122692877 0.2669294870473437 0.19603884001981875 344.9424917462097 156.67695034502995
264.3177234138911 17.62921742422393 0.2715309079130002 0.20173455319505607 346.11701155796936 158.06114921462316
269.1864120746621 18.624978432827973 0.2762116496293318 0.20727097595137622 347.328966229596 159.45546560193614
274.15586021544175 19.66893704821644 0.28097307955601647 0.2128797473539592 348.57896372915343 160.8593430130801
278.1022876096477 20.51963902806109 0.28471094750662135 0.0012997842513065919 349.86949367684684 138.38577432800554
1174.9752598410198 25.211569898792575 3.1583075875514734 0.009163081764285805 351.2000887836266 97.24599300573031
1680.0752377955737 30.958245685776003 4.833523322171949 0.130087699353292 352.5703075794808 54.13546319912469
1729.2297365565164 37.920496986999986 4.991248182977106 0.4381134403296838 353.98060905644974 19.860235469713654
1743.181564594863 45.2070247354721 5.031508752035274 0.5635093145939449 355.4334521442952 2.9843882716967687
1755.7372354971199 52.74831032396251 5.066770682069562 0.6000604354964023 356.9277197298895 0.0
1768.7491820159119 60.548613178845464 5.1031676382932005 0.5986326482494493 358.4631014669581 0.0
1782.2704376739111 68.63107927877013 5.140787616864799 0.5970955957577915 360.03988091456415 0.0
1796.2965218464813 76.99632509908614 5.179647352275172 0.5957207696328828 361.66030746350987 0.0
1810.826385731099 85.64174745357592 5.219727165920547 0.5943017775655841 363.3227610243933 0.0
1825.8722726982649 94.57250192419436 5.261042833408097 0.5928382729122359 365.0270429856405 0.0
1841.4492764479644 103.79538046024607 5.303617570798637 0.5913344789787667 366.7732551876847 0.0
1857.5886501032587 113.32663238572918 5.347517901734846 0.5897931551730364 368.5632457970251 0.0
1874.288409259463 123.16280300734141 5.392719383872816 0.588220162122675 370.39513942729127 0.0
1891.5623020463306 133.30970771161893 5.4392402759750516 0.5866191240900198 372.26881070045994 0.0
1909.4254231512964 143.7738961259679 5.487102061302694 0.5849932227382517 374.18425749083553 0.0
1927.903304503373 154.56794079376465 5.536353492107466 0.5833448780405277 376.1425479489815 0.0
1946.9963433442038 165.68968006157067 5.586975966548891 0.5816784685929273 378.1420680020603 0.0
1966.7185012749367 177.14485134082318 5.6389869034927464 0.5799964803920181 380.18264288681297 0.0
1987.0846818310351 188.9396874481171 5.692405840555442 0.5783013377556143 382.2641765278808 0.0
2008.1127206393617 201.0820578107195 5.74725955686876 0.5765950842308225 384.38684656688184 0.0
2029.8084505186705 213.57286014934914 5.803543244078299 0.5748804668851468 386.54960838431725 0.0
2052.1852526866846 226.4173253766556 5.861271633875526 0.5731593722136852 388.75217980057613 0.0
2075.256597475077 239.62069430498985 5.9204594028573565 0.5714043736821859 390.99427615507426 0.0
2099.0448298841875 253.191811485559 5.981131780631367 0.569550367789935 393.27543963785325 0.0
2123.5866764267357 267.1456590300565 6.0433336629375045 0.5677110724401349 395.59516773161965 0.0
2148.864510789696 281.4737072124907 6.107033696587348 0.5659607568013518 397.95311125729603 0.0
2174.889031960575 296.1794729073519 6.172238539706292 0.5642128802485233 400.3486982341418 0.0
2201.668458511807 311.26505651890113 6.2389485580354105 0.5623295285777683 402.78113502043635 0.0
2229.279731246318 326.7632833308399 6.307269638020135 0.5604214121261881 405.2503908250171 0.0
2257.6875469300703 342.65793216423265 6.377145014072318 0.5586556147829977 407.7560864453435 0.0
2286.8917122848643 358.94714925617444 6.448560700821076 0.5568086483112937 410.2972643916196 0.0
2316.9500064180584 375.6541152954141 6.521584782295909 0.5548916775028312 412.8731075256692 0.0
2347.871865416776 392.7829043972241 6.596231596137356 0.5530824357751731 415.48395412590855 0.0
2379.6379102688916 410.3242298232382 6.672467058788949 0.551202409843075 418.12942481666244 0.0
2412.3286900453204 428.3097827754617 6.7503812650111925 0.5492863793767526 420.80808286670407 0.0
2445.899234180389 446.7190932156764 6.829902733894378 0.547466725902396 423.519388423576 0.0
2480.392936669165 465.57098947730043 6.9110948228704 0.5455608635336553 426.263926491692 0.0
2515.8650640457704 484.8877853719439 6.994024624302828 0.5437084797650469 429.04133904117657 0.0
2552.244957053431 504.63597162198414 7.0785680298389595 0.5418159898915764 431.84962364736657 0.0
2589.6579386359163 524.8678147701844 7.16488992237943 0.539941891691675 434.68879187402194 0.0
2628.0202538956814 545.5486352022803 7.252883488665955 0.5380666822456233 437.55954505588323 0.0
2667.483870265717 566.7410646264078 7.342742895922308 0.5361839292014636 440.4615602408136 0.0
2707.9058892363782 588.3804228231892 7.43424052686942 0.5343236585588667 443.39219174670734 0.0
2749.4546572509907 610.5376825305158 7.527604575674748 0.5324370735504704 446.35224304333093 0.0
2792.0485754901 633.1793175622081 7.6227325775580494 0.5305980789835436 449.3424024244641 0.0
2835.807566725511 656.3540755021854 7.719773030416803 0.528714541645952 452.3623894048231 0.0
2880.6461241841384 680.020194696774 7.818565274733473 0.5268974770288519 455.4088468583903 0.0
2926.6407048491046 704.2116960752873 7.919227841991071 0.5250257466419246 458.48357591050296 0.0
2973.856025546646 728.9554712110969 8.021846082189848 0.5232064720504699 461.5871295346198 0.0
3022.2504496258825 754.2332896319746 8.126358729754914 0.5213712946402893 464.7192724425523 0.0
3071.8833006904015 780.0616757375536 8.232779351722524 0.5195095354251542 467.87587687666405 0.0
3122.76427355843 806.4489568304368 8.341155467373707 0.517750332878335 471.0599151315838 0.0
3174.9119158838357 833.4025756668607 8.451509752216186 0.5159170095451246 474.2716930347005 0.0
3228.4552540919312 860.9740320430809 8.563995076795972 0.5140747826966097 477.5110201023164 0.0
3283.255993859813 889.0973397464159 8.678362884919895 0.512337699491149 480.77294680996494 0.0
3339.4141350228215 917.8201015321832 8.794792735500769 0.5105522691690974 484.06176219100337 0.0
3397.02859525424 947.1815151378206 8.913399673407932 0.5087415579332619 487.37742484726095 0.0
3456.0954738148316 977.1781671687671 9.034164682778394 0.5069938257011195 490.71942709513365 0.0
3516.5363624347624 1007.7688568279214 9.156916732859685 0.5052804468817609 494.0830324628434 0.0
3578.471657865607 1039.00990246799 9.281863925752702 0.5035202250807638 497.47289006040484 0.0
3642.003686110233 1070.9413000426016 9.40912077330936 0.5017535823541017 500.8888825459008 0.0
3707.1020628391047 1103.5479747142967 9.53862804414838 0.5000484437583186 504.3299917615031 0.0
3773.7142883429547 1136.8004253428162 9.670255912197769 0.4983641234489573 507.7922253856572 0.0
3841.9670407193744 1170.757083437797 9.80421657691264 0.49668639837755535 511.2801267663313 0.0
3911.9012942924014 1205.4332162023884 9.940549798572068 0.4949797311033439 514.7936148893198 0.0
3983.581733789245 1240.8504476610738 10.079298686608254 0.4932778214596052 518.3310928584808 0.0
4056.9371139674918 1276.9733864707111 10.220323567211013 0.4916267237457337 521.8894715714698 0.0
4132.090991780003 1313.8586155639823 10.363827873384366 0.48998965516483217 525.4730848306887 0.0
4209.087706107195 1351.5225939643162 10.50985382752535 0.48836162539091 529.0818842067226 0.0
4287.924427618925 1389.9586995982754 10.658354040611687 0.4867442141461442 532.7136335653959 0.0
4368.599826431092 1429.1612327262517 10.809285370762717 0.4851385919368685 536.3662857953279 0.0
4451.248405319275 1469.190305934381 10.96285716714683 0.48354315150135996 540.0438741161018 0.0
4535.91827655029 1510.063709197697 11.11911432353965 0.4819490638826416 543.7463790946406 0.0
4622.608203788782 1551.7737730997358 11.277997513998441 0.4803641810253314 547.4708712870953 0.0
4711.331431792264 1594.3227104786731 11.439497019915438 0.4788042723334218 551.216467733508 0.0
4802.212657839179 1637.7658109667611 11.603802935628474 0.47726130170298475 554.9868210458568 0.0
4895.303823644703 1682.1222167684793 11.77096279738806 0.4757299245219002 558.781937487146 0.0
4990.565467561582 1727.3675694845465 11.940860293054893 0.47421188128506486 562.5981454122898 0.0
5088.056352856033 1773.524387338817 12.113555947077028 0.4727074129547404 566.4358348263322 0.0
5187.909938259152 1820.6502240087545 12.289239833362895 0.47121542297547414 570.2982070044372 0.0
5290.182445573172 1868.7657258868846 12.467962345635835 0.4697358682166879 574.1852909518561 0.0
5394.810251938574 1917.8352545023797 12.649565081130238 0.46827062545754217 578.0926279967849 0.0
5501.892831654594 1967.8999012109562 12.834174488959508 0.4668193625655963 582.021979385741 0.0
5611.5596795952215 2019.0143508485498 13.021965068003496 0.4653811988348302 585.9760320290837 0.0
5723.871571514022 2071.2008468171884 13.212990166122205 0.4639488820300315 589.9548350790684 0.0
5838.757032389143 2124.4186226378647 13.40706543492311 0.4625248297913611 593.9531011119569 0.0
5956.363620669733 2178.730338652345 13.604392180093516 0.46112014013954195 597.9740527294582 0.0
6076.801196233692 2234.1816367415286 13.805111465524497 0.4597336620246253 602.019805726412 0.0
6200.13562302935 2290.796537507983 14.009279833571465 0.458360820483378 606.0904271513187 0.0
6326.240319910226 2348.510977129107 14.216637133832764 0.45700360312159205 610.1797613821134 0.0
6455.322610973211 2407.4138901751467 14.427473539861666 0.45566040664791174 614.2925763096104 0.0
6587.495384130563 2467.5504362300253 14.641919244955218 0.45433093652362544 618.4303648993331 0.0
6722.829653954336 2528.9464344642697 14.860033953162473 0.4530077749740329 622.5932101621104 0.0
6861.18761045219 2591.5311429445665 15.081525654751283 0.4516830336283775 626.7740504200112 0.0
7002.885054524327 2655.4382728915202 15.306822167249253 0.4503775591671495 630.9792782513232 0.0
7147.961930208554 2720.683527555758 15.535965006711058 0.4491020810341446 635.2097160524316 0.0
7296.494997176103 2787.294725162054 15.769017297982314 0.44781870524233724 639.4654611461091 0.0
