e[MeV/fm^3], P[MeV/fm^3], rho[fm^-3], v2[1], mu_q[MeV], mu_e[MeV]
70.21755168181654 0.006206087273093519 0.07407856508846018 0.017597877650005332 316.5185077347417 89.2771661002368
71.43578994790998 0.027644495228360377 0.07535555647246353 0.0175978776500052 316.5894798429086 89.8124074562691
72.67502861766434 0.04945246571785267 0.07665456106626496 0.017597877650005228 316.6616753923034 90.35687548400062
73.93562970314778 0.07163636938565421 0.07797595834102777 0.01759787765000538 316.7351154730202 90.91072923592193
75.21796145691394 0.09420268669514797 0.07932013430936638 0.01759787765000533 316.8098215387112 91.47413050632369
76.5223984795798 0.11715800982215896 0.0806874816381126 0.01759787765000522 316.8858154128541 92.04724387856187
77.84932182925448 0.14050904458066893 0.08207839976302188 0.017597877650005325 316.96311929512683 92.630236773136
79.19911913285509 0.16426261238173973 0.08349329500545777 0.017597877650005436 317.0417557678931 93.22327949659658
80.57218469934486 0.18842565222626206 0.08493258069109116 0.017597877650005332 317.12174780279906 93.82654529129692
81.96891963491473 0.21300522273190858 0.08639667727063695 0.017597877650005284 317.20311876748366 94.44021038599915
83.38973196016327 0.23800850419525207 0.0878860124426853 0.017597877650005242 317.2858924324053 95.06445404735784
84.83503672928572 0.26344280068923775 0.08940102127863886 0.01759787765000527 317.37009297778565 95.69945863228664
86.3052561513196 0.28931554219685157 0.0909421463498059 0.01759787765000538 317.45574500067295 96.34540964122833
87.80081971348744 0.3156342867816875 0.09250983785669148 0.017597877650005325 317.54287352212793 97.00249577234631
89.32216430665855 0.3424067227958098 0.09410455376051008 0.01759787765000531 317.63150399453286 97.67090897664707
90.86973435297011 0.3696406711256137 0.09572675991696154 0.017597877650005242 317.7216623090265 98.3508445140514
92.44398193566516 0.39734408747669764 0.0973769302123309 0.017597877650005228 317.8133748030682 99.04250101043964
94.04536693114535 0.4255250646977123 0.09905554670190979 0.01759787765000531 317.90666826813106 99.74608051566989
95.67435714332068 0.45419183514462985 0.10076309975082554 0.017892055534992374 318.00156995752883 100.46178856260559
97.33169327479138 0.4843410207312542 0.10250008817728433 0.018775745774211428 318.10048622561175 101.18570399772256
99.01814146064449 0.5170082040359527 0.10426701939828847 0.020025246310001077 318.2058447860128 101.91428658825437
100.73429318912723 0.5525181669555139 0.1060644095778678 0.02129999675038627 318.31828524079526 102.64750316311726
102.48063871606901 0.5907964457966746 0.10789278377786223 0.022549781036994038 318.43751805132047 103.38670836290729
104.25774423592242 0.6320103592916358 0.10975267611130558 0.023887708108000116 318.5638120290785 104.13237516689382
106.06623539667063 0.676492214395437 0.11164462989845152 0.025339806313660923 318.697770868173 104.88465247088972
107.90674784282342 0.7245234535359056 0.11356919782549418 0.026726883379044414 318.8398212612412 105.64215664334085
109.77980899298537 0.7757858510810522 0.11552694210601787 0.028008654354195556 318.9889635986241 106.39548846211913
111.68603200563659 0.8304189676497289 0.11751843464523576 0.02941848660514751 319.1453310518051 107.14305877628786
113.62612253642692 0.8889903796251314 0.1195442572070575 0.0310000273545607 319.31003653378224 107.89037199216354
115.60075117782822 0.9518318179215621 0.1216050015840337 0.03259969837934959 319.4836179784206 108.6399435927219
117.61049319554543 1.0189345897359714 0.12370126977023699 0.03419210470702347 319.6659546827271 109.3941654142798
119.65602415051524 1.0905481505064962 0.12583367413711752 0.03592218882239359 319.8573917239201 110.15411877028433
121.73815641876267 1.1672766767204164 0.12800283761239192 0.03778190969818496 320.0588603075681 110.92020174565145
123.85759205422588 1.2493614886182018 0.1302093938620144 0.0396255479711905 320.27062777688235 111.69348487044105
126.01496433860267 1.3368161240061027 0.13245398747528928 0.041461386350795104 320.4925793312381 112.47517112638602
128.2110155783424 1.429932568241939 0.13473727415316794 0.04346252473119688 320.7250671173629 113.26594974297757
130.4466887956552 1.52951487508801 0.1370599208997976 0.045590760196347446 320.969220213987 114.06610244230104
132.72270298041246 1.6357091714792171 0.13942260621736857 0.04767926014436641 321.22510082538804 114.87651716166351
135.03976205186157 1.748593799706529 0.14182602030432198 0.04977029748745049 321.49267975935425 115.69799950047124
137.3986835249372 1.8685229353243933 0.14427086525697244 0.05206400529136951 321.77234677231564 116.53110782929468
139.80057355445675 1.9965668028217445 0.14675785527460983 0.05448295484632937 322.0654823434704 117.37614392238619
142.24614757531495 2.1327305435734982 0.1492877168681315 0.05683638595368079 322.37191652081754 118.23384218287305
144.73619757503982 2.2771938463603174 0.15186118907227755 0.059208520968313694 322.69174413674494 119.10477732777403
147.27162660197732 2.430390920319256 0.15447902366151722 0.0618292055008095 323.0254080857181 119.98940983187808
149.85374556019306 2.5937403356179334 0.15714198536966398 0.06457197399617759 323.3745941649684 120.88804723823948
152.4832372283129 2.7670401807274834 0.15985085211327107 0.06721882453614525 323.7388555425644 121.80124809303793
155.16100474728017 2.9506159576823916 0.1626064152188807 0.06990575565196155 324.1184454344821 122.72942464238325
157.8880490867394 3.1450019316856195 0.16540947965419006 0.07289593855263288 324.5138717435153 123.67293532678868
160.66593902373984 3.3520690822739376 0.16826086426320178 0.07600220080988451 324.92718571735776 124.63202719571277
163.4952840125817 3.5713158744339593 0.17116140200542868 0.07897839931111106 325.3576004812541 125.6070903482084
185.08617650971243 5.539027901051036 0.19239676785809418 0.00449607645592515 325.8055622707938 129.45986292354607
464.3002986856995 6.7943959419283 1.1614090884608297 0.004496076455925152 326.2716886567447 97.57846189198153
981.334356294439 9.119020595254403 2.849950779833786 0.0044960764559251526 326.7583492276527 64.29259502195428
1519.0152937024468 11.536475198734314 4.605921525105186 0.006720661517097885 327.26444376458807 29.67751340839854
1853.7824120917292 14.250002721385352 5.698822210875444 0.6824970218606605 327.7906096931573 7.330691802927914
1858.30568877919 17.378342504057567 5.712592751523547 0.6916092025377085 328.3377308078966 4.994672888889156
1863.0210820672019 20.639551895631094 5.726948166730484 0.6916092025376863 328.90808973361146 2.5594365173307247
1867.9198963013966 24.027616901522762 5.741861983682361 0.6912502456315894 329.50063467169656 0.029473506408946193
1873.056203386454 27.57615734023251 5.757405391033973 0.6908698351070948 330.116072530961 0.0
1878.3940326112204 31.26388006180818 5.77355755042282 0.6908656246373392 330.7555888744374 0.0
1883.9504647891629 35.10262804917748 5.790371197767518 0.6899398997794886 331.42129567013734 0.0
1889.7809971507334 39.1196812351611 5.807914175244919 0.6889468390163525 332.11220306471756 0.0
1895.8321736703776 43.288484081494246 5.8261186115752945 0.6886596672266823 332.8290718474655 0.0
1902.1349267870326 47.627198363426274 5.845049274598939 0.687704730233488 333.57341318817043 0.0
1908.7390396389255 52.16417767540293 5.864802500665296 0.6869930017437778 334.34705688852574 0.0
1915.5855029246266 56.8676500393752 5.885280608788281 0.6862188853136026 335.149090910276 0.0
1922.7467212589531 61.776014826678846 5.906598843463361 0.6852436480876078 335.9803024130194 0.0
1930.1898483416333 66.8750898039782 5.92873384638105 0.6845349273725025 336.84253077264475 0.0
1937.962462333776 72.19135955761213 5.9517730057079605 0.6835753687243411 337.73719306437926 0.0
1946.0482299864484 77.71523387088058 5.975681945052201 0.6827042674059758 338.6634726746745 0.0
1954.46230945923 83.4555701753332 6.000492615566192 0.6817542524466482 339.6221443059857 0.0
1963.2292775110668 89.42814336648333 6.026268734026532 0.6807531555209501 340.61534675451054 0.0
1972.3637666747913 95.6416642835572 6.05304273032592 0.6798050309081347 341.6439533067965 0.0
1981.8542720207806 102.08920244073155 6.080788734981169 0.6787017668653244 342.70726027181 0.0
1991.7394278246702 108.79142358308552 6.109571458655377 0.6777520119491562 343.8059831368225 0.0
2001.9961613971404 115.7402141834039 6.139389357331793 0.6765722478921692 344.9424917462097 0.0
2012.7133285901855 122.98092269721376 6.170372327989215 0.6752707640423363 346.11701155796936 0.0
2023.8182089605632 130.47573097609822 6.202408563780089 0.6743429289285015 347.328966229596 0.0
2035.3505377239842 138.24566943304703 6.235562836964842 0.6730027092176432 348.57896372915343 0.0
2047.3652833180993 146.32223699183038 6.269946380196434 0.6717450551695778 349.86949367684684 0.0
2059.824530700123 154.6855220057445 6.305498841285532 0.6706663920896432 351.2000887836266 0.0
2072.7461443533 163.34377664560157 6.342239526411523 0.6692206236349607 352.5703075794808 0.0
2086.182074433635 172.3236534139088 6.380247738669178 0.667769753458594 353.98060905644974 0.0
2100.120907296353 181.62322287632483 6.419540146757982 0.666552157834424 355.4334521442952 0.0
2114.565500144985 191.24205089330383 6.460105480078155 0.6652590474228948 356.9277197298895 0.0
2129.5264008353943 201.18480717573115 6.501954115968158 0.6637051572768149 358.4631014669581 0.0
2145.0567188105847 211.47821153968218 6.545163951725171 0.6620986154104402 360.03988091456415 0.0
2161.153609085925 222.12433541572628 6.589761042490044 0.660658749311593 361.66030746350987 0.0
2177.814485650136 233.11909167465507 6.635719273777196 0.6591701035284059 363.3227610243933 0.0
2195.0518990703504 244.4682013819147 6.683052968355091 0.6576320762015122 365.0270429856405 0.0
2212.8816265061732 256.17944321841594 6.731784944553947 0.6560488595998866 366.7732551876847 0.0
2231.337864257584 268.27256132875675 6.78198745919135 0.654423128274928 368.5632457970251 0.0
2250.4167469875047 280.7422698764314 6.8336286801632085 0.6527608497328643 370.39513942729127 0.0
2270.132385619363 293.5950364686832 6.8867256457660115 0.6510656624536679 372.26881070045994 0.0
2290.5003881992075 306.8382361650812 6.94129904528904 0.6493407602674042 374.18425749083553 0.0
2311.5481997283655 320.48683008528724 6.997400567924154 0.6475885522673481 376.1425479489815 0.0
2333.2745986327964 334.5371279846179 7.055005162466295 0.645813550934947 378.1420680020603 0.0
2355.693796873357 348.9954177333843 7.114128839535128 0.6440182827867078 380.18264288681297 0.0
2378.8210409092912 363.86859167016655 7.174789998569621 0.6422052284926325 382.2641765278808 0.0
2402.674863714238 379.16558106695584 7.237015224858839 0.6403764809530372 384.38684656688184 0.0
2427.2601538391255 394.88651767630284 7.300795271590447 0.6385349061609853 386.54960838431725 0.0
2452.590344645796 411.03698186067874 7.366143085633321 0.6366824668103686 388.75217980057613 0.0
2478.678941429365 427.6225496190442 7.433071549746292 0.6347894215265741 390.99427615507426 0.0
2505.5484532528326 444.65272192956803 7.501602949640576 0.6327850367813577 393.27543963785325 0.0
2533.236187897426 462.1438555629947 7.571778321446351 0.6307923984551387 395.59516773161965 0.0
2561.7233015788993 480.08587088393887 7.64356591352782 0.6288917475292903 397.95311125729603 0.0
2591.0200689372973 498.48212193337747 7.716969613764555 0.6269896340591936 400.3486982341418 0.0
2621.1339618423194 517.3341846465663 7.791986268424293 0.6249351126391236 402.78113502043635 0.0
2652.1441445822734 536.6787194673835 7.868717759698518 0.6228493533837671 405.2503908250171 0.0
2684.0134804166933 556.4969744944959 7.947107719118832 0.6209145085482035 407.7560864453435 0.0
2716.740530273482 576.7859093484675 8.027138442138058 0.6188858654184966 410.2972643916196 0.0
2750.383714025395 597.5706082269016 8.108871915588017 0.6167757547886854 412.8731075256692 0.0
2784.952772648421 618.8556472313606 8.192323446114916 0.6147796914592245 415.48395412590855 0.0
2820.427052724808 640.6300962608892 8.277458518410592 0.6127001754594232 418.12942481666244 0.0
2856.8875590485914 662.9278850359814 8.36435758859033 0.6105765102647052 420.80808286670407 0.0
2894.287121585908 685.7254483835214 8.452949401408054 0.6085545841948754 423.519388423576 0.0
2932.6706067505593 709.0439863441892 8.543297582073201 0.6064318190077689 426.263926491692 0.0
2972.0939910234665 732.9077267093345 8.635465188640367 0.6043642190824094 429.04133904117657 0.0
3012.4822190888244 757.2774033007248 8.729323801478323 0.6022461187763568 431.84962364736657 0.0
3053.9633917066612 782.2107309612904 8.825032327880873 0.600144573857115 434.68879187402194 0.0
3096.4520701625092 807.6695546376516 8.9224909545551 0.5980357688902842 437.55954505588323 0.0
3140.1030669339552 833.7226162008682 9.021885324622314 0.5959145369640311 440.4615602408136 0.0
3184.7667562677393 860.2956449474582 9.122984451475327 0.5938126394829837 443.39219174670734 0.0
3230.6157484132195 887.467438760969 9.226011736626239 0.5916769228591807 446.35224304333093 0.0
3277.5669873214842 915.2012589197907 9.330871499514563 0.5895893794433693 449.3424024244641 0.0
3325.7421650362667 943.550224220109 9.437705569535082 0.5874468120863323 452.3623894048231 0.0
3375.0496085550576 972.4648021396588 9.546344328243395 0.5853747006131815 455.4088468583903 0.0
3425.5689605829675 1001.9837546111077 9.65690992931859 0.5832352307096009 458.48357591050296 0.0
3477.36630023736 1032.1367201063201 9.769487043792154 0.5811511332491932 461.5871295346198 0.0
3530.398460735585 1062.9030824649242 9.884015605086404 0.5790434141406706 464.7192724425523 0.0
3584.720326387542 1094.2964849719838 10.000490447358567 0.5769006194950528 467.87587687666405 0.0
3640.3448030603745 1126.3285219886802 10.118970481840611 0.5748710271021888 471.0599151315838 0.0
3697.2906424271137 1159.0072474965652 10.239478904715082 0.5727507294566738 474.2716930347005 0.0
3755.688107601313 1192.3882333063243 10.362162153689148 0.5706156445862565 477.5110201023164 0.0
3815.390023254825 1226.3939601096085 10.48675889315479 0.5685975702984116 480.77294680996494 0.0
3876.502729335956 1261.0802949874628 10.613461063457546 0.5665184624570614 484.06176219100337 0.0
3939.125891319406 1296.4893681380443 10.742379317982742 0.5644052827386297 487.37742484726095 0.0
4003.254269079662 1332.6164088448297 10.873493091711751 0.5623609202842985 490.71942709513365 0.0
4068.801766008151 1369.4111597824558 11.006616681082452 0.5603521980704631 494.0830324628434 0.0
4135.895716254763 1406.939228874911 11.141971116433238 0.5582837912384608 497.47289006040484 0.0
4204.6388316739785 1445.2432782431267 11.279666201499555 0.5562033638190087 500.8888825459008 0.0
4274.998370930311 1484.3053151275942 11.41964037127114 0.5541907768641732 504.3299917615031 0.0
4346.915345228853 1524.088502119399 11.561750907618265 0.5521983662822247 507.7922253856572 0.0
4420.52315395773 1564.6604966046038 11.706222320898286 0.5502094287861059 511.2801267663313 0.0
4495.862400386231 1606.0371356605012 11.85309255768316 0.5481816390151568 514.7936148893198 0.0
4572.995449340061 1648.2392967640958 12.002396093264219 0.5461552116600341 518.3310928584808 0.0
4651.845501322376 1691.224718454208 12.153984712638396 0.5441849206687106 521.8894715714698 0.0
4732.542382189556 1735.0587103719472 12.308073554376668 0.5422271714695412 525.4730848306887 0.0
4815.1299857467275 1779.758307048264 12.464703080919323 0.5402760867670757 529.0818842067226 0.0
4899.601606808287 1825.313146459849 12.6238177550309 0.5383336219859025 532.7136335653959 0.0
4985.952280677828 1871.7140514012708 12.785366966417984 0.5364012522470212 536.3662857953279 0.0
5074.322295673082 1919.0296487434716 12.949570225127488 0.5344771135676893 540.0438741161018 0.0
5164.759232013308 1967.2783065151154 13.116470695222997 0.5325505667959192 543.7463790946406 0.0
5257.256813470365 2016.4475469622103 13.285998275591654 0.5306311934130967 547.4708712870953 0.0
5351.826256425445 2066.537957566236 13.458139700257586 0.5287381607019039 551.216467733508 0.0
5448.59731283455 2117.61242857576 13.633094247020354 0.5268618508507288 554.9868210458568 0.0
5547.621305184264 2169.6906838413097 13.810907739175082 0.524995873378483 558.781937487146 0.0
5648.852363387448 2222.7413990214113 13.991451894726762 0.5231424297451159 562.5981454122898 0.0
5752.349154079866 2276.788323288297 14.174786745573693 0.521301899466561 566.4358348263322 0.0
5858.249410480933 2331.8960678850863 14.361109555385257 0.5194730245705319 570.2982070044372 0.0
5966.608632717335 2388.0858601062428 14.550469000766416 0.517655833245982 574.1852909518561 0.0
6077.355412095865 2445.313245696265 14.742692771367615 0.5158527164949991 578.0926279967849 0.0
6190.5911426557395 2503.623375552784 14.937910470777195 0.5140633545684512 582.021979385741 0.0
6306.448654252919 2563.077011821263 15.136302084529733 0.512286747889382 585.9760320290837 0.0
6424.987889580219 2623.696975742631 15.337919224210493 0.5105139789807378 589.9548350790684 0.0
6546.128115644801 2685.432112116333 15.542560920909011 0.5087481162078795 593.9531011119569 0.0
6670.020934445826 2748.3522371980293 15.75043535314626 0.5070029970450278 597.9740527294582 0.0
6796.778508298711 2812.5076492564217 15.961687771150094 0.5052772939953805 602.019805726412 0.0
6926.465738631402 2877.9229385543254 16.176372943102105 0.5035654257650037 606.0904271513187 0.0
7058.945347571092 2944.5210485061757 16.39421303540152 0.5018699607242212 610.1797613821134 0.0
7194.430968087281 3012.40156288554 16.61550867100492 0.5001889872654246 614.2925763096104 0.0
7333.036634558733 3081.613269342762 16.840391874951834 0.49852222257639944 618.4303648993331 0.0
7474.832267696203 3152.18254814287 17.068920531888136 0.4968604104286687 622.5932101621104 0.0
7619.667714541731 3224.0238506229243 17.30078211071484 0.4951936617027233 626.7740504200112 0.0
7767.867156098941 3297.2859422436823 17.536417020522702 0.49354831718601666 630.9792782513232 0.0
7919.470747254654 3371.9856261706045 17.77586889116454 0.4919379637766994 635.2097160524316 0.0
8074.554002347728 3448.1512674503515 18.019198966074182 0.4903169061515271 639.4654611461091 0.0
