e[MeV/fm^3], P[MeV/fm^3], rho[fm^-3], v2[1], mu_q[MeV], mu_e[MeV]
70.21755168181654 0.006206087273093519 0.07407856508846018 0.017597877650005332 316.5185077347417 89.2771661002368
71.43578994790998 0.027644495228360377 0.07535555647246353 0.0175978776500052 316.5894798429086 89.8124074562691
72.67502861766434 0.04945246571785267 0.07665456106626496 0.017597877650005228 316.6616753923034 90.35687548400062
73.93562970314778 0.07163636938565421 0.07797595834102777 0.01759787765000538 316.7351154730202 90.91072923592193
75.21796145691394 0.09420268669514797 0.07932013430936638 0.01759787765000533 316.8098215387112 91.47413050632369
76.5223984795798 0.11715800982215896 0.0806874816381126 0.01759787765000522 316.8858154128541 92.04724387856187
77.84932182925448 0.14050904458066893 0.08207839976302188 0.017597877650005325 316.96311929512683 92.630236773136
79.19911913285509 0.16426261238173973 0.08349329500545777 0.017597877650005436 317.0417557678931 93.22327949659658
80.57218469934486 0.18842565222626206 0.08493258069109116 0.017597877650005332 317.12174780279906 93.82654529129692
81.96891963491473 0.21300522273190858 0.08639667727063695 0.017597877650005284 317.20311876748366 94.44021038599915
83.38973196016327 0.23800850419525207 0.0878860124426853 0.017597877650005242 317.2858924324053 95.06445404735784
84.83503672928572 0.26344280068923775 0.08940102127863886 0.01759787765000527 317.37009297778565 95.69945863228664
86.3052561513196 0.28931554219685157 0.0909421463498059 0.01759787765000538 317.45574500067295 96.34540964122833
87.80081971348744 0.3156342867816875 0.09250983785669148 0.017597877650005325 317.54287352212793 97.00249577234631
89.32216430665855 0.3424067227958098 0.09410455376051008 0.01759787765000531 317.63150399453286 97.67090897664707
90.86973435297011 0.3696406711256137 0.09572675991696154 0.017597877650005242 317.7216623090265 98.3508445140514
92.44398193566516 0.39734408747669764 0.0973769302123309 0.017597877650005228 317.8133748030682 99.04250101043964
94.04536693114535 0.4255250646977123 0.09905554670190979 0.01759787765000531 317.90666826813106 99.74608051566989
95.67435714332068 0.45419183514462985 0.10076309975082554 0.017892055534992374 318.00156995752883 100.46178856260559
97.33169327479138 0.4843410207312542 0.10250008817728433 0.018775745774211428 318.10048622561175 101.18570399772256
99.01814146064449 0.5170082040359527 0.10426701939828847 0.020025246310001077 318.2058447860128 101.91428658825437
100.73429318912723 0.5525181669555139 0.1060644095778678 0.02129999675038627 318.31828524079526 102.64750316311726
102.48063871606901 0.5907964457966746 0.10789278377786223 0.022549781036994038 318.43751805132047 103.38670836290729
104.25774423592242 0.6320103592916358 0.10975267611130558 0.023887708108000116 318.5638120290785 104.13237516689382
106.06623539667063 0.676492214395437 0.11164462989845152 0.025339806313660923 318.697770868173 104.88465247088972
107.90674784282342 0.7245234535359056 0.11356919782549418 0.026726883379044414 318.8398212612412 105.64215664334085
109.77980899298537 0.7757858510810522 0.11552694210601787 0.028008654354195556 318.9889635986241 106.39548846211913
111.68603200563659 0.8304189676497289 0.11751843464523576 0.02941848660514751 319.1453310518051 107.14305877628786
113.62612253642692 0.8889903796251314 0.1195442572070575 0.0310000273545607 319.31003653378224 107.89037199216354
115.60075117782822 0.9518318179215621 0.1216050015840337 0.03259969837934959 319.4836179784206 108.6399435927219
117.61049319554543 1.0189345897359714 0.12370126977023699 0.03419210470702347 319.6659546827271 109.3941654142798
119.65602415051524 1.0905481505064962 0.12583367413711752 0.03592218882239359 319.8573917239201 110.15411877028433
121.73815641876267 1.1672766767204164 0.12800283761239192 0.03778190969818496 320.0588603075681 110.92020174565145
123.85759205422588 1.2493614886182018 0.1302093938620144 0.0396255479711905 320.27062777688235 111.69348487044105
126.01496433860267 1.3368161240061027 0.13245398747528928 0.041461386350795104 320.4925793312381 112.47517112638602
128.2110155783424 1.429932568241939 0.13473727415316794 0.04346252473119688 320.7250671173629 113.26594974297757
130.4466887956552 1.52951487508801 0.1370599208997976 0.045590760196347446 320.969220213987 114.06610244230104
132.72270298041246 1.6357091714792171 0.13942260621736857 0.04767926014436641 321.22510082538804 114.87651716166351
135.03976205186157 1.748593799706529 0.14182602030432198 0.04977029748745049 321.49267975935425 115.69799950047124
137.3986835249372 1.8685229353243933 0.14427086525697244 0.05206400529136951 321.77234677231564 116.53110782929468
139.80057355445675 1.9965668028217445 0.14675785527460983 0.05448295484632937 322.0654823434704 117.37614392238619
142.24614757531495 2.1327305435734982 0.1492877168681315 0.05683638595368079 322.37191652081754 118.23384218287305
144.73619757503982 2.2771938463603174 0.15186118907227755 0.059208520968313694 322.69174413674494 119.10477732777403
147.27162660197732 2.430390920319256 0.15447902366151722 0.0618292055008095 323.0254080857181 119.98940983187808
149.85374556019306 2.5937403356179334 0.15714198536966398 0.06457197399617759 323.3745941649684 120.88804723823948
152.4832372283129 2.7670401807274834 0.15985085211327107 0.06721882453614525 323.7388555425644 121.80124809303793
155.16100474728017 2.9506159576823916 0.1626064152188807 0.06990575565196155 324.1184454344821 122.72942464238325
157.8880490867394 3.1450019316856195 0.16540947965419006 0.07289593855263288 324.5138717435153 123.67293532678868
160.66593902373984 3.3520690822739376 0.16826086426320178 0.07600220080988451 324.92718571735776 124.63202719571277
163.4952840125817 3.5713158744339593 0.17116140200542868 0.07897532922519734 325.3576004812541 125.6070903482084
166.37712853614147 3.8032695276021222 0.17411194019922174 0.08202037368123771 325.8055622707938 126.59840218489457
169.31260061973967 4.048620249866702 0.17711334076929286 0.08542133552471287 326.2716886567447 127.60620334892384
172.303551331823 4.309718566586897 0.18016648049850292 0.0889270452590527 326.7583492276527 128.63058410314463
175.35050383107742 4.585737524453315 0.1832722512839939 0.09226446929582366 327.26444376458807 129.67181814230588
178.45466868853612 4.877441713994387 0.18643156039773165 0.09572802473872655 327.7906096931573 130.73004905217363
181.61738960046912 5.18586172672753 0.18964533075154347 0.09956214286511778 328.3377308078966 131.80536363429957
184.84067158507494 5.5134958934314255 0.19291450116672415 0.10348029397253222 328.90808973361146 132.89762523650757
188.12508868773136 5.859506730761704 0.19624002664828616 0.10723125726635341 329.50063467169656 134.00704679883177
191.47199658539387 6.224818666062787 0.19962287866394354 0.11114950466071183 330.116072530961 135.1336328978941
194.88301649425165 6.610906017540677 0.2030640454278977 0.11544544815415358 330.7555888744374 136.2772622126371
198.3602890613904 7.020342674256472 0.2065645321895225 0.11979382346787826 331.42129567013734 137.43754067535426
201.9044613376726 7.452308308070558 0.2101253615270204 0.12397650239191993 332.11220306471756 138.61467605675114
205.5170562570145 7.907903230714149 0.21374757364614289 0.1283699626450635 332.8290718474655 139.80852765902867
209.2000509218192 8.389163756231573 0.21743222668406043 0.1331367755092301 333.57341318817043 141.01869117551004
212.95568685700158 8.89862029273525 0.22118039701847075 0.1379109881763032 334.34705688852574 142.2445530860434
216.7847142491265 9.435507109353031 0.224993179582034 0.1425209986125906 335.149090910276 143.4863497980139
220.6888478651131 10.001107919216421 0.22887168818223044 0.1473848211915132 335.9803024130194 144.74379875149575
224.67051841244387 10.598148441577159 0.23281705582673115 0.15260238957125072 336.84253077264475 146.0161250814302
228.73201076449018 11.228941923303356 0.23683043505437643 0.1577674592771845 337.73719306437926 147.30260528428684
232.87421847820065 11.892825884399452 0.2409129982718618 0.16277849446563675 338.6634726746745 148.60351662363965
238.40092883979773 12.811813153870368 0.24632136589988105 0.014058517295137546 339.6221443059857 151.83150942479827
275.38647369003337 13.418600383822097 0.3796859899536763 0.018753611465369913 340.61534675451054 143.13119706231535
319.0309969091759 14.357997129062056 0.5371816750968773 0.024325911395674027 341.6439533067965 134.57515083012893
359.4675712806172 15.446632470359656 0.6841608498635148 0.03195891410776669 342.70726027181 126.12580924733233
394.49926186118574 16.71907236577041 0.8133765430827884 0.03873340570073769 343.8059831368225 117.9574377651837
428.01762918679805 18.09467043537694 0.9379140710851102 0.05079055082284173 344.9424917462097 109.7345581714898
455.0391225156914 19.679509310427573 1.0400224472460182 0.061638579430195406 346.11701155796936 101.99981848204611
481.1745112691067 21.365977412241246 1.1395416978617927 0.07060406334308611 347.328966229596 94.25029468297218
505.15351503578233 23.19266603225835 1.2322335334591563 0.08355092991412438 348.57896372915343 86.65314291986205
527.175502360171 25.181725221257196 1.318973727143835 0.0949123533795646 349.86949367684684 79.23049874458346
548.445195099469 27.294791919294354 1.40379266679906 0.10527551069546282 351.2000887836266 71.8223632728981
568.7447662765708 29.54670907996256 1.4860557868121909 0.11816626504830996 352.5703075794808 64.4860981339116
588.0970119355915 31.96691654370726 1.5665691179172492 0.12848969802569055 353.98060905644974 57.29427218864536
607.5221507777347 34.52970433172074 1.6494791589181617 0.13374348022140903 355.4334521442952 50.09580578880038
627.5285611948394 37.24276718951219 1.7382260226602368 0.134669757214805 356.9277197298895 42.89224871219943
649.0262890291255 40.116148628568986 1.838744109420265 0.12392160156495824 358.4631014669581 35.66242987853503
676.8286339766787 43.211314890231726 1.9845990367077686 0.20979986559082953 360.03988091456415 28.27793664404173
689.6355489440646 46.4791313598245 2.0351554263452987 0.3314406198813682 361.66030746350987 20.88159095311945
698.4974689087935 49.88409209607368 2.059730609882609 0.3846358035454407 363.3227610243933 13.67256050900906
707.669601057839 53.415933564513026 2.0849651280756545 0.38510053401120503 365.0270429856405 6.708287162267064
717.1800594525455 57.07879410203899 2.1109686347739065 0.3849710006430995 366.7732551876847 1.512902325553004
727.0602468613871 60.880642280157744 2.1378437303244544 0.3845651896319242 368.5632457970251 0.0
737.31453690166 64.82163792683367 2.1655993013084225 0.3840929605198258 370.39513942729127 0.0
747.954131088486 68.90565276231392 2.1942532925271068 0.38361466200681704 372.26881070045994 0.0
758.9910954570577 73.13689258253584 2.2238254816978746 0.38313201754896564 374.18425749083553 0.0
770.4440539030844 77.52206062774277 2.2543526538897742 0.3826458493039224 376.1425479489815 0.0
782.316113003543 82.06190945471785 2.2858298778749955 0.3821575350085 378.1420680020603 0.0
794.6188164231403 86.76041762468591 2.3182744954046024 0.38166786879971903 380.18264288681297 0.0
807.3643572857354 91.62180242531831 2.351705203401306 0.38117760738180895 382.2641765278808 0.0
820.5668372356026 96.65099804175027 2.386145294498853 0.3806873788966012 384.38684656688184 0.0
834.2328708479729 101.85007933493888 2.421598228432754 0.38019799611003036 386.54960838431725 0.0
848.3738425916281 107.22293362268167 2.458079685675968 0.37971000760053863 388.75217980057613 0.0
863.0012426492856 112.77348107110505 2.495605314739855 0.37921577512593263 390.99427615507426 0.0
878.1339503559528 118.5081824704841 2.5342017780759165 0.378697330473019 393.27543963785325 0.0
893.8024637703602 124.43753406634221 2.5739141656667752 0.3781863179970979 395.59516773161965 0.0
909.9937483167223 130.55686881763415 2.6147162717039794 0.3777034939920907 397.95311125729603 0.0
926.7177024166882 136.86947856020328 2.656618536925146 0.37722452910466053 400.3486982341418 0.0
943.9826483679286 143.3780576563442 2.6996272866016406 0.37671224185436625 402.78113502043635 0.0
961.8507600501903 150.1041999897725 2.743840154148748 0.37619640987365743 405.2503908250171 0.0
980.2948981702785 157.0383190068548 2.7892077843728846 0.3757225151956738 407.7560864453435 0.0
999.317024779009 164.1808492380842 2.8357245378783373 0.3752303960668142 410.2972643916196 0.0
1018.9655871419311 171.54841223735312 2.8834592088151614 0.3747229372718395 412.8731075256692 0.0
1039.248154351799 179.14364489952374 2.9324224331060975 0.37424723556418815 415.48395412590855 0.0
1060.1502863631579 186.9613905953688 2.9825857212651052 0.3737566875219649 418.12942481666244 0.0
1081.7402700835007 195.0249937851557 3.0340427897675255 0.37325974980817733 420.80808286670407 0.0
1103.9833025129951 203.3221884053949 3.086731959643099 0.37279128512893855 423.519388423576 0.0
1126.9140749106339 211.86506888907277 3.140707096505061 0.37230402851334254 426.263926491692 0.0
1150.5787609856447 220.66949710329106 3.196032617781193 0.37183337648327175 429.04133904117657 0.0
1174.924284218364 229.71656897240982 3.2526094711487255 0.37135629187712293 431.84962364736657 0.0
1200.0533540086044 239.04179243648377 3.310589238923761 0.3708864581068454 434.68879187402194 0.0
1225.8970318138522 248.621371307343 3.3698683751858907 0.37042017807539285 437.55954505588323 0.0
1252.5807574291932 258.49856922620904 3.430627924050361 0.36995451219672404 440.4615602408136 0.0
1279.9934971239738 268.6343018098766 3.4926784732847453 0.36949812426383666 443.39219174670734 0.0
1308.272310188839 279.0760585410882 3.5562238670434576 0.369037789741796 446.35224304333093 0.0
1337.3497201927255 289.8005830410722 3.621164657858298 0.36859250899480145 449.3424024244641 0.0
1367.325527802579 300.84220493413886 3.687639559830402 0.36813910503725555 452.3623894048231 0.0
1398.1369501875065 312.1783802480711 3.7555261212717617 0.3677047357435921 455.4088468583903 0.0
1429.8440997505102 323.8301864996035 3.824919783378945 0.3672602101285909 458.48357591050296 0.0
1462.5001372342329 335.81599067118157 3.895894883544422 0.36683077222093363 461.5871295346198 0.0
1496.0719754989127 348.124235939907 3.968396841319364 0.36640063025629477 464.7192724425523 0.0
1530.6180610067465 360.7739991091202 4.0424692846175025 0.36596679602197124 467.87587687666405 0.0
1566.1412199272177 373.76684879546286 4.118133495516903 0.3655595221595114 471.0599151315838 0.0
1602.6570055572352 387.1081234147451 4.195408024506745 0.3651379053152226 474.2716930347005 0.0
1640.273932028746 400.83502364892763 4.274434928670371 0.3647166525041188 477.5110201023164 0.0
1678.8885936227994 414.9106563099403 4.355022919842238 0.36432200911000123 480.77294680996494 0.0
1718.575899828222 429.3617335799563 4.437304802178209 0.3639189224514352 484.06176219100337 0.0
1759.4193840584524 444.21685505383067 4.521386713350366 0.36351252070802786 487.37742484726095 0.0
1801.4179881894538 459.4754108315394 4.607254992314643 0.363122641594547 490.71942709513365 0.0
1844.5176158428244 475.1175295150684 4.694788055895684 0.3627427120767086 494.0830324628434 0.0
1888.8096443320242 491.17564600752127 4.784142246876832 0.3623547637193605 497.47289006040484 0.0
1934.3811469592918 507.67949884819143 4.875423785675322 0.36196759974333936 500.8888825459008 0.0
1981.210096762371 524.621143492756 4.968585870595756 0.3615961406849193 504.3299917615031 0.0
2029.2625627631446 541.9878038692941 5.063539205689829 0.361231322795188 507.7922253856572 0.0
2078.635676689929 559.8138351408352 5.160444700812619 0.36086998276824733 511.2801267663313 0.0
2129.365201937525 578.1113538053959 5.259339541171665 0.36050453382795755 514.7936148893198 0.0
2181.5105591719553 596.9001706266978 5.360275431569877 0.3601420892275389 518.3310928584808 0.0
2235.0201484098775 616.1616657036681 5.463147201810692 0.3597924609199259 521.8894715714698 0.0
2289.9891977458474 635.9294611169033 5.568109279058112 0.3594477003605059 525.4730848306887 0.0
2346.4564814695923 656.2166856524615 5.675200867436014 0.3591066944654271 529.0818842067226 0.0
2404.4261918384345 677.0240425005034 5.784395249432334 0.3587697257835609 532.7136335653959 0.0
2463.903394988699 698.3525778915944 5.895668187948652 0.35843698756148523 536.3662857953279 0.0
2524.9935290679455 720.2393021010593 6.009181820390049 0.358108096593285 540.0438741161018 0.0
2587.738751890985 742.698480747871 6.1249775893660905 0.35778120979122896 543.7463790946406 0.0
2652.146609189616 765.7317416722019 6.24302302876102 0.35745788001225165 547.4708712870953 0.0
2718.231919404037 789.3437553997253 6.363315861556639 0.3571412769328983 551.216467733508 0.0
2786.0929616206286 813.5689563221274 6.486003385452668 0.3568296959368551 554.9868210458568 0.0
2855.775325616364 838.4227633312012 6.611129279862256 0.35652199630672676 558.781937487146 0.0
2927.256120576109 863.8961779744224 6.738614259943882 0.3562184789066265 562.5981454122898 0.0
3000.5858923467126 890.0064058610685 6.8685110567302505 0.355919142050924 566.4358348263322 0.0
3075.871764049259 916.7907486686854 7.000970354907121 0.35562371928231773 570.2982070044372 0.0
3153.1631698449833 944.265916240027 7.136038290748927 0.3553321556114577 574.1852909518561 0.0
3232.418855731203 972.4163956448334 7.273602800791794 0.355044773352037 578.0926279967849 0.0
3313.7208285569805 1001.2704899482145 7.413766910206467 0.3547614594771007 582.021979385741 0.0
3397.174417137475 1030.8647137106373 7.556670858207944 0.35448199600924735 585.9760320290837 0.0
3482.833150082858 1061.2171512561808 7.702363346433276 0.3542049452884761 589.9548350790684 0.0
3570.6515548629536 1092.3105768507387 7.850714698799986 0.35393073434208855 593.9531011119569 0.0
3660.7492373101795 1124.1865025488387 8.001885770729583 0.3536614602830346 597.9740527294582 0.0
3753.2164548288774 1156.8761145913604 8.15599035553447 0.3533968531529821 602.019805726412 0.0
3848.11131937164 1190.3990349985643 8.31307995829496 0.35313598763743936 606.0904271513187 0.0
3945.3435688395043 1224.7225078996098 8.472961727060863 0.35287919845715177 610.1797613821134 0.0
4045.0801817895563 1259.9046109296655 8.635866602576245 0.35262613952271593 614.2925763096104 0.0
4147.4159855553935 1295.9778711698013 8.801903078575485 0.3523767152270132 618.4303648993331 0.0
4252.413732175041 1332.9634673083121 8.971125448002908 0.3521295091809824 622.5932101621104 0.0
4359.976343192311 1370.826013023395 9.143318389839855 0.3518830321289208 626.7740504200112 0.0
4470.36026441256 1409.6544583267453 9.318827198215274 0.3516411155259114 630.9792782513232 0.0
4583.599381124354 1449.46039051062 9.497683856282269 0.35140571687486055 635.2097160524316 0.0
4699.761629492186 1490.2667265576329 9.679945695641232 0.3511691148001965 639.4654611461091 0.0
