e[MeV/fm^3], P[MeV/fm^3], rho[fm^-3], v2[1], mu_q[MeV], mu_e[MeV]
70.21755168181654 0.006206087273093519 0.07407856508846018 0.017597877650005332 316.5185077347417 89.2771661002368
71.43578994790998 0.027644495228360377 0.07535555647246353 0.0175978776500052 316.5894798429086 89.8124074562691
72.67502861766434 0.04945246571785267 0.07665456106626496 0.017597877650005228 316.6616753923034 90.35687548400062
73.93562970314778 0.07163636938565421 0.07797595834102777 0.01759787765000538 316.7351154730202 90.91072923592193
75.21796145691394 0.09420268669514797 0.07932013430936638 0.01759787765000533 316.8098215387112 91.47413050632369
76.5223984795798 0.11715800982215896 0.0806874816381126 0.01759787765000522 316.8858154128541 92.04724387856187
77.84932182925448 0.14050904458066893 0.08207839976302188 0.017597877650005325 316.96311929512683 92.630236773136
79.19911913285509 0.16426261238173973 0.08349329500545777 0.017597877650005436 317.0417557678931 93.22327949659658
80.57218469934486 0.18842565222626206 0.08493258069109116 0.017597877650005332 317.12174780279906 93.82654529129692
81.96891963491473 0.21300522273190858 0.08639667727063695 0.017597877650005284 317.20311876748366 94.44021038599915
83.38973196016327 0.23800850419525207 0.0878860124426853 0.017597877650005242 317.2858924324053 95.06445404735784
84.83503672928572 0.26344280068923775 0.08940102127863886 0.01759787765000527 317.37009297778565 95.69945863228664
86.3052561513196 0.28931554219685157 0.0909421463498059 0.01759787765000538 317.45574500067295 96.34540964122833
87.80081971348744 0.3156342867816875 0.09250983785669148 0.017597877650005325 317.54287352212793 97.00249577234631
89.32216430665855 0.3424067227958098 0.09410455376051008 0.01759787765000531 317.63150399453286 97.67090897664707
90.86973435297011 0.3696406711256137 0.09572675991696154 0.017597877650005242 317.7216623090265 98.3508445140514
92.44398193566516 0.39734408747669764 0.0973769302123309 0.017597877650005228 317.8133748030682 99.04250101043964
94.04536693114535 0.4255250646977123 0.09905554670190979 0.01759787765000531 317.90666826813106 99.74608051566989
95.67435714332068 0.45419183514462985 0.10076309975082554 0.017892055534992374 318.00156995752883 100.46178856260559
97.33169327479138 0.4843410207312542 0.10250008817728433 0.018775745774211428 318.10048622561175 101.18570399772256
99.01814146064449 0.5170082040359527 0.10426701939828847 0.020025246310001077 318.2058447860128 101.91428658825437
100.73429318912723 0.5525181669555139 0.1060644095778678 0.02129999675038627 318.31828524079526 102.64750316311726
102.48063871606901 0.5907964457966746 0.10789278377786223 0.022549781036994038 318.43751805132047 103.38670836290729
104.25774423592242 0.6320103592916358 0.10975267611130558 0.023887708108000116 318.5638120290785 104.13237516689382
106.06623539667063 0.676492214395437 0.11164462989845152 0.025339806313660923 318.697770868173 104.88465247088972
107.90674784282342 0.7245234535359056 0.11356919782549418 0.026726883379044414 318.8398212612412 105.64215664334085
109.77980899298537 0.7757858510810522 0.11552694210601787 0.028008654354195556 318.9889635986241 106.39548846211913
111.68603200563659 0.8304189676497289 0.11751843464523576 0.02941848660514751 319.1453310518051 107.14305877628786
113.62612253642692 0.8889903796251314 0.1195442572070575 0.0310000273545607 319.31003653378224 107.89037199216354
115.60075117782822 0.9518318179215621 0.1216050015840337 0.03259969837934959 319.4836179784206 108.6399435927219
117.61049319554543 1.0189345897359714 0.12370126977023699 0.03419210470702347 319.6659546827271 109.3941654142798
119.65602415051524 1.0905481505064962 0.12583367413711752 0.03592218882239359 319.8573917239201 110.15411877028433
121.73815641876267 1.1672766767204164 0.12800283761239192 0.03778190969818496 320.0588603075681 110.92020174565145
123.85759205422588 1.2493614886182018 0.1302093938620144 0.0396255479711905 320.27062777688235 111.69348487044105
126.01496433860267 1.3368161240061027 0.13245398747528928 0.041461386350795104 320.4925793312381 112.47517112638602
128.2110155783424 1.429932568241939 0.13473727415316794 0.04346252473119688 320.7250671173629 113.26594974297757
130.4466887956552 1.52951487508801 0.1370599208997976 0.045590760196347446 320.969220213987 114.06610244230104
132.72270298041246 1.6357091714792171 0.13942260621736857 0.04767926014436641 321.22510082538804 114.87651716166351
135.03976205186157 1.748593799706529 0.14182602030432198 0.04977029748745049 321.49267975935425 115.69799950047124
137.3986835249372 1.8685229353243933 0.14427086525697244 0.05206400529136951 321.77234677231564 116.53110782929468
139.80057355445675 1.9965668028217445 0.14675785527460983 0.05448295484632937 322.0654823434704 117.37614392238619
142.24614757531495 2.1327305435734982 0.1492877168681315 0.05683638595368079 322.37191652081754 118.23384218287305
144.73619757503982 2.2771938463603174 0.15186118907227755 0.059208520968313694 322.69174413674494 119.10477732777403
147.27162660197732 2.430390920319256 0.15447902366151722 0.0618292055008095 323.0254080857181 119.98940983187808
149.85374556019306 2.5937403356179334 0.15714198536966398 0.06457197399617759 323.3745941649684 120.88804723823948
152.4832372283129 2.7670401807274834 0.15985085211327107 0.06721882453614525 323.7388555425644 121.80124809303793
155.16100474728017 2.9506159576823916 0.1626064152188807 0.06990575565196155 324.1184454344821 122.72942464238325
157.8880490867394 3.1450019316856195 0.16540947965419006 0.07289593855263288 324.5138717435153 123.67293532678868
160.66593902373984 3.3520690822739376 0.16826086426320178 0.07600220080988451 324.92718571735776 124.63202719571277
163.4952840125817 3.5713158744339593 0.17116140200542868 0.07897532922519734 325.3576004812541 125.6070903482084
166.37712853614147 3.8032695276021222 0.17411194019922174 0.08202037368123771 325.8055622707938 126.59840218489457
169.31260061973967 4.048620249866702 0.17711334076929286 0.08542133552471287 326.2716886567447 127.60620334892384
172.303551331823 4.309718566586897 0.18016648049850292 0.0889270452590527 326.7583492276527 128.63058410314463
175.35050383107742 4.585737524453315 0.1832722512839939 0.09226446929582366 327.26444376458807 129.67181814230588
178.45466868853612 4.877441713994387 0.18643156039773165 0.09572802473872655 327.7906096931573 130.73004905217363
181.61738960046912 5.18586172672753 0.18964533075154347 0.09956214286511778 328.3377308078966 131.80536363429957
184.84067158507494 5.5134958934314255 0.19291450116672415 0.10348029397253222 328.90808973361146 132.89762523650757
188.12508868773136 5.859506730761704 0.19624002664828616 0.10723125726635341 329.50063467169656 134.00704679883177
191.47199658539387 6.224818666062787 0.19962287866394354 0.11114950466071183 330.116072530961 135.1336328978941
194.88301649425165 6.610906017540677 0.2030640454278977 0.11544544815415358 330.7555888744374 136.2772622126371
198.3602890613904 7.020342674256472 0.2065645321895225 0.11979382346787826 331.42129567013734 137.43754067535426
201.9044613376726 7.452308308070558 0.2101253615270204 0.12397650239191993 332.11220306471756 138.61467605675114
205.5170562570145 7.907903230714149 0.21374757364614289 0.1283699626450635 332.8290718474655 139.80852765902867
209.2000509218192 8.389163756231573 0.21743222668406043 0.1331367755092301 333.57341318817043 141.01869117551004
212.95568685700158 8.89862029273525 0.22118039701847075 0.1379109881763032 334.34705688852574 142.2445530860434
216.7847142491265 9.435507109353031 0.224993179582034 0.1425209986125906 335.149090910276 143.4863497980139
220.6888478651131 10.001107919216421 0.22887168818223044 0.1473848211915132 335.9803024130194 144.74379875149575
224.67051841244387 10.598148441577159 0.23281705582673115 0.15260238957125072 336.84253077264475 146.0161250814302
228.73201076449018 11.228941923303356 0.23683043505437643 0.1577674592771845 337.73719306437926 147.30260528428684
232.87421847820065 11.892825884399452 0.2409129982718618 0.16276966708385543 338.6634726746745 148.60351662363965
237.09907459677976 12.591262929879372 0.2450659380962259 0.1680647442175771 339.6221443059857 149.91845083271977
241.4095830266287 13.327795359770137 0.24929046770324403 0.17367604335428166 340.61534675451054 151.2461733723472
245.80798450797525 14.104290408314728 0.25358782118182577 0.17916063314688135 341.6439533067965 152.5860269646372
250.29536865638684 14.920249387540146 0.2579592538945237 0.18448376658109078 342.70726027181 153.9383214680799
254.87391430339358 15.777295306389933 0.26240604284425445 0.19013115054428797 343.8059831368225 155.30255316107613
259.54734193097937 16.679902122692877 0.2669294870473437 0.19603884001981875 344.9424917462097 156.67695034502995
264.3177234138911 17.62921742422393 0.2715309079130002 0.20173455319505607 346.11701155796936 158.06114921462316
269.1864120746621 18.624978432827973 0.2762116496293318 0.20727097595137622 347.328966229596 159.45546560193614
274.15586021544175 19.66893704821644 0.28097307955601647 0.2131521958171756 348.57896372915343 160.8593430130801
279.2306731431928 20.76658998854091 0.28581658862374093 0.21922189252154145 349.86949367684684 162.27041922778363
284.412585417037 21.918069468750467 0.29074359174052566 0.2249894143101847 351.2000887836266 163.68887481305947
289.7032992122702 23.123430865940225 0.29575552820505524 0.2306016920899494 352.5703075794808 165.1149897852477
295.1055673860831 24.38451504681977 0.300853862127132 0.23656661428271297 353.98060905644974 166.5482047162215
300.6250734626658 25.70790002720107 0.3060400828553784 0.24263779812409947 355.4334521442952 167.985546141962
306.2629978571605 27.092417065261266 0.3113157054123131 0.24831998114039466 356.9277197298895 169.42797804232237
312.0214966673664 28.538529352055203 0.3166822709369256 0.2538541104542591 358.4631014669581 170.8756920374787
317.9036494111742 30.048126085066315 0.3221413471348811 0.2597359108053192 360.03988091456415 172.3281747479247
323.9164360611114 31.628890065835524 0.32769452873648597 0.2656390932017807 361.66030746350987 173.78185544558517
330.06021547034334 33.278110584552124 0.3333434379625472 0.2710787578055842 363.3227610243933 175.23867305073648
336.3377248306841 34.996751726455315 0.3390897249982634 0.27638164452897485 365.0270429856405 176.69867300893014
342.75239563416363 36.78671837750218 0.3449350684752844 0.2820159576097043 366.7732551876847 178.16142771359964
349.3127469329602 38.65679115669434 0.35088117596208035 0.28759239956345484 368.5632457970251 179.62281308437977
356.0179982424811 40.60254779373834 0.3569297844627652 0.2926507180164095 370.39513942729127 181.08586093941702
362.87161894726887 42.62554485678177 0.3630826609245175 0.2976058496429581 372.26881070045994 182.55041400308298
369.8776838050342 44.72802159039085 0.3693416027537498 0.3028324596598386 374.18425749083553 184.01597196044224
377.04571989459646 46.91882012835673 0.3757084383411748 0.30793255850782497 376.1425479489815 185.47847044374714
384.37423920137996 49.19272886637786 0.3821850275959231 0.3125215544923945 378.1420680020603 186.9415202760738
391.8673537720589 51.551645656583794 0.38877326248886857 0.31704011341831206 380.18264288681297 188.40489537630313
399.53022857376277 53.998550771733285 0.3954750676053199 0.32173794710659864 382.2641765278808 189.86781153455445
407.3724291860139 56.54109433027862 0.4022924007072386 0.3262560177033471 384.38684656688184 191.32699317636136
415.3926093188036 59.174483419942426 0.40922725330514964 0.33032373141907057 386.54960838431725 192.78593445174437
423.5953061809909 61.90062597545923 0.41628165123991057 0.3343330679737635 388.75217980057613 194.2445223409546
431.9870027817532 64.72329723895402 0.4234576552745099 0.33844367777413575 390.99427615507426 195.70167441052624
440.5770251421459 67.64881573370899 0.43075736169606577 0.34234063934627335 393.27543963785325 197.1549973649513
449.3643086509324 70.67296114055506 0.4381829029282034 0.34585294088734964 395.59516773161965 198.60775365438798
458.3538473549931 73.79767867736162 0.4457364481539887 0.3493186232354084 397.95311125729603 200.05992813734576
467.5536981515388 77.027587172091 0.45342020394959914 0.35282403402270646 400.3486982341418 201.51013545137317
476.9726258790827 80.36760327959247 0.4612364149289199 0.3563896268347211 402.78113502043635 202.95689176523837
488.5646781173569 84.51575630434945 0.47078573117508976 0.215748418181835 405.2503908250171 205.28715725125718
501.71603152513785 87.38686393372848 0.5108663274835437 0.2208770058874987 407.7560864453435 202.21856263016633
518.2945553304569 91.10226928791259 0.5606914860534631 0.22745552615773024 410.2972643916196 199.16094376486254
535.0713763120352 94.9750563675477 0.610400080511346 0.23387241949214843 412.8731075256692 196.11726800546532
552.0787030225239 99.00485652133153 0.6601416503743753 0.23956328892334566 415.48395412590855 193.081097643399
569.3402518671187 103.18596213319678 0.7100540303069247 0.24506681050276669 418.12942481666244 190.0457899527469
586.8845878381774 107.53624653341855 0.7601424759609717 0.25028474323645256 420.80808286670407 187.0159051240403
604.7297000075434 112.04481183289016 0.8105458653003526 0.25485619585128694 423.519388423576 183.98365728079676
622.9106203708463 116.71919988203064 0.8613593085281662 0.25926834641497365 426.263926491692 180.94615693281972
641.4637648021436 121.57041977774792 0.9126587501565371 0.26322146983314676 429.04133904117657 177.90263652997612
660.3841144990814 126.58432194765876 0.964503971496588 0.2668991656589954 431.84962364736657 174.8488556152277
679.7340445695152 131.78637529296446 1.01698527252485 0.2702528249450382 434.68879187402194 171.78608484755347
699.5032165545238 137.15756645682887 1.070177997784833 0.2732874843925188 437.55954505588323 168.7065894687806
719.7692676822613 142.72910283251616 1.1241959872636076 0.27608852250151683 440.4615602408136 165.61193805477518
740.4847475798028 148.47315907607643 1.17901310954407 0.2785845393216282 443.39219174670734 162.49918576084534
761.7411182027234 154.42323752836612 1.2347864351573752 0.28090545584974835 446.35224304333093 159.3676993047986
783.5147344659907 160.56154924352214 1.2915324350347017 0.2829478772585641 449.3424024244641 156.2125997274297
805.8769618483016 166.91261301297772 1.3493808580943143 0.2848598872146555 452.3623894048231 153.03329428180868
828.7969000526415 173.4615832669818 1.4082907361961519 0.2865331398641118 455.4088468583903 149.83064682270503
852.3246335223984 180.22239642493528 1.4683790385991704 0.2881030784832288 458.48357591050296 146.60115644240165
876.5059891661014 187.2077101437348 1.5297504785338607 0.28949638393412114 461.5871295346198 143.3424046369316
901.3270490891705 194.40922809687962 1.5924006455169541 0.2907757825548378 464.7192724425523 140.05304264946295
926.8336210702245 201.84265400983492 1.6564027547633482 0.29196646699859174 467.87587687666405 136.73566499897555
953.0370480892562 209.50756917850515 1.7218132984897359 0.2929987733555377 471.0599151315838 133.38582539554872
979.954409956727 217.40767907992486 1.7886785411348678 0.293989998434923 474.2716930347005 130.0020633786646
1007.6697282651025 225.56983249494098 1.8571658904925594 0.2949140526409968 477.5110201023164 126.58260178349282
1036.1132446586603 233.97031997683607 1.9271317196388642 0.29572539078560833 480.77294680996494 123.13208626927036
1065.344227011617 242.62626270056322 1.998716711271964 0.29651038089489123 484.06176219100337 119.64500873480674
1095.4281709872787 251.55848324837953 2.0720493589652773 0.2972676308179327 487.37742484726095 116.11976789513797
1126.367521995733 260.7671337514673 2.1471297409591656 0.29797568330712165 490.71942709513365 112.55621253699292
1158.1235541851806 270.2407458036894 2.223843315956544 0.2986850692178735 494.0830324628434 108.95886175991303
1190.757446949747 280.000084212772 2.302231277622057 0.29938340803254837 497.47289006040484 105.32343506644114
1224.3314760377423 290.06292491632354 2.3823609069681244 0.2999248697654484 500.8888825459008 101.66161920951433
1258.8686733325014 300.42873332067666 2.4646775265363257 0.3003356323503912 504.3299917615031 97.96001455107324
1294.3460197845952 311.0911703037965 2.549129012929785 0.30074471620993837 507.7922253856572 94.22253274925745
1330.837420275344 322.0733704512494 2.635892590065645 0.3011593574843161 511.2801267663313 90.4437609283614
1368.3712619957125 333.38500084781583 2.725037033942592 0.3015927673317016 514.7936148893198 86.6233019056716
1406.994873089213 345.0423966473386 2.8166724415341644 0.3020404879194869 518.3310928584808 82.76184264767721
1446.66949070383 357.0347048590455 2.910712858085695 0.30249344301467485 521.8894715714698 78.86300998071178
1487.4661630686996 369.3849506803758 3.0073294739152603 0.30296360336433725 525.4730848306887 74.92185850050659
1529.4140301195066 382.10384159962587 3.106593664008905 0.3034550464900452 529.0818842067226 70.93817146081662
1572.516099110966 395.19436322217246 3.2085153447810617 0.3039699161992857 532.7136335653959 66.91420869458629
1616.7755088138902 408.65971307956966 3.3131052610503535 0.30451025876709803 536.3662857953279 62.852103041558806
1662.269661751026 422.52592803841094 3.4205500050190984 0.3050788966407314 540.0438741161018 58.747260546953626
1709.0284551905684 436.8048780928127 3.5309242774973737 0.305681679060295 543.7463790946406 54.59961183016905
1757.0557723341703 451.5010949933734 3.644241481706066 0.3063179658126529 547.4708712870953 50.41223087095279
1806.3597321338034 466.620027161023 3.760526918282291 0.30698291387066945 551.216467733508 46.18627006926003
1857.0103666843602 482.186363558877 3.879952582581928 0.30768062435574883 554.9868210458568 41.91775308534391
1909.0381199026392 498.21316323416113 4.00259818334195 0.30841439969541273 558.781937487146 37.606723522449954
1962.4218114814328 514.6977905766405 4.128424311772734 0.30918397629377825 562.5981454122898 33.25744909890768
2017.1947356083078 531.6545500170004 4.257525050386541 0.30998830047921366 566.4358348263322 28.869623858493334
2073.432503425142 549.1110099536829 4.390106184880967 0.3108228016458945 570.2982070044372 24.43971548325635
2131.168960215236 567.0816081375397 4.526309404720548 0.3116662684314697 574.1852909518561 19.96777739846551
2190.3767945661093 585.5598348685818 4.666256580814713 0.3124096312087081 578.0926279967849 15.458926582779299
2251.15785804327 604.5683116327226 4.811019950805277 0.31205144486610603 582.021979385741 10.910580174709533
2314.0139677400534 624.1381004557802 4.969177157036333 0.3131415154070112 585.9760320290837 6.31516113036492
2378.0247492466688 644.299794514608 5.122971435076176 0.3217670309418583 589.9548350790684 1.6526414749420195
2441.038514204971 664.9969704215043 5.229421855559785 0.32848668712560425 593.9531011119569 0.0
2505.721535893169 686.2465966566917 5.3379521399004375 0.3285505485836442 597.9740527294582 0.0
2572.1396472954953 708.070429226671 5.4486450398139 0.32861327610226354 602.019805726412 0.0
2640.335861446504 730.4827619093952 5.561538914666109 0.3286751049163348 606.0904271513187 0.0
2710.2465109909353 753.4628222817311 5.676496398267166 0.32873595615175955 610.1797613821134 0.0
2781.992850204838 777.0506184252563 5.793684748638117 0.3287959122872106 614.2925763096104 0.0
2855.6443675444552 801.269156552883 5.913183334478288 0.3288549964183636 618.4303648993331 0.0
2931.2475245029273 826.1338782574478 6.035032578373261 0.3289135443436306 622.5932101621104 0.0
3008.734061950332 851.6225405399503 6.159079310418451 0.328971909355114 626.7740504200112 0.0
3088.29054049912 877.7967399168028 6.285574391567947 0.3290291852547478 630.9792782513232 0.0
3169.941841197658 904.6647223956147 6.414540811543235 0.3290849079311293 635.2097160524316 0.0
3253.738279546645 932.2432125098627 6.546021245036019 0.3291409226081541 639.4654611461091 0.0
