e[MeV/fm^3], P[MeV/fm^3], rho[fm^-3], v2[1], mu_q[MeV], mu_e[MeV]
70.21755168181654 0.006206087273093519 0.07407856508846018 0.017597877650005332 316.5185077347417 89.2771661002368
71.43578994790998 0.027644495228360377 0.07535555647246353 0.0175978776500052 316.5894798429086 89.8124074562691
72.67502861766434 0.04945246571785267 0.07665456106626496 0.017597877650005228 316.6616753923034 90.35687548400062
73.93562970314778 0.07163636938565421 0.07797595834102777 0.01759787765000538 316.7351154730202 90.91072923592193
75.21796145691394 0.09420268669514797 0.07932013430936638 0.01759787765000533 316.8098215387112 91.47413050632369
76.5223984795798 0.11715800982215896 0.0806874816381126 0.01759787765000522 316.8858154128541 92.04724387856187
77.84932182925448 0.14050904458066893 0.08207839976302188 0.017597877650005325 316.96311929512683 92.630236773136
79.19911913285509 0.16426261238173973 0.08349329500545777 0.017597877650005436 317.0417557678931 93.22327949659658
80.57218469934486 0.18842565222626206 0.08493258069109116 0.017597877650005332 317.12174780279906 93.82654529129692
81.96891963491473 0.21300522273190858 0.08639667727063695 0.017597877650005284 317.20311876748366 94.44021038599915
83.38973196016327 0.23800850419525207 0.0878860124426853 0.017597877650005242 317.2858924324053 95.06445404735784
84.83503672928572 0.26344280068923775 0.08940102127863886 0.01759787765000527 317.37009297778565 95.69945863228664
86.3052561513196 0.28931554219685157 0.0909421463498059 0.01759787765000538 317.45574500067295 96.34540964122833
87.80081971348744 0.3156342867816875 0.09250983785669148 0.017597877650005325 317.54287352212793 97.00249577234631
89.32216430665855 0.3424067227958098 0.09410455376051008 0.01759787765000531 317.63150399453286 97.67090897664707
90.86973435297011 0.3696406711256137 0.09572675991696154 0.017597877650005242 317.7216623090265 98.3508445140514
92.44398193566516 0.39734408747669764 0.0973769302123309 0.017597877650005228 317.8133748030682 99.04250101043964
94.04536693114535 0.4255250646977123 0.09905554670190979 0.01759787765000531 317.90666826813106 99.74608051566989
95.67435714332068 0.45419183514462985 0.10076309975082554 0.017892055534992374 318.00156995752883 100.46178856260559
97.33169327479138 0.4843410207312542 0.10250008817728433 0.018775745774211428 318.10048622561175 101.18570399772256
99.01814146064449 0.5170082040359527 0.10426701939828847 0.020025246310001077 318.2058447860128 101.91428658825437
100.73429318912723 0.5525181669555139 0.1060644095778678 0.02129999675038627 318.31828524079526 102.64750316311726
102.48063871606901 0.5907964457966746 0.10789278377786223 0.022549781036994038 318.43751805132047 103.38670836290729
104.25774423592242 0.6320103592916358 0.10975267611130558 0.023887708108000116 318.5638120290785 104.13237516689382
106.06623539667063 0.676492214395437 0.11164462989845152 0.025339806313660923 318.697770868173 104.88465247088972
107.90674784282342 0.7245234535359056 0.11356919782549418 0.026726883379044414 318.8398212612412 105.64215664334085
109.77980899298537 0.7757858510810522 0.11552694210601787 0.028008654354195556 318.9889635986241 106.39548846211913
111.68603200563659 0.8304189676497289 0.11751843464523576 0.02941848660514751 319.1453310518051 107.14305877628786
113.62612253642692 0.8889903796251314 0.1195442572070575 0.0310000273545607 319.31003653378224 107.89037199216354
115.60075117782822 0.9518318179215621 0.1216050015840337 0.03259969837934959 319.4836179784206 108.6399435927219
117.61049319554543 1.0189345897359714 0.12370126977023699 0.03419210470702347 319.6659546827271 109.3941654142798
119.65602415051524 1.0905481505064962 0.12583367413711752 0.03592218882239359 319.8573917239201 110.15411877028433
121.73815641876267 1.1672766767204164 0.12800283761239192 0.03778190969818496 320.0588603075681 110.92020174565145
123.85759205422588 1.2493614886182018 0.1302093938620144 0.0396255479711905 320.27062777688235 111.69348487044105
126.01496433860267 1.3368161240061027 0.13245398747528928 0.041461386350795104 320.4925793312381 112.47517112638602
128.2110155783424 1.429932568241939 0.13473727415316794 0.04346252473119688 320.7250671173629 113.26594974297757
130.4466887956552 1.52951487508801 0.1370599208997976 0.045590760196347446 320.969220213987 114.06610244230104
132.72270298041246 1.6357091714792171 0.13942260621736857 0.04767926014436641 321.22510082538804 114.87651716166351
135.03976205186157 1.748593799706529 0.14182602030432198 0.04977029748745049 321.49267975935425 115.69799950047124
137.3986835249372 1.8685229353243933 0.14427086525697244 0.05206400529136951 321.77234677231564 116.53110782929468
139.80057355445675 1.9965668028217445 0.14675785527460983 0.05448295484632937 322.0654823434704 117.37614392238619
142.24614757531495 2.1327305435734982 0.1492877168681315 0.05683638595368079 322.37191652081754 118.23384218287305
144.73619757503982 2.2771938463603174 0.15186118907227755 0.059208520968313694 322.69174413674494 119.10477732777403
147.27162660197732 2.430390920319256 0.15447902366151722 0.0618292055008095 323.0254080857181 119.98940983187808
149.85374556019306 2.5937403356179334 0.15714198536966398 0.06457197399617759 323.3745941649684 120.88804723823948
152.4832372283129 2.7670401807274834 0.15985085211327107 0.06721882453614525 323.7388555425644 121.80124809303793
155.16100474728017 2.9506159576823916 0.1626064152188807 0.06990575565196155 324.1184454344821 122.72942464238325
157.8880490867394 3.1450019316856195 0.16540947965419006 0.07289593855263288 324.5138717435153 123.67293532678868
160.66593902373984 3.3520690822739376 0.16826086426320178 0.07600220080988451 324.92718571735776 124.63202719571277
163.4952840125817 3.5713158744339593 0.17116140200542868 0.07897532922519734 325.3576004812541 125.6070903482084
166.37712853614147 3.8032695276021222 0.17411194019922174 0.08202037368123771 325.8055622707938 126.59840218489457
169.31260061973967 4.048620249866702 0.17711334076929286 0.08542133552471287 326.2716886567447 127.60620334892384
172.303551331823 4.309718566586897 0.18016648049850292 0.0889270452590527 326.7583492276527 128.63058410314463
175.35050383107742 4.585737524453315 0.1832722512839939 0.09226446929582366 327.26444376458807 129.67181814230588
178.45466868853612 4.877441713994387 0.18643156039773165 0.09572802473872655 327.7906096931573 130.73004905217363
181.61738960046912 5.18586172672753 0.18964533075154347 0.09956214286511778 328.3377308078966 131.80536363429957
184.84067158507494 5.5134958934314255 0.19291450116672415 0.10348029397253222 328.90808973361146 132.89762523650757
188.12508868773136 5.859506730761704 0.19624002664828616 0.10723125726635341 329.50063467169656 134.00704679883177
191.47199658539387 6.224818666062787 0.19962287866394354 0.11114950466071183 330.116072530961 135.1336328978941
194.88301649425165 6.610906017540677 0.2030640454278977 0.11544544815415358 330.7555888744374 136.2772622126371
198.3602890613904 7.020342674256472 0.2065645321895225 0.11979382346787826 331.42129567013734 137.43754067535426
201.9044613376726 7.452308308070558 0.2101253615270204 0.12397650239191993 332.11220306471756 138.61467605675114
205.5170562570145 7.907903230714149 0.21374757364614289 0.1283699626450635 332.8290718474655 139.80852765902867
209.2000509218192 8.389163756231573 0.21743222668406043 0.1331367755092301 333.57341318817043 141.01869117551004
212.95568685700158 8.89862029273525 0.22118039701847075 0.1379109881763032 334.34705688852574 142.2445530860434
216.7847142491265 9.435507109353031 0.224993179582034 0.1425209986125906 335.149090910276 143.4863497980139
220.6888478651131 10.001107919216421 0.22887168818223044 0.1473848211915132 335.9803024130194 144.74379875149575
224.67051841244387 10.598148441577159 0.23281705582673115 0.15260238957125072 336.84253077264475 146.0161250814302
228.73201076449018 11.228941923303356 0.23683043505437643 0.1577674592771845 337.73719306437926 147.30260528428684
232.87421847820065 11.892825884399452 0.2409129982718618 0.16276966708385543 338.6634726746745 148.60351662363965
237.09907459677976 12.591262929879372 0.2450659380962259 0.1680647442175771 339.6221443059857 149.91845083271977
241.4095830266287 13.327795359770137 0.24929046770324403 0.17367604335428166 340.61534675451054 151.2461733723472
245.80798450797525 14.104290408314728 0.25358782118182577 0.17916063314688135 341.6439533067965 152.5860269646372
250.29536865638684 14.920249387540146 0.2579592538945237 0.18448376658109078 342.70726027181 153.9383214680799
254.87391430339358 15.777295306389933 0.26240604284425445 0.19013115054428797 343.8059831368225 155.30255316107613
259.54734193097937 16.679902122692877 0.2669294870473437 0.19603884001981875 344.9424917462097 156.67695034502995
264.3177234138911 17.62921742422393 0.2715309079130002 0.20173455319505607 346.11701155796936 158.06114921462316
269.1864120746621 18.624978432827973 0.2762116496293318 0.20727097595137622 347.328966229596 159.45546560193614
274.15586021544175 19.66893704821644 0.28097307955601647 0.2131521958171756 348.57896372915343 160.8593430130801
279.2306731431928 20.76658998854091 0.28581658862374093 0.21922189252154145 349.86949367684684 162.27041922778363
284.412585417037 21.918069468750467 0.29074359174052566 0.2249894143101847 351.2000887836266 163.68887481305947
289.7032992122702 23.123430865940225 0.29575552820505524 0.2306016920899494 352.5703075794808 165.1149897852477
295.1055673860831 24.38451504681977 0.300853862127132 0.23656661428271297 353.98060905644974 166.5482047162215
300.6250734626658 25.70790002720107 0.3060400828553784 0.24263779812409947 355.4334521442952 167.985546141962
306.2629978571605 27.092417065261266 0.3113157054123131 0.24831998114039466 356.9277197298895 169.42797804232237
312.0214966673664 28.538529352055203 0.3166822709369256 0.2538541104542591 358.4631014669581 170.8756920374787
317.9036494111742 30.048126085066315 0.3221413471348811 0.2597359108053192 360.03988091456415 172.3281747479247
323.9164360611114 31.628890065835524 0.32769452873648597 0.2656390932017807 361.66030746350987 173.78185544558517
330.06021547034334 33.278110584552124 0.3333434379625472 0.27123582006037594 363.3227610243933 175.23867305073648
335.6110200244796 34.796467602577565 0.33840963175645433 0.0073430120950098154 365.0270429856405 171.84313157756833
561.4737503753959 37.55072316519017 1.0821251913113976 0.017045744370772803 366.7732551876847 148.51439204595007
722.7182798949857 40.85771283466876 1.6196396464912408 0.025466395241109524 368.5632457970251 125.64443708741842
861.3988531442719 44.98067719609478 2.093399677790507 0.03258761315339631 370.39513942729127 103.24696484824288
999.288712373918 49.8659767684186 2.586329278545721 0.03529621134341884 372.26881070045994 81.11924043904422
1163.2625627415373 55.627740070030875 3.204191482045382 0.1073492419232267 374.18425749083553 58.32393540950156
1214.0954797141278 62.22255276146953 3.3922037815754846 0.5231992892558042 376.1425479489815 35.397655905910725
1225.2770529254824 69.04050025186098 3.422716385994513 0.6292656850588383 378.1420680020603 15.324946159648913
1236.1003780598273 76.05572022294305 3.4513571045342815 0.6496083044740248 380.18264288681297 1.0634712032619038
1247.1829358740445 83.271504902346 3.480427437962332 0.6501941762195522 382.2641765278808 0.0
1258.6121880035384 90.69213439874801 3.5102434062997383 0.6483585704907329 384.38684656688184 0.0
1270.3903990227288 98.31761926445273 3.5408004481876443 0.6465089343676418 386.54960838431725 0.0
1282.5239033068328 106.15061264976225 3.5721045466725836 0.6446479247396577 388.75217980057613 0.0
1295.0190679823313 114.19376469733618 3.6041616539600114 0.6427456342612707 390.99427615507426 0.0
1307.8865121187025 122.45159669037842 3.636982077489214 0.6407309215942671 393.27543963785325 0.0
1321.1438568973767 130.93190884596254 3.670584900872602 0.6387275229427161 395.59516773161965 0.0
1334.7821405779628 139.6298472570506 3.704955132683333 0.6368160824629863 397.95311125729603 0.0
1348.806177233462 148.54698154539776 3.7400944209299665 0.6349026796914048 400.3486982341418 0.0
1363.2194386546034 157.68401911576134 3.7760010451664283 0.6328353674955798 402.78113502043635 0.0
1378.0593812416098 167.05849338096587 3.81272275565506 0.6307361180848448 405.2503908250171 0.0
1393.3083811704428 176.6613978685824 3.850233012034614 0.6287881988144433 407.7560864453435 0.0
1408.9656775001595 186.49122013755832 3.8885232227958584 0.6267452607747215 410.2972643916196 0.0
1425.0588450498274 196.5599086844296 3.9276221964762827 0.6246197286815045 412.8731075256692 0.0
1441.5924946004825 206.86965382530855 3.967537210823401 0.6226085281068485 415.48395412590855 0.0
1458.556807816483 217.41519458086776 4.008251969856516 0.6205125900833472 418.12942481666244 0.0
1475.9899910898744 228.2126703182507 4.049803750998093 0.6183716293191903 420.80808286670407 0.0
1493.8696678586084 239.25076839761593 4.09215898670372 0.6163326157136684 423.519388423576 0.0
1512.2170803733388 250.53963861268846 4.135347680244064 0.6141912932673836 426.263926491692 0.0
1531.0586562975375 262.0908267607368 4.179399281629555 0.6121050800134755 429.04133904117657 0.0
1550.3587315993727 273.8854423196619 4.224252980941847 0.6099672059677825 431.84962364736657 0.0
1570.1778619465333 285.9510490432267 4.269983271756212 0.607845547565617 434.68879187402194 0.0
1590.4756696815484 298.26943341110115 4.316543577952932 0.6057158157309832 437.55954505588323 0.0
1611.325303575467 310.87340009450196 4.36402082374491 0.6035730478008912 440.4615602408136 0.0
1632.6558013655556 323.72730535545224 4.412305923439296 0.6014490656749896 443.39219174670734 0.0
1654.548793560526 336.8688080301622 4.461503844128292 0.5992904030803023 446.35224304333093 0.0
1676.9650405526672 350.2803796154584 4.511569943365026 0.5971797201084836 449.3424024244641 0.0
1699.962010519768 363.98734584548157 4.562570619451713 0.595012847663341 452.3623894048231 0.0
1723.4960904923819 377.9658428542335 4.614425337258647 0.5929165849179139 455.4088468583903 0.0
1747.6050255694502 392.23445571147846 4.667191906439141 0.5907515495569156 458.48357591050296 0.0
1772.3200475710437 406.80733615986526 4.720910185448016 0.5886419729765775 461.5871295346198 0.0
1797.6207111583153 421.6746088161605 4.775551945075655 0.5865078049775265 464.7192724425523 0.0
1823.5325872514882 436.84250966835106 4.831113504103179 0.5843375489874303 467.87587687666405 0.0
1850.0619709425196 452.31672220372803 4.887623383710539 0.5822813348051703 471.0599151315838 0.0
1877.217712793889 468.10108307623767 4.945092550048912 0.580132567418282 474.2716930347005 0.0
1905.0612846354309 484.2220541795885 5.003589588200058 0.5779682456045308 477.5110201023164 0.0
1933.5227364026164 500.6423301500026 5.062990484331343 0.575921920056448 480.77294680996494 0.0
1962.6526042475004 517.3887935870699 5.12338651996489 0.5738130861215875 484.06176219100337 0.0
1992.4979075114563 534.4814955538168 5.184829551323309 0.57166910231137 487.37742484726095 0.0
2023.0560874655296 551.918096907954 5.2473097828452495 0.5695943402229737 490.71942709513365 0.0
2054.286058201253 569.674305824145 5.310738718878987 0.5675551657483648 494.0830324628434 0.0
2086.248289534617 587.7816641831554 5.3752213868618455 0.5654547894291575 497.47289006040484 0.0
2118.9912123457784 606.2604559324498 5.440809221326398 0.5633416314801192 500.8888825459008 0.0
2152.499239701276 625.1020062108573 5.507473052012721 0.5612967899618866 504.3299917615031 0.0
2186.744140535294 644.2884629018781 5.575144760011371 0.5592718803391605 507.7922253856572 0.0
2221.789228659918 663.8523294714032 5.643930971679602 0.5572499402812952 511.2801267663313 0.0
2257.6536144582096 683.8011077111122 5.713849449273795 0.5551879144677123 514.7936148893198 0.0
2294.366534493634 704.1445864307123 5.784915864985335 0.5531267172815078 518.3310928584808 0.0
2331.891426038306 724.8623886923624 5.857059798962652 0.551122051849168 521.8894715714698 0.0
2370.2898887071437 745.9858781010172 5.9303834204891315 0.5491295995823471 525.4730848306887 0.0
2409.5825786676596 767.5231211731565 6.004905681034428 0.5471433886853969 529.0818842067226 0.0
2449.7660782447597 789.4689839537183 6.0805998640549666 0.5451654158311161 532.7136335653959 0.0
2490.8378060118016 811.8189084653125 6.157441620228962 0.5431971901195425 536.3662857953279 0.0
2532.864260113656 834.6058073740264 6.235535076138702 0.5412368201690434 540.0438741161018 0.0
2575.86782820674 857.8383758280773 6.314900458446291 0.5392734656166702 543.7463790946406 0.0
2619.8452173913593 881.5104111755131 6.395504011974372 0.5373169011948793 547.4708712870953 0.0
2664.8015786255105 905.6220814511584 6.477339248063703 0.5353866727613532 551.216467733508 0.0
2710.798395970983 930.2035345980822 6.5605006931621235 0.5334729892800656 554.9868210458568 0.0
2757.8598148844535 955.2641049846139 6.645009828259752 0.531569345486794 558.781937487146 0.0
2805.9637920340747 980.7885635362977 6.730805399222945 0.5296779961447751 562.5981454122898 0.0
2855.1379686755863 1006.7881851772412 6.817915664515634 0.5277993380619002 566.4358348263322 0.0
2905.4475383422105 1033.2938925008498 6.906434068559651 0.5259320965531415 570.2982070044372 0.0
2956.9186084529747 1060.315728375963 6.996383436744059 0.524076309473342 574.1852909518561 0.0
3009.517008503169 1087.832152013101 7.087681636272724 0.5222344283865521 578.0926279967849 0.0
3063.2906499111928 1115.864713966589 7.1803899560897815 0.5204061369056845 582.021979385741 0.0
3118.302352930209 1144.442457170967 7.274593584353205 0.5185904236430403 585.9760320290837 0.0
3174.5803111993723 1173.5761754912512 7.370316728345159 0.5167781787952741 589.9548350790684 0.0
3232.085862066313 1203.2410647637732 7.467463568383693 0.5149725477566047 593.9531011119569 0.0
3290.8907196128703 1233.470507180135 7.566132671656588 0.513187688275762 597.9740527294582 0.0
3351.047895433109 1264.2885191343548 7.666392769734363 0.5114222548981324 602.019805726412 0.0
3412.5879114379186 1295.7067276543482 7.768269554985714 0.5096705516143949 606.0904271513187 0.0
3475.4453613927717 1327.687947488364 7.871630912395877 0.5079352172989839 610.1797613821134 0.0
3539.721343290579 1360.2798235614512 7.9766192143342405 0.5062143063660862 614.2925763096104 0.0
3605.469674109194 1393.5055914457128 8.083296802754228 0.5045075395740302 618.4303648993331 0.0
3672.723232441634 1427.377721192509 8.191690835713601 0.5028054431390618 622.5932101621104 0.0
3741.4104349423883 1461.8549039206332 8.3016526569478 0.5010978894358455 626.7740504200112 0.0
3811.684615211946 1497.0082577674793 8.413390659378576 0.49941187818236266 630.9792782513232 0.0
3883.564710838687 1532.845775492224 8.526925545236313 0.49776133952106605 635.2097160524316 0.0
3957.086226428755 1569.3808615832309 8.642286051349918 0.49609973088217174 639.4654611461091 0.0
