e[MeV/fm^3], P[MeV/fm^3], rho[fm^-3], v2[1], mu_q[MeV], mu_e[MeV]
70.21755168181654 0.006206087273093519 0.07407856508846018 0.017597877650005332 316.5185077347417 89.2771661002368
71.43578994790998 0.027644495228360377 0.07535555647246353 0.0175978776500052 316.5894798429086 89.8124074562691
72.67502861766434 0.04945246571785267 0.07665456106626496 0.017597877650005228 316.6616753923034 90.35687548400062
73.93562970314778 0.07163636938565421 0.07797595834102777 0.01759787765000538 316.7351154730202 90.91072923592193
75.21796145691394 0.09420268669514797 0.07932013430936638 0.01759787765000533 316.8098215387112 91.47413050632369
76.5223984795798 0.11715800982215896 0.0806874816381126 0.01759787765000522 316.8858154128541 92.04724387856187
77.84932182925448 0.14050904458066893 0.08207839976302188 0.017597877650005325 316.96311929512683 92.630236773136
79.19911913285509 0.16426261238173973 0.08349329500545777 0.017597877650005436 317.0417557678931 93.22327949659658
80.57218469934486 0.18842565222626206 0.08493258069109116 0.017597877650005332 317.12174780279906 93.82654529129692
81.96891963491473 0.21300522273190858 0.08639667727063695 0.017597877650005284 317.20311876748366 94.44021038599915
83.38973196016327 0.23800850419525207 0.0878860124426853 0.017597877650005242 317.2858924324053 95.06445404735784
84.83503672928572 0.26344280068923775 0.08940102127863886 0.01759787765000527 317.37009297778565 95.69945863228664
86.3052561513196 0.28931554219685157 0.0909421463498059 0.01759787765000538 317.45574500067295 96.34540964122833
87.80081971348744 0.3156342867816875 0.09250983785669148 0.017597877650005325 317.54287352212793 97.00249577234631
89.32216430665855 0.3424067227958098 0.09410455376051008 0.01759787765000531 317.63150399453286 97.67090897664707
90.86973435297011 0.3696406711256137 0.09572675991696154 0.017597877650005242 317.7216623090265 98.3508445140514
92.44398193566516 0.39734408747669764 0.0973769302123309 0.017597877650005228 317.8133748030682 99.04250101043964
94.04536693114535 0.4255250646977123 0.09905554670190979 0.01759787765000531 317.90666826813106 99.74608051566989
95.67435714332068 0.45419183514462985 0.10076309975082554 0.017892055534992374 318.00156995752883 100.46178856260559
97.33169327479138 0.4843410207312542 0.10250008817728433 0.018775745774211428 318.10048622561175 101.18570399772256
99.01814146064449 0.5170082040359527 0.10426701939828847 0.020025246310001077 318.2058447860128 101.91428658825437
100.73429318912723 0.5525181669555139 0.1060644095778678 0.02129999675038627 318.31828524079526 102.64750316311726
102.48063871606901 0.5907964457966746 0.10789278377786223 0.022549781036994038 318.43751805132047 103.38670836290729
104.25774423592242 0.6320103592916358 0.10975267611130558 0.023887708108000116 318.5638120290785 104.13237516689382
106.06623539667063 0.676492214395437 0.11164462989845152 0.025339806313660923 318.697770868173 104.88465247088972
107.90674784282342 0.7245234535359056 0.11356919782549418 0.026726883379044414 318.8398212612412 105.64215664334085
109.77980899298537 0.7757858510810522 0.11552694210601787 0.028008654354195556 318.9889635986241 106.39548846211913
111.68603200563659 0.8304189676497289 0.11751843464523576 0.02941848660514751 319.1453310518051 107.14305877628786
113.62612253642692 0.8889903796251314 0.1195442572070575 0.0310000273545607 319.31003653378224 107.89037199216354
115.60075117782822 0.9518318179215621 0.1216050015840337 0.03259969837934959 319.4836179784206 108.6399435927219
117.61049319554543 1.0189345897359714 0.12370126977023699 0.03419210470702347 319.6659546827271 109.3941654142798
119.65602415051524 1.0905481505064962 0.12583367413711752 0.03592218882239359 319.8573917239201 110.15411877028433
121.73815641876267 1.1672766767204164 0.12800283761239192 0.03778190969818496 320.0588603075681 110.92020174565145
123.85759205422588 1.2493614886182018 0.1302093938620144 0.0396255479711905 320.27062777688235 111.69348487044105
126.01496433860267 1.3368161240061027 0.13245398747528928 0.041461386350795104 320.4925793312381 112.47517112638602
128.2110155783424 1.429932568241939 0.13473727415316794 0.04346252473119688 320.7250671173629 113.26594974297757
130.4466887956552 1.52951487508801 0.1370599208997976 0.045590760196347446 320.969220213987 114.06610244230104
132.72270298041246 1.6357091714792171 0.13942260621736857 0.04767926014436641 321.22510082538804 114.87651716166351
135.03976205186157 1.748593799706529 0.14182602030432198 0.04977029748745049 321.49267975935425 115.69799950047124
137.3986835249372 1.8685229353243933 0.14427086525697244 0.05206400529136951 321.77234677231564 116.53110782929468
139.80057355445675 1.9965668028217445 0.14675785527460983 0.05448295484632937 322.0654823434704 117.37614392238619
142.24614757531495 2.1327305435734982 0.1492877168681315 0.05683638595368079 322.37191652081754 118.23384218287305
144.73619757503982 2.2771938463603174 0.15186118907227755 0.059208520968313694 322.69174413674494 119.10477732777403
147.27162660197732 2.430390920319256 0.15447902366151722 0.0618292055008095 323.0254080857181 119.98940983187808
149.85374556019306 2.5937403356179334 0.15714198536966398 0.06457197399617759 323.3745941649684 120.88804723823948
152.4832372283129 2.7670401807274834 0.15985085211327107 0.06721882453614525 323.7388555425644 121.80124809303793
155.16100474728017 2.9506159576823916 0.1626064152188807 0.06990575565196155 324.1184454344821 122.72942464238325
157.8880490867394 3.1450019316856195 0.16540947965419006 0.07289593855263288 324.5138717435153 123.67293532678868
160.66593902373984 3.3520690822739376 0.16826086426320178 0.07600220080988451 324.92718571735776 124.63202719571277
163.4952840125817 3.5713158744339593 0.17116140200542868 0.07897532922519734 325.3576004812541 125.6070903482084
166.37712853614147 3.8032695276021222 0.17411194019922174 0.08202037368123771 325.8055622707938 126.59840218489457
169.31260061973967 4.048620249866702 0.17711334076929286 0.08542133552471287 326.2716886567447 127.60620334892384
172.303551331823 4.309718566586897 0.18016648049850292 0.0889270452590527 326.7583492276527 128.63058410314463
175.35050383107742 4.585737524453315 0.1832722512839939 0.09226446929582366 327.26444376458807 129.67181814230588
178.45466868853612 4.877441713994387 0.18643156039773165 0.09572802473872655 327.7906096931573 130.73004905217363
181.61738960046912 5.18586172672753 0.18964533075154347 0.09956214286511778 328.3377308078966 131.80536363429957
184.84067158507494 5.5134958934314255 0.19291450116672415 0.10348029397253222 328.90808973361146 132.89762523650757
188.12508868773136 5.859506730761704 0.19624002664828616 0.10723125726635341 329.50063467169656 134.00704679883177
191.47199658539387 6.224818666062787 0.19962287866394354 0.11114950466071183 330.116072530961 135.1336328978941
194.88301649425165 6.610906017540677 0.2030640454278977 0.11544544815415358 330.7555888744374 136.2772622126371
198.3602890613904 7.020342674256472 0.2065645321895225 0.11979382346787826 331.42129567013734 137.43754067535426
201.9044613376726 7.452308308070558 0.2101253615270204 0.12397650239191993 332.11220306471756 138.61467605675114
205.5170562570145 7.907903230714149 0.21374757364614289 0.1283699626450635 332.8290718474655 139.80852765902867
209.2000509218192 8.389163756231573 0.21743222668406043 0.1331367755092301 333.57341318817043 141.01869117551004
212.95568685700158 8.89862029273525 0.22118039701847075 0.1379109881763032 334.34705688852574 142.2445530860434
216.7847142491265 9.435507109353031 0.224993179582034 0.1425209986125906 335.149090910276 143.4863497980139
220.6888478651131 10.001107919216421 0.22887168818223044 0.1473848211915132 335.9803024130194 144.74379875149575
224.67051841244387 10.598148441577159 0.23281705582673115 0.15260238957125072 336.84253077264475 146.0161250814302
228.73201076449018 11.228941923303356 0.23683043505437643 0.1577674592771845 337.73719306437926 147.30260528428684
232.87421847820065 11.892825884399452 0.2409129982718618 0.16276966708385543 338.6634726746745 148.60351662363965
237.09907459677976 12.591262929879372 0.2450659380962259 0.1680647442175771 339.6221443059857 149.91845083271977
241.4095830266287 13.327795359770137 0.24929046770324403 0.17367604335428166 340.61534675451054 151.2461733723472
245.80798450797525 14.104290408314728 0.25358782118182577 0.17916063314688135 341.6439533067965 152.5860269646372
250.29536865638684 14.920249387540146 0.2579592538945237 0.18448376658109078 342.70726027181 153.9383214680799
254.87391430339358 15.777295306389933 0.26240604284425445 0.19013115054428797 343.8059831368225 155.30255316107613
259.54734193097937 16.679902122692877 0.2669294870473437 0.19603884001981875 344.9424917462097 156.67695034502995
264.3177234138911 17.62921742422393 0.2715309079130002 0.20173455319505607 346.11701155796936 158.06114921462316
269.1864120746621 18.624978432827973 0.2762116496293318 0.20727097595137622 347.328966229596 159.45546560193614
274.15586021544175 19.66893704821644 0.28097307955601647 0.2131521958171756 348.57896372915343 160.8593430130801
279.2306731431928 20.76658998854091 0.28581658862374093 0.21922189252154145 349.86949367684684 162.27041922778363
284.412585417037 21.918069468750467 0.29074359174052566 0.2249894143101847 351.2000887836266 163.68887481305947
289.7032992122702 23.123430865940225 0.29575552820505524 0.2306016920899494 352.5703075794808 165.1149897852477
295.1055673860831 24.38451504681977 0.300853862127132 0.23656661428271297 353.98060905644974 166.5482047162215
300.6250734626658 25.70790002720107 0.3060400828553784 0.24263779812409947 355.4334521442952 167.985546141962
306.2629978571605 27.092417065261266 0.3113157054123131 0.24831998114039466 356.9277197298895 169.42797804232237
312.0214966673664 28.538529352055203 0.3166822709369256 0.2538541104542591 358.4631014669581 170.8756920374787
317.9036494111742 30.048126085066315 0.3221413471348811 0.2597359108053192 360.03988091456415 172.3281747479247
323.9164360611114 31.628890065835524 0.32769452873648597 0.2656390932017807 361.66030746350987 173.78185544558517
330.06021547034334 33.278110584552124 0.3333434379625472 0.2710787578055842 363.3227610243933 175.23867305073648
336.3377248306841 34.996751726455315 0.3390897249982634 0.27638164452897485 365.0270429856405 176.69867300893014
342.75239563416363 36.78671837750218 0.3449350684752844 0.2820159576097043 366.7732551876847 178.16142771359964
349.3127469329602 38.65679115669434 0.35088117596208035 0.28759239956345484 368.5632457970251 179.62281308437977
356.0179982424811 40.60254779373834 0.3569297844627652 0.2926507180164095 370.39513942729127 181.08586093941702
362.87161894726887 42.62554485678177 0.3630826609245175 0.2976058496429581 372.26881070045994 182.55041400308298
369.8776838050342 44.72802159039085 0.3693416027537498 0.3028324596598386 374.18425749083553 184.01597196044224
377.04571989459646 46.91882012835673 0.3757084383411748 0.30793255850782497 376.1425479489815 185.47847044374714
384.37423920137996 49.19272886637786 0.3821850275959231 0.3125215544923945 378.1420680020603 186.9415202760738
391.8673537720589 51.551645656583794 0.38877326248886857 0.31704011341831206 380.18264288681297 188.40489537630313
399.53022857376277 53.998550771733285 0.3954750676053199 0.32173794710659864 382.2641765278808 189.86781153455445
407.3724291860139 56.54109433027862 0.4022924007072386 0.3262560177033471 384.38684656688184 191.32699317636136
415.3926093188036 59.174483419942426 0.40922725330514964 0.33032373141907057 386.54960838431725 192.78593445174437
423.5953061809909 61.90062597545923 0.41628165123991057 0.3343330679737635 388.75217980057613 194.2445223409546
431.9870027817532 64.72329723895402 0.4234576552745099 0.33844367777413575 390.99427615507426 195.70167441052624
440.5770251421459 67.64881573370899 0.43075736169606577 0.34234063934627335 393.27543963785325 197.1549973649513
449.3643086509324 70.67296114055506 0.4381829029282034 0.34585294088734964 395.59516773161965 198.60775365438798
458.3538473549931 73.79767867736162 0.4457364481539887 0.3493186232354084 397.95311125729603 200.05992813734576
467.5536981515388 77.027587172091 0.45342020394959914 0.35282403402270646 400.3486982341418 201.51013545137317
476.9726258790827 80.36760327959247 0.4612364149289199 0.35610018974828783 402.78113502043635 202.95689176523837
486.6100156532322 83.81420550185936 0.4691873643992499 0.3590573204431635 405.2503908250171 204.40314259136073
496.47135452575156 87.36941208352289 0.4772753750283123 0.36197834849888366 407.7560864453435 205.84894995866304
506.56655900314644 91.03873246762508 0.4855028095227629 0.36489385448832223 410.2972643916196 207.29262843749711
516.9034684719422 94.82566064673001 0.4938720713183944 0.36757989436499905 412.8731075256692 208.73358290625708
527.4821139822687 98.72747146381049 0.5023856052822402 0.3700084324005575 415.48395412590855 210.17438737708488
538.3085169951437 102.74629564781578 0.5110458984267782 0.3724093515593818 418.12942481666244 211.61515947844745
549.3947716703991 106.88858307175066 0.5198554806364498 0.37477404613277354 420.80808286670407 213.0539215761969
560.7473841545874 111.15641113021425 0.5288169254067018 0.3769207954870195 423.519388423576 214.4909179400455
572.3672561543884 115.54792410382744 0.5379328505957653 0.37886474183026664 426.263926491692 215.9283232945553
584.2609906842314 120.06540490899816 0.5472059191893986 0.3807870372087292 429.04133904117657 217.3662915140309
596.4432130423701 124.71630099334256 0.5566388400788104 0.38265444483646505 431.84962364736657 218.80256300968787
608.9186419826651 129.50128533081002 0.5662343688519925 0.38432350513569347 434.68879187402194 220.23815990490425
621.6893040881408 134.41942772049248 0.5759953085986951 0.3858362506036226 437.55954505588323 221.67485028860386
634.7624371595826 139.47320133789228 0.5859245107292793 0.3873306564286798 440.4615602408136 223.11280862722958
648.1555903933254 144.6711199906064 0.5960248758076834 0.3887608953183088 443.39219174670734 224.54950374428427
661.8711898977059 150.01245391176323 0.6062993543987482 0.39010902129756886 446.35224304333093 225.98667358189707
667.5258813695656 152.21829083543625 0.6105198118227553 0.23916241573011376 449.3424024244641 224.42165255776715
704.6374800351884 161.20519599993509 0.7114576995178561 0.24515545187086296 452.3623894048231 220.80908964781594
728.5164475312694 167.10529538593966 0.7753552671536225 0.2488731709158496 455.4088468583903 217.18943428909603
752.8959477960276 173.21724422778217 0.8398323609241384 0.25243773747382203 458.48357591050296 213.55932221982945
777.8176075667874 179.55267352793206 0.9049977320124779 0.25570781074415505 461.5871295346198 209.91659077723668
803.2782314980451 186.10201556720875 0.9709187784999396 0.2588013765900459 464.7192724425523 206.25794465678865
829.3117534805423 192.88124529811645 1.0376184017896977 0.26174422057733837 467.87587687666405 202.5883391016512
855.9421010340156 199.88809730831738 1.1052239434808102 0.26434355549844213 471.0599151315838 198.90105995356777
883.1907995447315 207.12536051692678 1.173807485588267 0.2668719893978442 474.2716930347005 195.19402219836303
911.133818291319 214.61900907237273 1.2434987738179302 0.269243688316394 477.5110201023164 191.46711145940935
939.7146469596105 222.34542710878918 1.3142212945995102 0.2713273640817264 480.77294680996494 187.7233558635159
968.9961606289781 230.32005263578114 1.3861349401003746 0.27332810538725694 484.06176219100337 183.9565477361755
999.0416185627283 238.56268007902196 1.459359889011187 0.2752219027966918 487.37742484726095 180.1659009398365
1029.8608825187107 247.07274189507189 1.533939628495863 0.2769281574745244 490.71942709513365 176.3504639288471
1061.423079635633 255.83906640696648 1.60981519201973 0.278496658494372 494.0830324628434 172.51439699352346
1093.8011682893539 264.8811359241275 1.6871607057870666 0.2800072974151373 497.47289006040484 168.65140752130853
1127.0620154402359 274.21977568771683 1.766105053766743 0.28143163254110526 500.8888825459008 164.7607489024963
1161.1980586312825 283.84992659648924 1.8466522933467606 0.28272549243987344 504.3299917615031 160.84252327435726
1196.190403017537 293.76519880826464 1.9287627443152076 0.28393532417661316 507.7922253856572 156.90044755962427
1232.1146512625107 303.9867474411507 2.0126118120404572 0.2850801055947274 511.2801267663313 152.9285995885248
1269.0013356682034 314.52321903414366 2.098267680117191 0.2861884513203772 514.7936148893198 148.92637270301634
1306.8972239247564 325.3897694163272 2.18581750218943 0.28724538162002533 518.3310928584808 144.89482983499283
1345.7696513931223 336.57554815526 2.275201296794949 0.2882301148421025 521.8894715714698 140.83696032534212
1385.6912584394163 348.1015910762125 2.3665857486326782 0.2891738466265137 525.4730848306887 136.74731388874469
1426.6931117100576 359.9774970279987 2.460037666364683 0.2900858657345742 529.0818842067226 132.62546766644599
1468.78070637994 372.20563959267713 2.5555648618321207 0.290971391497993 532.7136335653959 128.47354794870617
1511.9596306617696 384.7885678108729 2.653174660634515 0.29183610159891593 536.3662857953279 124.29352147323236
1556.3076521503385 397.750163361522 2.7530346067133142 0.29268786786647905 540.0438741161018 120.08043983462284
1601.8556471341146 411.10105766817355 2.8552006152109826 0.29354075633346266 543.7463790946406 115.83402823402147
1648.6076748929893 424.84501562473577 2.9596527775872175 0.29440983378158503 547.4708712870953 111.55733515278614
1696.5685692381048 438.98653662301257 3.066345255512969 0.2953216990013674 551.216467733508 107.25121265862495
1745.783129164464 453.5442207352243 3.1751457859428474 0.29612897800607474 554.9868210458568 102.92043325921533
1796.3337392544272 468.5307845036573 3.286648884979887 0.29677580983104157 558.781937487146 98.56120167640042
1848.2190172085539 483.9455508459931 3.40099062730097 0.2974122840042215 562.5981454122898 94.17241252650494
1901.4738551522007 499.80163189294234 3.5182502581300343 0.29806940252439684 566.4358348263322 89.75359314487972
1956.173774516205 516.1245265922425 3.638596555458161 0.29874949656532834 570.2982070044372 85.30105817681607
2012.3519137709493 532.9274192778179 3.7621050939298812 0.29945432701059893 574.1852909518561 80.81479775578055
2069.974924809932 550.2038099626249 3.8887056904782575 0.3001845666413496 578.0926279967849 76.30001786537717
2129.098485623248 567.9740541145272 4.018524254542482 0.30094178292930707 582.021979385741 71.7547763034923
2189.7946934483152 586.2637979606106 4.151722912921841 0.3017277507347682 585.9760320290837 67.17607420452606
2252.097389122553 605.0875231433808 4.288380075770398 0.3025481574665143 589.9548350790684 62.56398162912977
2315.967696101843 624.4385241563275 4.428414598209449 0.3034032960167199 593.9531011119569 57.924740245640024
2381.4860958318013 644.3459186850116 4.572008349651688 0.30428762121926844 597.9740527294582 53.25480274043256
2448.711191112577 664.8322593058451 4.719295764683386 0.3052023393689973 602.019805726412 48.55193449939878
2517.677497102528 685.9134752040021 4.870358557185114 0.3061509786540393 606.0904271513187 43.81626427590812
2588.3110673157544 707.5725072953591 5.025041468076609 0.30713286421192887 610.1797613821134 39.055184131647515
2660.724191604633 729.8495947976597 5.183597683974361 0.308149757133533 614.2925763096104 34.26338811865592
2734.9759382683355 752.7691543840713 5.346164393976121 0.3092024750742679 618.4303648993331 29.43938708699074
2811.1013167759565 776.348580645767 5.512826863549983 0.3102980582872288 622.5932101621104 24.583344463580712
2889.0179799239654 800.5701068713643 5.683414740412124 0.31144481810575364 626.7740504200112 19.703748648718392
2968.8983451412655 825.4959552200428 5.858319105961385 0.3126231624872515 630.9792782513232 14.793401496118614
3050.7569711971664 851.1357987298154 6.037601811620946 0.3137839066367665 635.2097160524316 9.851680809416319
