e[MeV/fm^3], P[MeV/fm^3], rho[fm^-3], v2[1], mu_q[MeV], mu_e[MeV]
70.21755168181654 0.006206087273093519 0.07407856508846018 0.017597877650005332 316.5185077347417 89.2771661002368
71.43578994790998 0.027644495228360377 0.07535555647246353 0.0175978776500052 316.5894798429086 89.8124074562691
72.67502861766434 0.04945246571785267 0.07665456106626496 0.017597877650005228 316.6616753923034 90.35687548400062
73.93562970314778 0.07163636938565421 0.07797595834102777 0.01759787765000538 316.7351154730202 90.91072923592193
75.21796145691394 0.09420268669514797 0.07932013430936638 0.01759787765000533 316.8098215387112 91.47413050632369
76.5223984795798 0.11715800982215896 0.0806874816381126 0.01759787765000522 316.8858154128541 92.04724387856187
77.84932182925448 0.14050904458066893 0.08207839976302188 0.017597877650005325 316.96311929512683 92.630236773136
79.19911913285509 0.16426261238173973 0.08349329500545777 0.017597877650005436 317.0417557678931 93.22327949659658
80.57218469934486 0.18842565222626206 0.08493258069109116 0.017597877650005332 317.12174780279906 93.82654529129692
81.96891963491473 0.21300522273190858 0.08639667727063695 0.017597877650005284 317.20311876748366 94.44021038599915
83.38973196016327 0.23800850419525207 0.0878860124426853 0.017597877650005242 317.2858924324053 95.06445404735784
84.83503672928572 0.26344280068923775 0.08940102127863886 0.01759787765000527 317.37009297778565 95.69945863228664
86.3052561513196 0.28931554219685157 0.0909421463498059 0.01759787765000538 317.45574500067295 96.34540964122833
87.80081971348744 0.3156342867816875 0.09250983785669148 0.017597877650005325 317.54287352212793 97.00249577234631
89.32216430665855 0.3424067227958098 0.09410455376051008 0.01759787765000531 317.63150399453286 97.67090897664707
90.86973435297011 0.3696406711256137 0.09572675991696154 0.017597877650005242 317.7216623090265 98.3508445140514
92.44398193566516 0.39734408747669764 0.0973769302123309 0.017597877650005228 317.8133748030682 99.04250101043964
94.04536693114535 0.4255250646977123 0.09905554670190979 0.01759787765000531 317.90666826813106 99.74608051566989
95.67435714332068 0.45419183514462985 0.10076309975082554 0.017892055534992374 318.00156995752883 100.46178856260559
97.33169327479138 0.4843410207312542 0.10250008817728433 0.018775745774211428 318.10048622561175 101.18570399772256
99.01814146064449 0.5170082040359527 0.10426701939828847 0.020025246310001077 318.2058447860128 101.91428658825437
100.73429318912723 0.5525181669555139 0.1060644095778678 0.02129999675038627 318.31828524079526 102.64750316311726
102.48063871606901 0.5907964457966746 0.10789278377786223 0.022549781036994038 318.43751805132047 103.38670836290729
104.25774423592242 0.6320103592916358 0.10975267611130558 0.023887708108000116 318.5638120290785 104.13237516689382
106.06623539667063 0.676492214395437 0.11164462989845152 0.025339806313660923 318.697770868173 104.88465247088972
107.90674784282342 0.7245234535359056 0.11356919782549418 0.026726883379044414 318.8398212612412 105.64215664334085
109.77980899298537 0.7757858510810522 0.11552694210601787 0.028008654354195556 318.9889635986241 106.39548846211913
111.68603200563659 0.8304189676497289 0.11751843464523576 0.02941848660514751 319.1453310518051 107.14305877628786
113.62612253642692 0.8889903796251314 0.1195442572070575 0.0310000273545607 319.31003653378224 107.89037199216354
115.60075117782822 0.9518318179215621 0.1216050015840337 0.03259969837934959 319.4836179784206 108.6399435927219
117.61049319554543 1.0189345897359714 0.12370126977023699 0.03419210470702347 319.6659546827271 109.3941654142798
119.65602415051524 1.0905481505064962 0.12583367413711752 0.03592218882239359 319.8573917239201 110.15411877028433
121.73815641876267 1.1672766767204164 0.12800283761239192 0.03778190969818496 320.0588603075681 110.92020174565145
123.85759205422588 1.2493614886182018 0.1302093938620144 0.0396255479711905 320.27062777688235 111.69348487044105
126.01496433860267 1.3368161240061027 0.13245398747528928 0.041461386350795104 320.4925793312381 112.47517112638602
128.2110155783424 1.429932568241939 0.13473727415316794 0.04346252473119688 320.7250671173629 113.26594974297757
130.4466887956552 1.52951487508801 0.1370599208997976 0.045590760196347446 320.969220213987 114.06610244230104
132.72270298041246 1.6357091714792171 0.13942260621736857 0.04767926014436641 321.22510082538804 114.87651716166351
135.03976205186157 1.748593799706529 0.14182602030432198 0.04977029748745049 321.49267975935425 115.69799950047124
137.3986835249372 1.8685229353243933 0.14427086525697244 0.05206400529136951 321.77234677231564 116.53110782929468
139.80057355445675 1.9965668028217445 0.14675785527460983 0.05448295484632937 322.0654823434704 117.37614392238619
142.24614757531495 2.1327305435734982 0.1492877168681315 0.05683638595368079 322.37191652081754 118.23384218287305
144.73619757503982 2.2771938463603174 0.15186118907227755 0.059208520968313694 322.69174413674494 119.10477732777403
147.27162660197732 2.430390920319256 0.15447902366151722 0.0618292055008095 323.0254080857181 119.98940983187808
149.85374556019306 2.5937403356179334 0.15714198536966398 0.06457197399617759 323.3745941649684 120.88804723823948
152.4832372283129 2.7670401807274834 0.15985085211327107 0.06721882453614525 323.7388555425644 121.80124809303793
155.16100474728017 2.9506159576823916 0.1626064152188807 0.06990575565196155 324.1184454344821 122.72942464238325
157.8880490867394 3.1450019316856195 0.16540947965419006 0.07289593855263288 324.5138717435153 123.67293532678868
160.66593902373984 3.3520690822739376 0.16826086426320178 0.07600220080988451 324.92718571735776 124.63202719571277
163.4952840125817 3.5713158744339593 0.17116140200542868 0.07897532922519734 325.3576004812541 125.6070903482084
166.37712853614147 3.8032695276021222 0.17411194019922174 0.08202037368123771 325.8055622707938 126.59840218489457
169.31260061973967 4.048620249866702 0.17711334076929286 0.08542133552471287 326.2716886567447 127.60620334892384
172.303551331823 4.309718566586897 0.18016648049850292 0.0889270452590527 326.7583492276527 128.63058410314463
175.35050383107742 4.585737524453315 0.1832722512839939 0.09226446929582366 327.26444376458807 129.67181814230588
178.45466868853612 4.877441713994387 0.18643156039773165 0.09572802473872655 327.7906096931573 130.73004905217363
181.61738960046912 5.18586172672753 0.18964533075154347 0.09956214286511778 328.3377308078966 131.80536363429957
184.84067158507494 5.5134958934314255 0.19291450116672415 0.10373013393142339 328.90808973361146 132.89762523650757
191.3890011225907 6.215663635977015 0.19949549403869754 0.008746544995057805 329.50063467169656 140.4230208440184
205.32918261274938 6.337592060619959 0.2497198887082608 0.008746544995057701 330.116072530961 132.3394410357497
259.71503496187455 6.813280365286145 0.4383098832537274 0.008746544995057684 330.7555888744374 123.93959802420252
316.32817998633686 7.308449785554331 0.6346233039357663 0.01525278608960158 331.42129567013734 115.19575178377332
356.21225355699374 8.099608053840347 0.7784741758656653 0.020028409902268063 332.11220306471756 107.50775753230697
397.1340478751296 8.927266423163159 0.9262674397306928 0.02186916042472234 332.8290718474655 99.56475487397043
436.15923838791105 9.841890739035874 1.0693677344274914 0.030016641661540583 333.57341318817043 91.62737164431807
467.34602673422603 10.9420020667931 1.1900793339152522 0.03527491563225413 334.34705688852574 84.21632459723818
499.6772733680214 12.082484064085833 1.3152206742565662 0.03952640312502603 335.149090910276 76.53331513717261
530.1713846877004 13.410085189857957 1.4432323685779433 0.04452836816431868 335.9803024130194 69.14463470189334
561.1296587286804 14.819786464631878 1.575644734781051 0.0482924283076657 336.84253077264475 61.60854372753356
592.0750373500607 16.399491810007408 1.7156970360294208 0.05325255784399047 337.73719306437926 53.8821462314011
623.1990174353754 18.125928260980164 1.8627651823866165 0.08290775697885944 338.6634726746745 45.95510563863106
641.6482582458043 19.955578840656024 1.9468092893892779 0.4098250782348831 339.6221443059857 38.22766947391334
645.7100168706141 21.897984881050697 1.959330012074405 0.4859335802710838 340.61534675451054 30.74336040909386
649.8087223604945 23.921595111464438 1.9717128151556396 0.5005289979936784 341.6439533067965 23.593833802106968
653.9518740901267 26.0238820248677 1.9840050472072555 0.5102272260330696 342.70726027181 16.726504859881494
658.2186429371646 28.213271840504188 1.9965042573879985 0.5142248295081675 343.8059831368225 10.227331536248048
662.6263594369727 30.48483265898412 2.0093518240868002 0.5154648203882308 344.9424917462097 3.744940884597167
667.229110258838 32.85789254792419 2.0226594002193576 0.5153035937690285 346.11701155796936 1.4648412212995727
672.0031207860796 35.316617043870686 2.036432741772628 0.5145783345069792 347.328966229596 0.0
676.9690243727517 37.86966730434712 2.050709837253668 0.5135221234053273 348.57896372915343 0.0
682.154058952183 40.52908236994471 2.065548875354198 0.5125262794289447 349.86949367684684 0.0
687.5384081977894 43.28660158411575 2.0809137323141025 0.511676015678511 351.2000887836266 0.0
693.1321089991819 46.14609092659816 2.096819275766321 0.5105410388410228 352.5703075794808 0.0
698.9627041561122 49.118855600111814 2.1133138403803353 0.5094051203577079 353.98060905644974 0.0
705.0217103692504 52.20250467745681 2.1303943445230074 0.5084563459021574 355.4334521442952 0.0
711.3118197388254 55.39761564801963 2.1480598139882443 0.5074523531384267 356.9277197298895 0.0
717.8390842607897 58.70646689613428 2.166318649396081 0.5062514944080094 358.4631014669581 0.0
724.6319886484595 62.140604494973815 2.185219265571392 0.5050141161609867 360.03988091456415 0.0
731.6868372101511 65.6994926524374 2.2047657809232706 0.5039106124009862 361.66030746350987 0.0
739.0039695195406 69.38250468575681 2.224950511107437 0.5027745015605953 363.3227610243933 0.0
746.5904848471056 73.19235588573206 2.245783762885754 0.5016057571511068 365.0270429856405 0.0
754.4549439973019 77.13247327660204 2.267279612598968 0.5004080075973381 366.7732551876847 0.0
762.6141146576822 81.21035129849771 2.289474085234946 0.4991836851505145 368.5632457970251 0.0
771.067994475922 85.42507275896533 2.312357256595126 0.4979376574487011 370.39513942729127 0.0
779.8245437563739 89.77969184534554 2.3359407658325178 0.4966729796010574 372.26881070045994 0.0
788.892430278885 94.27759196001342 2.3602379049314246 0.49539232799057675 374.18425749083553 0.0
798.285660079874 98.9247680575337 2.385275867171036 0.4940977512024016 376.1425479489815 0.0
808.0054845574839 103.72088444631731 2.411047616380897 0.4927928107989388 378.1420680020603 0.0
818.0600613727861 108.6690124632898 2.437564408495241 0.49147955238353713 380.18264288681297 0.0
828.4580510555901 113.77245044530537 2.4648385918246145 0.4901599506251575 382.2641765278808 0.0
839.2096380681245 119.03522035797442 2.4928862352947414 0.4888356619672365 384.38684656688184 0.0
850.3188877650985 124.45833283077178 2.5217072562840106 0.48750886792016157 386.54960838431725 0.0
861.7937361696469 130.0446831018167 2.5513115457792996 0.48618106153900786 388.75217980057613 0.0
873.6421830840452 135.7971812321492 2.5817089674614566 0.484831276136223 390.99427615507426 0.0
885.8774326815953 141.72068152339574 2.6129163908327846 0.4834099194370616 393.27543963785325 0.0
898.5209923754308 147.82324326481844 2.6449629714250804 0.4820040012062936 395.59516773161965 0.0
911.5631271051318 154.10075647847523 2.6778302838302888 0.48067046542995495 397.95311125729603 0.0
925.010473886538 160.5554154939206 2.7115240277398236 0.4793428246938225 400.3486982341418 0.0
938.8683945674118 167.18879681769982 2.7460466249106097 0.4779171242391351 402.78113502043635 0.0
953.1813158744591 174.01804622272977 2.7814636432458353 0.4764767664123992 405.2503908250171 0.0
967.929361560588 181.03508755075876 2.817741024540141 0.47514829733711483 407.7560864453435 0.0
983.1131965354213 188.2395566790365 2.8548727685684727 0.47376337099566257 410.2972643916196 0.0
998.7668275518866 195.6440629271598 2.892903240648497 0.47233026686835267 412.8731075256692 0.0
1014.8956818412814 203.25071935553032 2.931840369305733 0.4709819379567701 415.48395412590855 0.0
1031.4890163800765 211.0550235430316 2.971664124680717 0.4695858120301821 418.12942481666244 0.0
1048.5945133645412 219.07444090135465 3.012434197941797 0.4681669258846606 420.80808286670407 0.0
1066.1867690927802 227.2987178864912 3.054107876008852 0.46682403345757884 423.519388423576 0.0
1084.2907016171334 235.73758372097592 3.0967227192754057 0.46542207039247696 426.263926491692 0.0
1102.9387769090786 244.40312658052625 3.14032120743965 0.4640633884104721 429.04133904117657 0.0
1122.0916700350238 253.2789897123209 3.1848321300601286 0.462680367986251 431.84962364736657 0.0
1141.8222701604593 262.3928862768667 3.230357418091627 0.46131434128417315 434.68879187402194 0.0
1162.0817544583492 271.7263433147285 3.276829074789217 0.45995273834957917 437.55954505588323 0.0
1182.9588362949428 281.3128308425986 3.3243680654235415 0.4585890780997248 440.4615602408136 0.0
1204.3726329643885 291.11982806992614 3.372840950052088 0.45724683138311484 443.39219174670734 0.0
1226.420721964337 301.1847021028602 3.4223866183227916 0.45588908070318546 446.35224304333093 0.0
1249.0554230580665 311.48950212668456 3.472939799815346 0.4545703785360615 449.3424024244641 0.0
1272.347039863937 322.06051920100066 3.52459309876913 0.453223468333837 452.3623894048231 0.0
1296.2485151821509 332.87773862870324 3.57725645098816 0.45192836512921275 455.4088468583903 0.0
1320.803381464686 343.9584573681974 3.6309981699232514 0.4505984224314812 458.48357591050296 0.0
1346.049321921609 355.31697119081014 3.6858695027737824 0.4493094936764539 461.5871295346198 0.0
1371.9624996898565 366.9439168859639 3.7418332128057767 0.4480136592678905 464.7192724425523 0.0
1398.5810200838685 378.85092452196176 3.798909107011613 0.44670270372722154 467.87587687666405 0.0
1425.908643494214 391.0409174660141 3.857118345474831 0.44546780688735677 471.0599151315838 0.0
1453.9562856152384 403.5179461465364 3.9164741023662764 0.4441849679915304 474.2716930347005 0.0
1482.8000026014024 416.3101281133547 3.977071434015174 0.4428994159551811 477.5110201023164 0.0
1512.3630040591615 429.38537320803243 4.038770328881981 0.4416909951709682 480.77294680996494 0.0
1542.7008653907017 442.7668686396271 4.101669955260251 0.4404526811485381 484.06176219100337 0.0
1573.872019415442 456.4761201131055 4.165841566010785 0.4392003715827677 487.37742484726095 0.0
1605.8749805337886 470.51194300158176 4.231274804368872 0.4379951654927714 490.71942709513365 0.0
1638.6678721015621 484.8554567624581 4.297877009494812 0.4368170605312578 494.0830324628434 0.0
1672.318040926142 499.5343979275139 4.365764003655383 0.4356102975532279 497.47289006040484 0.0
1706.8861753176452 514.5709139170361 4.435006919351567 0.4344024451277999 500.8888825459008 0.0
1742.3556567744113 529.9578511348634 4.505571943973931 0.43324000994579315 504.3299917615031 0.0
1778.6992852142391 545.6822214917777 4.5773898379363285 0.43209496653793256 507.7922253856572 0.0
1815.9882827573101 561.7730593388275 4.6505792494197875 0.4309575336522862 511.2801267663313 0.0
1854.2472787688914 578.2390989079466 4.725164986666138 0.4298037348567618 514.7936148893198 0.0
1893.5162410174128 595.0936788668256 4.801178120992095 0.4286562082097438 518.3310928584808 0.0
1933.7562217670165 612.320014720976 4.878540825272683 0.42754602507893225 521.8894715714698 0.0
1975.036867582608 629.9463517545374 4.957366906212486 0.4264482188662333 525.4730848306887 0.0
2017.3848573329792 647.9821304198006 5.037682604195369 0.4253593584527593 529.0818842067226 0.0
2060.8009310560874 666.4257410634475 5.119464798011426 0.42428043649248437 532.7136335653959 0.0
2105.2865706851053 685.2759595548613 5.20269246991562 0.4232121657206056 536.3662857953279 0.0
2150.9182428292174 704.5632649324741 5.28748391596017 0.42215340885253383 540.0438741161018 0.0
2197.724927392205 724.2978886294517 5.373866947998887 0.4210982812730295 543.7463790946406 0.0
2245.7090412651983 744.4782637505068 5.461812980576402 0.42005189976264656 547.4708712870953 0.0
2294.87973904503 765.1067222974968 5.551318443851654 0.4190246102295525 551.216467733508 0.0
2345.3081059302053 786.2114419568514 5.642490780035869 0.41801101267559915 554.9868210458568 0.0
2397.025456388795 807.8034571395908 5.735359363757257 0.4170075070058594 558.781937487146 0.0
2450.012302587619 829.8726111335739 5.82986242456802 0.41601516415084827 562.5981454122898 0.0
2504.303693653825 852.4315434657086 5.9260363071427715 0.415034069811159 566.4358348263322 0.0
2559.976419826155 875.5101183727159 6.023989688923747 0.41406343908036103 570.2982070044372 0.0
2617.0644080047477 899.1202664259628 6.123753648422537 0.4131031765015827 574.1852909518561 0.0
2675.534645583484 923.2462691739515 6.225242564789724 0.4121544304407454 578.0926279967849 0.0
2735.4451605918807 947.9100598033812 6.328529755140442 0.41121691501521607 582.021979385741 0.0
2796.870970771536 973.1404060460154 6.433715688299029 0.41028999295505475 585.9760320290837 0.0
2859.848784115123 998.9501913410285 6.540833213623086 0.4093689504283713 589.9548350790684 0.0
2924.341833520976 1025.3216253951514 6.649782958257758 0.408455281814998 593.9531011119569 0.0
2990.4354488718827 1052.2875516643278 6.7606804855121165 0.4075560480129914 597.9740527294582 0.0
3058.1936024378597 1079.8722405030112 6.873607169022982 0.406670436511404 602.019805726412 0.0
3127.6561127054183 1108.0896386995703 6.988597783838153 0.4057954440535232 606.0904271513187 0.0
3198.754300537389 1136.9097101080697 7.105508486272605 0.4049322713785317 610.1797613821134 0.0
3271.607664745284 1166.3787621195042 7.224505517520659 0.4040798326557802 614.2925763096104 0.0
3346.2827037339493 1196.5214194038626 7.3456652513671745 0.4032378787965909 618.4303648993331 0.0
3422.8223848400808 1227.352705054086 7.4690243736347 0.40240167568660734 622.5932101621104 0.0
3501.152372699653 1258.839738622423 7.594421845652942 0.40156621714437346 626.7740504200112 0.0
3581.4554604805367 1291.0527385207806 7.722104526577958 0.40074457484561954 630.9792782513232 0.0
3663.755298742076 1324.0003692847915 7.852095812075203 0.3999434540531288 635.2097160524316 0.0
3748.0983702186127 1357.6988532492733 7.984434463511469 0.39913780714699953 639.4654611461091 0.0
