e[MeV/fm^3], P[MeV/fm^3], rho[fm^-3], v2[1], mu_q[MeV], mu_e[MeV]
70.21755168181654 0.006206087273093519 0.07407856508846018 0.017597877650005332 316.5185077347417 89.2771661002368
71.43578994790998 0.027644495228360377 0.07535555647246353 0.0175978776500052 316.5894798429086 89.8124074562691
72.67502861766434 0.04945246571785267 0.07665456106626496 0.017597877650005228 316.6616753923034 90.35687548400062
73.93562970314778 0.07163636938565421 0.07797595834102777 0.01759787765000538 316.7351154730202 90.91072923592193
75.21796145691394 0.09420268669514797 0.07932013430936638 0.01759787765000533 316.8098215387112 91.47413050632369
76.5223984795798 0.11715800982215896 0.0806874816381126 0.01759787765000522 316.8858154128541 92.04724387856187
77.84932182925448 0.14050904458066893 0.08207839976302188 0.017597877650005325 316.96311929512683 92.630236773136
79.19911913285509 0.16426261238173973 0.08349329500545777 0.017597877650005436 317.0417557678931 93.22327949659658
80.57218469934486 0.18842565222626206 0.08493258069109116 0.017597877650005332 317.12174780279906 93.82654529129692
81.96891963491473 0.21300522273190858 0.08639667727063695 0.017597877650005284 317.20311876748366 94.44021038599915
83.38973196016327 0.23800850419525207 0.0878860124426853 0.017597877650005242 317.2858924324053 95.06445404735784
84.83503672928572 0.26344280068923775 0.08940102127863886 0.01759787765000527 317.37009297778565 95.69945863228664
86.3052561513196 0.28931554219685157 0.0909421463498059 0.01759787765000538 317.45574500067295 96.34540964122833
87.80081971348744 0.3156342867816875 0.09250983785669148 0.017597877650005325 317.54287352212793 97.00249577234631
89.32216430665855 0.3424067227958098 0.09410455376051008 0.01759787765000531 317.63150399453286 97.67090897664707
90.86973435297011 0.3696406711256137 0.09572675991696154 0.017597877650005242 317.7216623090265 98.3508445140514
92.44398193566516 0.39734408747669764 0.0973769302123309 0.017597877650005228 317.8133748030682 99.04250101043964
94.04536693114535 0.4255250646977123 0.09905554670190979 0.01759787765000531 317.90666826813106 99.74608051566989
95.67435714332068 0.45419183514462985 0.10076309975082554 0.017892055534992374 318.00156995752883 100.46178856260559
97.33169327479138 0.4843410207312542 0.10250008817728433 0.018775745774211428 318.10048622561175 101.18570399772256
99.01814146064449 0.5170082040359527 0.10426701939828847 0.020025246310001077 318.2058447860128 101.91428658825437
100.73429318912723 0.5525181669555139 0.1060644095778678 0.02129999675038627 318.31828524079526 102.64750316311726
102.48063871606901 0.5907964457966746 0.10789278377786223 0.022549781036994038 318.43751805132047 103.38670836290729
104.25774423592242 0.6320103592916358 0.10975267611130558 0.023887708108000116 318.5638120290785 104.13237516689382
106.06623539667063 0.676492214395437 0.11164462989845152 0.025339806313660923 318.697770868173 104.88465247088972
107.90674784282342 0.7245234535359056 0.11356919782549418 0.026726883379044414 318.8398212612412 105.64215664334085
109.77980899298537 0.7757858510810522 0.11552694210601787 0.028008654354195556 318.9889635986241 106.39548846211913
111.68603200563659 0.8304189676497289 0.11751843464523576 0.02941848660514751 319.1453310518051 107.14305877628786
113.62612253642692 0.8889903796251314 0.1195442572070575 0.0310000273545607 319.31003653378224 107.89037199216354
115.60075117782822 0.9518318179215621 0.1216050015840337 0.03259969837934959 319.4836179784206 108.6399435927219
117.61049319554543 1.0189345897359714 0.12370126977023699 0.03419210470702347 319.6659546827271 109.3941654142798
119.65602415051524 1.0905481505064962 0.12583367413711752 0.03592218882239359 319.8573917239201 110.15411877028433
121.73815641876267 1.1672766767204164 0.12800283761239192 0.03778190969818496 320.0588603075681 110.92020174565145
123.85759205422588 1.2493614886182018 0.1302093938620144 0.0396255479711905 320.27062777688235 111.69348487044105
126.01496433860267 1.3368161240061027 0.13245398747528928 0.041461386350795104 320.4925793312381 112.47517112638602
128.2110155783424 1.429932568241939 0.13473727415316794 0.04346252473119688 320.7250671173629 113.26594974297757
130.4466887956552 1.52951487508801 0.1370599208997976 0.045590760196347446 320.969220213987 114.06610244230104
132.72270298041246 1.6357091714792171 0.13942260621736857 0.04767926014436641 321.22510082538804 114.87651716166351
135.03976205186157 1.748593799706529 0.14182602030432198 0.04977029748745049 321.49267975935425 115.69799950047124
137.3986835249372 1.8685229353243933 0.14427086525697244 0.05206400529136951 321.77234677231564 116.53110782929468
139.80057355445675 1.9965668028217445 0.14675785527460983 0.05448295484632937 322.0654823434704 117.37614392238619
142.24614757531495 2.1327305435734982 0.1492877168681315 0.05683638595368079 322.37191652081754 118.23384218287305
144.73619757503982 2.2771938463603174 0.15186118907227755 0.059208520968313694 322.69174413674494 119.10477732777403
147.27162660197732 2.430390920319256 0.15447902366151722 0.0618292055008095 323.0254080857181 119.98940983187808
149.85374556019306 2.5937403356179334 0.15714198536966398 0.06457197399617759 323.3745941649684 120.88804723823948
152.4832372283129 2.7670401807274834 0.15985085211327107 0.06721882453614525 323.7388555425644 121.80124809303793
155.16100474728017 2.9506159576823916 0.1626064152188807 0.06990575565196155 324.1184454344821 122.72942464238325
157.8880490867394 3.1450019316856195 0.16540947965419006 0.07289593855263288 324.5138717435153 123.67293532678868
160.66593902373984 3.3520690822739376 0.16826086426320178 0.07600220080988451 324.92718571735776 124.63202719571277
163.4952840125817 3.5713158744339593 0.17116140200542868 0.07897532922519734 325.3576004812541 125.6070903482084
166.37712853614147 3.8032695276021222 0.17411194019922174 0.08202037368123771 325.8055622707938 126.59840218489457
169.31260061973967 4.048620249866702 0.17711334076929286 0.08542133552471287 326.2716886567447 127.60620334892384
172.303551331823 4.309718566586897 0.18016648049850292 0.0889270452590527 326.7583492276527 128.63058410314463
175.35050383107742 4.585737524453315 0.1832722512839939 0.09226446929582366 327.26444376458807 129.67181814230588
178.45466868853612 4.877441713994387 0.18643156039773165 0.09572802473872655 327.7906096931573 130.73004905217363
181.61738960046912 5.18586172672753 0.18964533075154347 0.09956214286511778 328.3377308078966 131.80536363429957
184.84067158507494 5.5134958934314255 0.19291450116672415 0.10348029397253222 328.90808973361146 132.89762523650757
188.12508868773136 5.859506730761704 0.19624002664828616 0.10723125726635341 329.50063467169656 134.00704679883177
191.47199658539387 6.224818666062787 0.19962287866394354 0.11114950466071183 330.116072530961 135.1336328978941
194.88301649425165 6.610906017540677 0.2030640454278977 0.11544544815415358 330.7555888744374 136.2772622126371
198.3602890613904 7.020342674256472 0.2065645321895225 0.11979382346787826 331.42129567013734 137.43754067535426
201.9044613376726 7.452308308070558 0.2101253615270204 0.12397650239191993 332.11220306471756 138.61467605675114
205.5170562570145 7.907903230714149 0.21374757364614289 0.1283699626450635 332.8290718474655 139.80852765902867
209.2000509218192 8.389163756231573 0.21743222668406043 0.1331367755092301 333.57341318817043 141.01869117551004
212.95568685700158 8.89862029273525 0.22118039701847075 0.1379109881763032 334.34705688852574 142.2445530860434
216.7847142491265 9.435507109353031 0.224993179582034 0.1425209986125906 335.149090910276 143.4863497980139
220.6888478651131 10.001107919216421 0.22887168818223044 0.1473848211915132 335.9803024130194 144.74379875149575
224.67051841244387 10.598148441577159 0.23281705582673115 0.15260238957125072 336.84253077264475 146.0161250814302
228.73201076449018 11.228941923303356 0.23683043505437643 0.1577674592771845 337.73719306437926 147.30260528428684
232.87421847820065 11.892825884399452 0.2409129982718618 0.16276966708385543 338.6634726746745 148.60351662363965
237.09907459677976 12.591262929879372 0.2450659380962259 0.1680647442175771 339.6221443059857 149.91845083271977
241.4095830266287 13.327795359770137 0.24929046770324403 0.17367604335428166 340.61534675451054 151.2461733723472
245.80798450797525 14.104290408314728 0.25358782118182577 0.17916063314688135 341.6439533067965 152.5860269646372
250.29536865638684 14.920249387540146 0.2579592538945237 0.18448376658109078 342.70726027181 153.9383214680799
254.87391430339358 15.777295306389933 0.26240604284425445 0.19013115054428797 343.8059831368225 155.30255316107613
259.54734193097937 16.679902122692877 0.2669294870473437 0.19603884001981875 344.9424917462097 156.67695034502995
264.3177234138911 17.62921742422393 0.2715309079130002 0.20173455319505607 346.11701155796936 158.06114921462316
269.1864120746621 18.624978432827973 0.2762116496293318 0.20727097595137622 347.328966229596 159.45546560193614
274.15586021544175 19.66893704821644 0.28097307955601647 0.2131521958171756 348.57896372915343 160.8593430130801
279.2306731431928 20.76658998854091 0.28581658862374093 0.21922189252154145 349.86949367684684 162.27041922778363
284.412585417037 21.918069468750467 0.29074359174052566 0.2249894143101847 351.2000887836266 163.68887481305947
289.7032992122702 23.123430865940225 0.29575552820505524 0.2306016920899494 352.5703075794808 165.1149897852477
295.1055673860831 24.38451504681977 0.300853862127132 0.23656661428271297 353.98060905644974 166.5482047162215
300.6250734626658 25.70790002720107 0.3060400828553784 0.24263779812409947 355.4334521442952 167.985546141962
306.2629978571605 27.092417065261266 0.3113157054123131 0.24831998114039466 356.9277197298895 169.42797804232237
312.0214966673664 28.538529352055203 0.3166822709369256 0.2538541104542591 358.4631014669581 170.8756920374787
317.9036494111742 30.048126085066315 0.3221413471348811 0.2597359108053192 360.03988091456415 172.3281747479247
323.9164360611114 31.628890065835524 0.32769452873648597 0.2656390932017807 361.66030746350987 173.78185544558517
330.06021547034334 33.278110584552124 0.3333434379625472 0.2710787578055842 363.3227610243933 175.23867305073648
336.3377248306841 34.996751726455315 0.3390897249982634 0.27638164452897485 365.0270429856405 176.69867300893014
342.75239563416363 36.78671837750218 0.3449350684752844 0.2820159576097043 366.7732551876847 178.16142771359964
349.3127469329602 38.65679115669434 0.35088117596208035 0.28759239956345484 368.5632457970251 179.62281308437977
356.0179982424811 40.60254779373834 0.3569297844627652 0.2926507180164095 370.39513942729127 181.08586093941702
362.87161894726887 42.62554485678177 0.3630826609245175 0.2976058496429581 372.26881070045994 182.55041400308298
369.8776838050342 44.72802159039085 0.3693416027537498 0.3028324596598386 374.18425749083553 184.01597196044224
377.04571989459646 46.91882012835673 0.3757084383411748 0.30793255850782497 376.1425479489815 185.47847044374714
384.37423920137996 49.19272886637786 0.3821850275959231 0.3125215544923945 378.1420680020603 186.9415202760738
391.8673537720589 51.551645656583794 0.38877326248886857 0.31704011341831206 380.18264288681297 188.40489537630313
399.53022857376277 53.998550771733285 0.3954750676053199 0.32173794710659864 382.2641765278808 189.86781153455445
407.3724291860139 56.54109433027862 0.4022924007072386 0.3262560177033471 384.38684656688184 191.32699317636136
415.3926093188036 59.174483419942426 0.40922725330514964 0.33032373141907057 386.54960838431725 192.78593445174437
423.5953061809909 61.90062597545923 0.41628165123991057 0.3343330679737635 388.75217980057613 194.2445223409546
431.9870027817532 64.72329723895402 0.4234576552745099 0.33844367777413575 390.99427615507426 195.70167441052624
440.5770251421459 67.64881573370899 0.43075736169606577 0.34234063934627335 393.27543963785325 197.1549973649513
449.3643086509324 70.67296114055506 0.4381829029282034 0.34585294088734964 395.59516773161965 198.60775365438798
458.3538473549931 73.79767867736162 0.4457364481539887 0.3493186232354084 397.95311125729603 200.05992813734576
467.5536981515388 77.027587172091 0.45342020394959914 0.35282403402270646 400.3486982341418 201.51013545137317
476.9726258790827 80.36760327959247 0.4612364149289199 0.35610018974828783 402.78113502043635 202.95689176523837
486.6100156532322 83.81420550185936 0.4691873643992499 0.3590573204431635 405.2503908250171 204.40314259136073
496.47135452575156 87.36941208352289 0.4772753750283123 0.36197834849888366 407.7560864453435 205.84894995866304
506.56655900314644 91.03873246762508 0.4855028095227629 0.36489385448832223 410.2972643916196 207.29262843749711
516.9034684719422 94.82566064673001 0.4938720713183944 0.36757989436499905 412.8731075256692 208.73358290625708
527.4821139822687 98.72747146381049 0.5023856052822402 0.3700084324005575 415.48395412590855 210.17438737708488
538.3085169951437 102.74629564781578 0.5110458984267782 0.3724093515593818 418.12942481666244 211.61515947844745
549.3947716703991 106.88858307175066 0.5198554806364498 0.37477404613277354 420.80808286670407 213.0539215761969
560.7473841545874 111.15641113021425 0.5288169254067018 0.37709307950156656 423.519388423576 214.4909179400455
563.1311251055986 112.0553190002963 0.5306921198083192 0.06226138563320527 426.263926491692 205.13807799823223
685.965375205829 120.67364590976361 0.9297660238504951 0.07806310696450125 429.04133904117657 192.96462384035672
752.189363632899 126.12538483768445 1.143101351363555 0.08773637751915386 431.84962364736657 180.80145034981473
816.3883538816536 132.0948955310905 1.3488930245066264 0.09750271007396494 434.68879187402194 168.68428075378915
879.1871084963086 138.4954939917767 1.549534316642605 0.10766012101103328 437.55954505588323 156.58283787158652
940.2418136956669 145.40923810283704 1.7439181239579757 0.11791299730093963 440.4615602408136 144.54022550475398
1000.1062129238027 152.74240837133948 1.9340291301860322 0.12831125942773625 443.39219174670734 132.5348796645548
1058.5561344205069 160.57404181937758 2.1190925715732862 0.13895507794025708 446.35224304333093 120.60230908221999
1115.993070629095 168.83550132249792 2.300389237272247 0.14980508219292776 449.3424024244641 108.71299064813387
1172.1014937142575 177.56803530035052 2.476520057368041 0.15978327339273513 452.3623894048231 96.93951730660325
1228.0110065439937 186.7324471632113 2.652378883928786 0.16792457907933467 455.4088468583903 85.25642510240216
1283.988884820368 196.35722691469144 2.82913458087977 0.17604223428548926 458.48357591050296 73.64445068900253
1340.0991944981915 206.4657902905059 3.0070686244152203 0.18387092118378834 461.5871295346198 62.108229547852915
1396.4287277636831 217.0332767498179 3.186450020852375 0.19171357448954662 464.7192724425523 50.63354882773389
1452.9430366729896 228.10100886918158 3.367357805787613 0.19946701381181264 467.87587687666405 39.255509268599575
1509.837126358293 239.65727596202942 3.5505700729269596 0.20590285285762544 471.0599151315838 27.9469018888616
1567.571542299964 251.70805854247487 3.7386536411706035 0.20662675307967926 474.2716930347005 16.698927150578342
1629.3846455722025 264.3412465448066 3.9508458041987766 0.2598680825360935 477.5110201023164 5.46100898351247
1673.1540801962826 277.43534593279213 4.0571475064682145 0.31522069872197633 480.77294680996494 0.0
1713.9629624450895 290.91020639394145 4.14175430095778 0.330214890060085 484.06176219100337 0.0
1755.9908381011455 304.78932777601614 4.228274050900041 0.33025582796917563 487.37742484726095 0.0
1799.2370217905464 319.0725102550949 4.31669265542472 0.33029511708878134 490.71942709513365 0.0
1843.646200067746 333.74151056186815 4.406884925455495 0.3303334158160869 494.0830324628434 0.0
1889.3138255892884 348.8279365481578 4.499013822120635 0.33037253609886985 497.47289006040484 0.0
1936.3329348013206 364.3627164324846 4.593194570072091 0.3304115938788912 500.8888825459008 0.0
1984.6807462143888 380.33832317223994 4.6893778710466885 0.33044908071345835 504.3299917615031 0.0
2034.3231220431271 396.74353165031465 4.787472487333017 0.3304859088469576 507.7922253856572 0.0
2085.361744063322 413.6120254300391 4.887646472783427 0.3305223972275164 511.2801267663313 0.0
2137.8350012956535 430.9565782229856 4.989940219032603 0.33055931256684623 514.7936148893198 0.0
2191.8072463158546 448.7986337520515 5.094411931889213 0.3305959382675234 518.3310928584808 0.0
2247.225123595375 467.12055988475595 5.200951934859805 0.33063128027633537 521.8894715714698 0.0
2304.1884290828125 485.9554222417988 5.309721547623504 0.33066614059289234 525.4730848306887 0.0
2362.7387979478144 505.31707579951956 5.420763303870774 0.330700631421299 529.0818842067226 0.0
2422.8820098191513 525.2075189567176 5.534051337628296 0.33073472389358294 532.7136335653959 0.0
2484.6246987901836 545.6290297492113 5.649562209733232 0.33076839811816683 536.3662857953279 0.0
2548.0777465732085 566.6183695214704 5.767466005497774 0.3308016925429893 540.0438741161018 0.0
2613.2864375075274 588.1906087949583 5.887807643458213 0.3308347935592346 543.7463790946406 0.0
2680.2605280024018 610.3490911481272 6.010555984243254 0.33086754405750707 547.4708712870953 0.0
2749.0165500175767 633.0993554968139 6.135709775149801 0.33089962219252644 551.216467733508 0.0
2819.657969351251 656.4757117209377 6.263423549976374 0.3309311998591218 554.9868210458568 0.0
2892.233771415974 680.4944631179433 6.393744614848354 0.3309623922611369 558.781937487146 0.0
2966.7216036722443 705.1483031900146 6.526592135145646 0.33099316856556715 562.5981454122898 0.0
3043.1755797238916 730.4552306147215 6.662022694159887 0.33102352858937234 566.4358348263322 0.0
3121.7088886340907 756.4528038597023 6.8001951155219125 0.33105349901519165 570.2982070044372 0.0
3202.3746632548514 783.1587077493614 6.941159335386625 0.3310830850998814 574.1852909518561 0.0
3285.1313631032504 810.5592823032698 7.084800094497284 0.33111225380972 578.0926279967849 0.0
3370.066090229526 838.6834571604018 7.231226570554949 0.33114101627855064 582.021979385741 0.0
3457.290427536015 867.5682752667539 7.380586979741262 0.3311693943152898 585.9760320290837 0.0
3546.861925856794 897.2328931150539 7.532934009352593 0.3311975336783224 589.9548350790684 0.0
3638.735022584809 927.6623422673482 7.688134461372976 0.33122539101457793 593.9531011119569 0.0
3733.0363396934267 958.8986532568582 7.846358147379023 0.33125275293208123 597.9740527294582 0.0
3829.8616790444594 990.9736417250353 8.007725421801458 0.3312796463351342 602.019805726412 0.0
3929.2735385766086 1023.9081121676672 8.172291984073292 0.3313061649352287 606.0904271513187 0.0
4031.1789131628543 1057.6713480966373 8.339857395643817 0.3313322744164866 610.1797613821134 0.0
4135.754354946381 1092.3219398865858 8.510665261758085 0.33135800969023066 614.2925763096104 0.0
4243.100941355111 1127.893480369605 8.684831052848827 0.33138338022203584 618.4303648993331 0.0
4353.286178776558 1164.4084424676212 8.862413466280433 0.3314085298983782 622.5932101621104 0.0
4466.2103184965845 1201.8338997810804 9.043188970344985 0.3314336103178448 626.7740504200112 0.0
4582.14494677988 1240.260005733422 9.22752280760813 0.33145823165472255 630.9792782513232 0.0
4701.126248184189 1279.6987919558755 9.415448491515608 0.33148219390912104 635.2097160524316 0.0
4823.22732635816 1320.1745960288733 9.607027991299603 0.3315062854444726 639.4654611461091 0.0
