e[MeV/fm^3], P[MeV/fm^3], rho[fm^-3], v2[1], mu_q[MeV], mu_e[MeV]
70.21755168181654 0.006206087273093519 0.07407856508846018 0.017597877650005332 316.5185077347417 89.2771661002368
71.43578994790998 0.027644495228360377 0.07535555647246353 0.0175978776500052 316.5894798429086 89.8124074562691
72.67502861766434 0.04945246571785267 0.07665456106626496 0.017597877650005228 316.6616753923034 90.35687548400062
73.93562970314778 0.07163636938565421 0.07797595834102777 0.01759787765000538 316.7351154730202 90.91072923592193
75.21796145691394 0.09420268669514797 0.07932013430936638 0.01759787765000533 316.8098215387112 91.47413050632369
76.5223984795798 0.11715800982215896 0.0806874816381126 0.01759787765000522 316.8858154128541 92.04724387856187
77.84932182925448 0.14050904458066893 0.08207839976302188 0.017597877650005325 316.96311929512683 92.630236773136
79.19911913285509 0.16426261238173973 0.08349329500545777 0.017597877650005436 317.0417557678931 93.22327949659658
80.57218469934486 0.18842565222626206 0.08493258069109116 0.017597877650005332 317.12174780279906 93.82654529129692
81.96891963491473 0.21300522273190858 0.08639667727063695 0.017597877650005284 317.20311876748366 94.44021038599915
83.38973196016327 0.23800850419525207 0.0878860124426853 0.017597877650005242 317.2858924324053 95.06445404735784
84.83503672928572 0.26344280068923775 0.08940102127863886 0.01759787765000527 317.37009297778565 95.69945863228664
86.3052561513196 0.28931554219685157 0.0909421463498059 0.01759787765000538 317.45574500067295 96.34540964122833
87.80081971348744 0.3156342867816875 0.09250983785669148 0.017597877650005325 317.54287352212793 97.00249577234631
89.32216430665855 0.3424067227958098 0.09410455376051008 0.01759787765000531 317.63150399453286 97.67090897664707
90.86973435297011 0.3696406711256137 0.09572675991696154 0.017597877650005242 317.7216623090265 98.3508445140514
92.44398193566516 0.39734408747669764 0.0973769302123309 0.017597877650005228 317.8133748030682 99.04250101043964
94.04536693114535 0.4255250646977123 0.09905554670190979 0.01759787765000531 317.90666826813106 99.74608051566989
95.67435714332068 0.45419183514462985 0.10076309975082554 0.017892055534992374 318.00156995752883 100.46178856260559
97.33169327479138 0.4843410207312542 0.10250008817728433 0.018775745774211428 318.10048622561175 101.18570399772256
99.01814146064449 0.5170082040359527 0.10426701939828847 0.020025246310001077 318.2058447860128 101.91428658825437
100.73429318912723 0.5525181669555139 0.1060644095778678 0.02129999675038627 318.31828524079526 102.64750316311726
102.48063871606901 0.5907964457966746 0.10789278377786223 0.022549781036994038 318.43751805132047 103.38670836290729
104.25774423592242 0.6320103592916358 0.10975267611130558 0.023887708108000116 318.5638120290785 104.13237516689382
106.06623539667063 0.676492214395437 0.11164462989845152 0.025339806313660923 318.697770868173 104.88465247088972
107.90674784282342 0.7245234535359056 0.11356919782549418 0.026726883379044414 318.8398212612412 105.64215664334085
109.77980899298537 0.7757858510810522 0.11552694210601787 0.028008654354195556 318.9889635986241 106.39548846211913
111.68603200563659 0.8304189676497289 0.11751843464523576 0.02941848660514751 319.1453310518051 107.14305877628786
113.62612253642692 0.8889903796251314 0.1195442572070575 0.0310000273545607 319.31003653378224 107.89037199216354
115.60075117782822 0.9518318179215621 0.1216050015840337 0.03259969837934959 319.4836179784206 108.6399435927219
117.61049319554543 1.0189345897359714 0.12370126977023699 0.03419210470702347 319.6659546827271 109.3941654142798
119.65602415051524 1.0905481505064962 0.12583367413711752 0.03592218882239359 319.8573917239201 110.15411877028433
121.73815641876267 1.1672766767204164 0.12800283761239192 0.03778190969818496 320.0588603075681 110.92020174565145
123.85759205422588 1.2493614886182018 0.1302093938620144 0.0396255479711905 320.27062777688235 111.69348487044105
126.01496433860267 1.3368161240061027 0.13245398747528928 0.041461386350795104 320.4925793312381 112.47517112638602
128.2110155783424 1.429932568241939 0.13473727415316794 0.04346252473119688 320.7250671173629 113.26594974297757
130.4466887956552 1.52951487508801 0.1370599208997976 0.045590760196347446 320.969220213987 114.06610244230104
132.72270298041246 1.6357091714792171 0.13942260621736857 0.04767926014436641 321.22510082538804 114.87651716166351
135.03976205186157 1.748593799706529 0.14182602030432198 0.04977029748745049 321.49267975935425 115.69799950047124
137.3986835249372 1.8685229353243933 0.14427086525697244 0.05206400529136951 321.77234677231564 116.53110782929468
139.80057355445675 1.9965668028217445 0.14675785527460983 0.05448295484632937 322.0654823434704 117.37614392238619
142.24614757531495 2.1327305435734982 0.1492877168681315 0.05683638595368079 322.37191652081754 118.23384218287305
144.73619757503982 2.2771938463603174 0.15186118907227755 0.059208520968313694 322.69174413674494 119.10477732777403
147.27162660197732 2.430390920319256 0.15447902366151722 0.0618292055008095 323.0254080857181 119.98940983187808
149.85374556019306 2.5937403356179334 0.15714198536966398 0.06457197399617759 323.3745941649684 120.88804723823948
152.4832372283129 2.7670401807274834 0.15985085211327107 0.06721882453614525 323.7388555425644 121.80124809303793
155.16100474728017 2.9506159576823916 0.1626064152188807 0.06990575565196155 324.1184454344821 122.72942464238325
157.8880490867394 3.1450019316856195 0.16540947965419006 0.07289593855263288 324.5138717435153 123.67293532678868
160.66593902373984 3.3520690822739376 0.16826086426320178 0.07600220080988451 324.92718571735776 124.63202719571277
163.4952840125817 3.5713158744339593 0.17116140200542868 0.07897532922519734 325.3576004812541 125.6070903482084
166.37712853614147 3.8032695276021222 0.17411194019922174 0.08202037368123771 325.8055622707938 126.59840218489457
169.31260061973967 4.048620249866702 0.17711334076929286 0.08542133552471287 326.2716886567447 127.60620334892384
172.303551331823 4.309718566586897 0.18016648049850292 0.0889270452590527 326.7583492276527 128.63058410314463
175.35050383107742 4.585737524453315 0.1832722512839939 0.09226446929582366 327.26444376458807 129.67181814230588
178.45466868853612 4.877441713994387 0.18643156039773165 0.09572802473872655 327.7906096931573 130.73004905217363
181.61738960046912 5.18586172672753 0.18964533075154347 0.09956214286511778 328.3377308078966 131.80536363429957
184.84067158507494 5.5134958934314255 0.19291450116672415 0.10348029397253222 328.90808973361146 132.89762523650757
188.12508868773136 5.859506730761704 0.19624002664828616 0.10723125726635341 329.50063467169656 134.00704679883177
191.47199658539387 6.224818666062787 0.19962287866394354 0.11114950466071183 330.116072530961 135.1336328978941
194.88301649425165 6.610906017540677 0.2030640454278977 0.11544544815415358 330.7555888744374 136.2772622126371
198.3602890613904 7.020342674256472 0.2065645321895225 0.11979382346787826 331.42129567013734 137.43754067535426
201.9044613376726 7.452308308070558 0.2101253615270204 0.12397650239191993 332.11220306471756 138.61467605675114
205.5170562570145 7.907903230714149 0.21374757364614289 0.1283699626450635 332.8290718474655 139.80852765902867
209.2000509218192 8.389163756231573 0.21743222668406043 0.1331367755092301 333.57341318817043 141.01869117551004
212.95568685700158 8.89862029273525 0.22118039701847075 0.1379109881763032 334.34705688852574 142.2445530860434
216.7847142491265 9.435507109353031 0.224993179582034 0.1425209986125906 335.149090910276 143.4863497980139
220.6888478651131 10.001107919216421 0.22887168818223044 0.1473848211915132 335.9803024130194 144.74379875149575
224.67051841244387 10.598148441577159 0.23281705582673115 0.15260238957125072 336.84253077264475 146.0161250814302
228.73201076449018 11.228941923303356 0.23683043505437643 0.1577674592771845 337.73719306437926 147.30260528428684
232.87421847820065 11.892825884399452 0.2409129982718618 0.16276966708385543 338.6634726746745 148.60351662363965
237.09907459677976 12.591262929879372 0.2450659380962259 0.1680647442175771 339.6221443059857 149.91845083271977
241.4095830266287 13.327795359770137 0.24929046770324403 0.17367604335428166 340.61534675451054 151.2461733723472
245.80798450797525 14.104290408314728 0.25358782118182577 0.17916063314688135 341.6439533067965 152.5860269646372
250.29536865638684 14.920249387540146 0.2579592538945237 0.18448376658109078 342.70726027181 153.9383214680799
254.87391430339358 15.777295306389933 0.26240604284425445 0.19013115054428797 343.8059831368225 155.30255316107613
259.54734193097937 16.679902122692877 0.2669294870473437 0.19603884001981875 344.9424917462097 156.67695034502995
264.3177234138911 17.62921742422393 0.2715309079130002 0.20173455319505607 346.11701155796936 158.06114921462316
269.1864120746621 18.624978432827973 0.2762116496293318 0.20727097595137622 347.328966229596 159.45546560193614
274.15586021544175 19.66893704821644 0.28097307955601647 0.2131521958171756 348.57896372915343 160.8593430130801
279.2306731431928 20.76658998854091 0.28581658862374093 0.21922189252154145 349.86949367684684 162.27041922778363
284.412585417037 21.918069468750467 0.29074359174052566 0.2249894143101847 351.2000887836266 163.68887481305947
289.7032992122702 23.123430865940225 0.29575552820505524 0.2306016920899494 352.5703075794808 165.1149897852477
295.1055673860831 24.38451504681977 0.300853862127132 0.23656661428271297 353.98060905644974 166.5482047162215
300.6250734626658 25.70790002720107 0.3060400828553784 0.24263779812409947 355.4334521442952 167.985546141962
306.2629978571605 27.092417065261266 0.3113157054123131 0.24831998114039466 356.9277197298895 169.42797804232237
312.0214966673664 28.538529352055203 0.3166822709369256 0.2538541104542591 358.4631014669581 170.8756920374787
317.9036494111742 30.048126085066315 0.3221413471348811 0.2597359108053192 360.03988091456415 172.3281747479247
323.9164360611114 31.628890065835524 0.32769452873648597 0.2656390932017807 361.66030746350987 173.78185544558517
330.06021547034334 33.278110584552124 0.3333434379625472 0.2710787578055842 363.3227610243933 175.23867305073648
336.3377248306841 34.996751726455315 0.3390897249982634 0.27638164452897485 365.0270429856405 176.69867300893014
342.75239563416363 36.78671837750218 0.3449350684752844 0.2820159576097043 366.7732551876847 178.16142771359964
349.3127469329602 38.65679115669434 0.35088117596208035 0.28759239956345484 368.5632457970251 179.62281308437977
356.0179982424811 40.60254779373834 0.3569297844627652 0.2926507180164095 370.39513942729127 181.08586093941702
362.87161894726887 42.62554485678177 0.3630826609245175 0.2976058496429581 372.26881070045994 359.15414894555994
369.8776838050342 44.72802159039085 0.3693416027537498 0.3028324596598386 374.18425749083553 320.1232624690943
377.04571989459646 46.91882012835673 0.3757084383411748 0.30793255850782497 376.1425479489815 280.21935443892016
384.37423920137996 49.19272886637786 0.3821850275959231 0.31263174454758946 378.1420680020603 239.4753146716592
394.7399336961359 52.46559670746471 0.39129680522985416 0.0037493853969515142 380.18264288681297 197.89470430247658
814.1575080151383 55.19098344018769 1.6581888336232677 0.009246668653230351 382.2641765278808 155.75722435768182
1311.7611284479865 61.41486044302393 3.1875071320516217 0.0164335618012445 384.38684656688184 113.4224220117153
1771.9707547164755 70.64869136993872 4.654727557647035 0.052086676855209235 386.54960838431725 68.706263541139
1946.937551821615 81.89226852116195 5.217954624773276 0.7211510675806085 388.75217980057613 26.62128487375504
1962.039009745006 93.63889993734377 5.2575367538824205 0.8150359147664368 390.99427615507426 2.23706033234037
1976.1975615014615 105.6722863235867 5.293661965805596 0.8496433651988688 393.27543963785325 0.0
1990.7113963252664 118.0000166261814 5.330450260078165 0.8487099672651084 395.59516773161965 0.0
2005.588268563343 130.6159813297211 5.367942652805338 0.8473514984267809 397.95311125729603 0.0
2020.830315816725 143.52083000462767 5.406134626905989 0.8459817105425422 400.3486982341418 0.0
2036.4381985504237 156.7139548064702 5.445018077729632 0.8444895525270208 402.78113502043635 0.0
2052.439595118149 170.21390140755202 5.484614614183514 0.8429638755492741 405.2503908250171 0.0
2068.819908920826 184.01002309840007 5.5249085714256765 0.8415365019745824 407.7560864453435 0.0
2085.5761772399774 198.0990113465402 5.5658871840782345 0.8400271244584454 410.2972643916196 0.0
2102.726784868387 212.4920867407736 5.607556127931952 0.8384449051137661 412.8731075256692 0.0
2120.2752020878634 227.19161081056498 5.6499218568523455 0.8369359367755713 415.48395412590855 0.0
2138.2127914024563 242.19103476883942 5.692973401653526 0.8353491648905784 418.12942481666244 0.0
2156.564162133776 257.50485048945467 5.736714609431541 0.8337166712388253 420.80808286670407 0.0
2175.3110377884427 273.11985252149793 5.7811251130935775 0.832148056843212 423.519388423576 0.0
2194.4695391136693 289.0470780747584 5.826224059858486 0.8304867579977717 426.263926491692 0.0
2214.0574785418835 305.29751757753985 5.872021650645053 0.8288558718085577 429.04133904117657 0.0
2234.0439452496266 321.8479461165284 5.918471547293123 0.8271682616979028 431.84962364736657 0.0
2254.4720553090688 338.726356993021 5.965608008333149 0.8254818153730623 434.68879187402194 0.0
2275.313397629436 355.9145001631603 6.013416143994202 0.8237713167168232 437.55954505588323 0.0
2296.6190342849945 373.4449444072369 6.061932827877786 0.8220386162191513 440.4615602408136 0.0
2318.33149819512 391.2764081909764 6.111083660154091 0.8203030036979317 443.39219174670734 0.0
2340.509949911509 409.44789782264223 6.160924169047115 0.8185265265052823 446.35224304333093 0.0
2363.127136903131 427.9421139968491 6.211440231631978 0.8167718051774369 449.3424024244641 0.0
2386.2222446401306 446.7835086456689 6.262659701912821 0.8149562819556664 452.3623894048231 0.0
2409.755891870499 465.9417481884626 6.3145147115600215 0.8131833980501213 455.4088468583903 0.0
2433.7578624810885 485.43783702067026 6.367048365184128 0.8113360132121663 458.48357591050296 0.0
2458.2502544882304 505.28604522767387 6.420284031985875 0.8095208113538757 461.5871295346198 0.0
2483.217327109386 525.4754768830331 6.4742066006350685 0.8076663282317575 464.7192724425523 0.0
2508.6660670001884 546.0042501232052 6.528776332223193 0.8057650071315337 467.87587687666405 0.0
2534.6068004479366 566.8824156323607 6.584033700065892 0.8039468990646039 471.0599151315838 0.0
2561.0454264002065 588.1135748244158 6.639986549758574 0.8020287228027136 474.2716930347005 0.0
2588.0225504961436 609.7222859195568 6.696664566097407 0.8000806608110622 477.5110201023164 0.0
2615.4770260521695 631.6623583432107 6.753965269883799 0.7982212797806305 480.77294680996494 0.0
2643.452878856903 653.9669825235936 6.811970044204117 0.7962872158720788 484.06176219100337 0.0
2671.9807723251533 676.6544607751831 6.870702278828595 0.7943036272605628 487.37742484726095 0.0
2701.056442484794 699.7206292858564 6.930152802134439 0.7923663525249012 490.71942709513365 0.0
2730.639032164745 723.1323218959668 6.990237381723752 0.7904448318384212 494.0830324628434 0.0
2760.779923671323 746.9276685342505 7.051047021383431 0.7884470088639972 497.47289006040484 0.0
2791.509932915567 771.124583744196 7.112604217104615 0.7864192709560598 500.8888825459008 0.0
2822.814679619547 795.7118542160248 7.174886209726962 0.7844386118553075 504.3299917615031 0.0
2854.6636786764284 820.6637465072153 7.237824967924681 0.782459276519571 507.7922253856572 0.0
2887.1096448026938 846.0188600084592 7.3015112533729125 0.7804648620965633 511.2801267663313 0.0
2920.163692254598 871.7829881880888 7.365952460822092 0.7784117420660888 514.7936148893198 0.0
2953.839321018147 897.9607149308988 7.431141052430943 0.7763410646479532 518.3310928584808 0.0
2988.1027465886573 924.5256703311995 7.49701626846359 0.7743081957029556 521.8894715714698 0.0
3023.004716077178 951.5147491394763 7.563664895593521 0.772269156782377 525.4730848306887 0.0
3058.5571548983526 978.9341063745687 7.631095174014259 0.7702179088280054 529.0818842067226 0.0
3094.750195550655 1006.7730848455196 7.699274241372928 0.7681564653500015 532.7136335653959 0.0
3131.5749712340116 1035.0219090424882 7.768172063006997 0.7660863858258367 536.3662857953279 0.0
3169.08430175519 1063.718010746438 7.837873551763813 0.7640056755809947 540.0438741161018 0.0
3207.291013008965 1092.8679400148774 7.90838779961614 0.7619025311081113 543.7463790946406 0.0
3246.182988092361 1122.4582422486585 7.979672326051558 0.7597875269700864 547.4708712870953 0.0
3285.759368710767 1152.4857741448043 8.051716015864622 0.757681796676458 551.216467733508 0.0
3326.0684032271915 1182.9844265013446 8.12459587234223 0.7555749844204307 554.9868210458568 0.0
3367.1238339099373 1213.9611530897482 8.198321799271415 0.7534601390990829 558.781937487146 0.0
3408.8991760886634 1245.392587503197 8.272831868240024 0.7513398445362114 562.5981454122898 0.0
3451.4113855021847 1277.2881846849673 8.348142627495385 0.7492146551090801 566.4358348263322 0.0
3494.709452264717 1309.6812313656649 8.424326423432078 0.7470832361938466 570.2982070044372 0.0
3538.808131169088 1342.5791193530172 8.501393985708159 0.7449457326728677 574.1852909518561 0.0
3583.6706609157372 1375.9508700109898 8.579266559541475 0.7428051041006736 578.0926279967849 0.0
3629.3306032120145 1409.8179652037295 8.657988475686754 0.7406611434893833 582.021979385741 0.0
3675.833597936083 1444.2105669489256 8.737623553907584 0.7385128193904489 585.9760320290837 0.0
3723.1954716264117 1479.1365268292877 8.81818334300199 0.7363492581689233 589.9548350790684 0.0
3771.373733579622 1514.5596988448785 8.899575173803855 0.7341743240806728 593.9531011119569 0.0
3820.4209577587853 1550.5150922727548 8.981873937471377 0.7320051878622422 597.9740527294582 0.0
3870.374635097508 1587.0269112538442 9.065130644976527 0.7298404957979532 602.019805726412 0.0
3921.2517779267464 1624.1035079046237 9.149357690809923 0.7276736204592016 606.0904271513187 0.0
3972.990428496897 1661.6958509710953 9.23443776427984 0.7255080574319965 610.1797613821134 0.0
4025.6659183623074 1699.8547787243676 9.320480082667679 0.7233416289582593 614.2925763096104 0.0
4079.3139275276317 1738.6019564603328 9.407526986010973 0.7211742105372458 618.4303648993331 0.0
4133.9526679759865 1777.9462421807652 9.495591687781667 0.7189937352364026 622.5932101621104 0.0
4189.513059274335 1817.8324218820312 9.584540941790756 0.7167870296429797 626.7740504200112 0.0
4246.106979612554 1858.334699585096 9.674529206574292 0.714589415153414 630.9792782513232 0.0
4303.746600211502 1899.460231214411 9.765573552930938 0.7124191691905182 635.2097160524316 0.0
4362.451459570897 1941.2184259694184 9.857688049931978 0.7102294909267286 639.4654611461091 0.0
