e[MeV/fm^3], P[MeV/fm^3], rho[fm^-3], v2[1], mu_q[MeV], mu_e[MeV]
70.21755168181654 0.006206087273093519 0.07407856508846018 0.017597877650005332 316.5185077347417 89.2771661002368
71.43578994790998 0.027644495228360377 0.07535555647246353 0.0175978776500052 316.5894798429086 89.8124074562691
72.67502861766434 0.04945246571785267 0.07665456106626496 0.017597877650005228 316.6616753923034 90.35687548400062
73.93562970314778 0.07163636938565421 0.07797595834102777 0.01759787765000538 316.7351154730202 90.91072923592193
75.21796145691394 0.09420268669514797 0.07932013430936638 0.01759787765000533 316.8098215387112 91.47413050632369
76.5223984795798 0.11715800982215896 0.0806874816381126 0.01759787765000522 316.8858154128541 92.04724387856187
77.84932182925448 0.14050904458066893 0.08207839976302188 0.017597877650005325 316.96311929512683 92.630236773136
79.19911913285509 0.16426261238173973 0.08349329500545777 0.017597877650005436 317.0417557678931 93.22327949659658
80.57218469934486 0.18842565222626206 0.08493258069109116 0.017597877650005332 317.12174780279906 93.82654529129692
81.96891963491473 0.21300522273190858 0.08639667727063695 0.017597877650005284 317.20311876748366 94.44021038599915
83.38973196016327 0.23800850419525207 0.0878860124426853 0.017597877650005242 317.2858924324053 95.06445404735784
84.83503672928572 0.26344280068923775 0.08940102127863886 0.01759787765000527 317.37009297778565 95.69945863228664
86.3052561513196 0.28931554219685157 0.0909421463498059 0.01759787765000538 317.45574500067295 96.34540964122833
87.80081971348744 0.3156342867816875 0.09250983785669148 0.017597877650005325 317.54287352212793 97.00249577234631
89.32216430665855 0.3424067227958098 0.09410455376051008 0.01759787765000531 317.63150399453286 97.67090897664707
90.86973435297011 0.3696406711256137 0.09572675991696154 0.017597877650005242 317.7216623090265 98.3508445140514
92.44398193566516 0.39734408747669764 0.0973769302123309 0.017597877650005228 317.8133748030682 99.04250101043964
94.04536693114535 0.4255250646977123 0.09905554670190979 0.01759787765000531 317.90666826813106 99.74608051566989
95.67435714332068 0.45419183514462985 0.10076309975082554 0.017892055534992374 318.00156995752883 100.46178856260559
97.33169327479138 0.4843410207312542 0.10250008817728433 0.018775745774211428 318.10048622561175 101.18570399772256
99.01814146064449 0.5170082040359527 0.10426701939828847 0.020025246310001077 318.2058447860128 101.91428658825437
100.73429318912723 0.5525181669555139 0.1060644095778678 0.02129999675038627 318.31828524079526 102.64750316311726
102.48063871606901 0.5907964457966746 0.10789278377786223 0.022549781036994038 318.43751805132047 103.38670836290729
104.25774423592242 0.6320103592916358 0.10975267611130558 0.023887708108000116 318.5638120290785 104.13237516689382
106.06623539667063 0.676492214395437 0.11164462989845152 0.025339806313660923 318.697770868173 104.88465247088972
107.90674784282342 0.7245234535359056 0.11356919782549418 0.026726883379044414 318.8398212612412 105.64215664334085
109.77980899298537 0.7757858510810522 0.11552694210601787 0.028008654354195556 318.9889635986241 106.39548846211913
111.68603200563659 0.8304189676497289 0.11751843464523576 0.02941848660514751 319.1453310518051 107.14305877628786
113.62612253642692 0.8889903796251314 0.1195442572070575 0.0310000273545607 319.31003653378224 107.89037199216354
115.60075117782822 0.9518318179215621 0.1216050015840337 0.03259969837934959 319.4836179784206 108.6399435927219
117.61049319554543 1.0189345897359714 0.12370126977023699 0.03419210470702347 319.6659546827271 109.3941654142798
119.65602415051524 1.0905481505064962 0.12583367413711752 0.03592218882239359 319.8573917239201 110.15411877028433
121.73815641876267 1.1672766767204164 0.12800283761239192 0.03778190969818496 320.0588603075681 110.92020174565145
123.85759205422588 1.2493614886182018 0.1302093938620144 0.0396255479711905 320.27062777688235 111.69348487044105
126.01496433860267 1.3368161240061027 0.13245398747528928 0.041461386350795104 320.4925793312381 112.47517112638602
128.2110155783424 1.429932568241939 0.13473727415316794 0.04346252473119688 320.7250671173629 113.26594974297757
130.4466887956552 1.52951487508801 0.1370599208997976 0.045590760196347446 320.969220213987 114.06610244230104
132.72270298041246 1.6357091714792171 0.13942260621736857 0.04767926014436641 321.22510082538804 114.87651716166351
135.03976205186157 1.748593799706529 0.14182602030432198 0.04977029748745049 321.49267975935425 115.69799950047124
137.3986835249372 1.8685229353243933 0.14427086525697244 0.05206400529136951 321.77234677231564 116.53110782929468
139.80057355445675 1.9965668028217445 0.14675785527460983 0.05448295484632937 322.0654823434704 117.37614392238619
142.24614757531495 2.1327305435734982 0.1492877168681315 0.05683638595368079 322.37191652081754 118.23384218287305
144.73619757503982 2.2771938463603174 0.15186118907227755 0.059208520968313694 322.69174413674494 119.10477732777403
147.27162660197732 2.430390920319256 0.15447902366151722 0.0618292055008095 323.0254080857181 119.98940983187808
149.85374556019306 2.5937403356179334 0.15714198536966398 0.06457197399617759 323.3745941649684 120.88804723823948
152.4832372283129 2.7670401807274834 0.15985085211327107 0.06721882453614525 323.7388555425644 121.80124809303793
155.16100474728017 2.9506159576823916 0.1626064152188807 0.06990575565196155 324.1184454344821 122.72942464238325
157.8880490867394 3.1450019316856195 0.16540947965419006 0.07289593855263288 324.5138717435153 123.67293532678868
160.66593902373984 3.3520690822739376 0.16826086426320178 0.07600220080988451 324.92718571735776 124.63202719571277
163.4952840125817 3.5713158744339593 0.17116140200542868 0.07897532922519734 325.3576004812541 125.6070903482084
166.37712853614147 3.8032695276021222 0.17411194019922174 0.08202037368123771 325.8055622707938 126.59840218489457
169.31260061973967 4.048620249866702 0.17711334076929286 0.08542133552471287 326.2716886567447 127.60620334892384
172.303551331823 4.309718566586897 0.18016648049850292 0.0889270452590527 326.7583492276527 128.63058410314463
175.35050383107742 4.585737524453315 0.1832722512839939 0.09226446929582366 327.26444376458807 129.67181814230588
178.45466868853612 4.877441713994387 0.18643156039773165 0.09572802473872655 327.7906096931573 130.73004905217363
181.61738960046912 5.18586172672753 0.18964533075154347 0.09956214286511778 328.3377308078966 131.80536363429957
184.84067158507494 5.5134958934314255 0.19291450116672415 0.10348029397253222 328.90808973361146 132.89762523650757
188.12508868773136 5.859506730761704 0.19624002664828616 0.10723125726635341 329.50063467169656 134.00704679883177
191.47199658539387 6.224818666062787 0.19962287866394354 0.11114950466071183 330.116072530961 135.1336328978941
194.88301649425165 6.610906017540677 0.2030640454278977 0.11544544815415358 330.7555888744374 136.2772622126371
198.3602890613904 7.020342674256472 0.2065645321895225 0.11979382346787826 331.42129567013734 137.43754067535426
201.9044613376726 7.452308308070558 0.2101253615270204 0.12397650239191993 332.11220306471756 138.61467605675114
205.5170562570145 7.907903230714149 0.21374757364614289 0.1283699626450635 332.8290718474655 139.80852765902867
209.2000509218192 8.389163756231573 0.21743222668406043 0.1331367755092301 333.57341318817043 141.01869117551004
212.95568685700158 8.89862029273525 0.22118039701847075 0.1379109881763032 334.34705688852574 142.2445530860434
216.7847142491265 9.435507109353031 0.224993179582034 0.1425209986125906 335.149090910276 143.4863497980139
220.6888478651131 10.001107919216421 0.22887168818223044 0.1473848211915132 335.9803024130194 144.74379875149575
224.67051841244387 10.598148441577159 0.23281705582673115 0.15260238957125072 336.84253077264475 146.0161250814302
228.73201076449018 11.228941923303356 0.23683043505437643 0.1577674592771845 337.73719306437926 147.30260528428684
232.87421847820065 11.892825884399452 0.2409129982718618 0.16276966708385543 338.6634726746745 148.60351662363965
237.09907459677976 12.591262929879372 0.2450659380962259 0.1680647442175771 339.6221443059857 149.91845083271977
241.4095830266287 13.327795359770137 0.24929046770324403 0.17367604335428166 340.61534675451054 151.2461733723472
245.80798450797525 14.104290408314728 0.25358782118182577 0.17916063314688135 341.6439533067965 152.5860269646372
250.29536865638684 14.920249387540146 0.2579592538945237 0.18448376658109078 342.70726027181 153.9383214680799
254.87391430339358 15.777295306389933 0.26240604284425445 0.19013115054428797 343.8059831368225 155.30255316107613
259.54734193097937 16.679902122692877 0.2669294870473437 0.19603884001981875 344.9424917462097 156.67695034502995
264.3177234138911 17.62921742422393 0.2715309079130002 0.20173455319505607 346.11701155796936 158.06114921462316
269.1864120746621 18.624978432827973 0.2762116496293318 0.20727097595137622 347.328966229596 159.45546560193614
274.15586021544175 19.66893704821644 0.28097307955601647 0.2131521958171756 348.57896372915343 160.8593430130801
279.2306731431928 20.76658998854091 0.28581658862374093 0.21922189252154145 349.86949367684684 162.27041922778363
284.412585417037 21.918069468750467 0.29074359174052566 0.2249894143101847 351.2000887836266 163.68887481305947
289.7032992122702 23.123430865940225 0.29575552820505524 0.2306016920899494 352.5703075794808 165.1149897852477
295.1055673860831 24.38451504681977 0.300853862127132 0.23656661428271297 353.98060905644974 166.5482047162215
300.6250734626658 25.70790002720107 0.3060400828553784 0.24263779812409947 355.4334521442952 167.985546141962
306.2629978571605 27.092417065261266 0.3113157054123131 0.24831998114039466 356.9277197298895 169.42797804232237
312.0214966673664 28.538529352055203 0.3166822709369256 0.2538541104542591 358.4631014669581 170.8756920374787
317.9036494111742 30.048126085066315 0.3221413471348811 0.2597359108053192 360.03988091456415 172.3281747479247
323.9164360611114 31.628890065835524 0.32769452873648597 0.2656390932017807 361.66030746350987 173.78185544558517
330.06021547034334 33.278110584552124 0.3333434379625472 0.2710787578055842 363.3227610243933 175.23867305073648
336.3377248306841 34.996751726455315 0.3390897249982634 0.27638164452897485 365.0270429856405 176.69867300893014
342.75239563416363 36.78671837750218 0.3449350684752844 0.2820159576097043 366.7732551876847 178.16142771359964
349.3127469329602 38.65679115669434 0.35088117596208035 0.28759239956345484 368.5632457970251 179.62281308437977
356.0179982424811 40.60254779373834 0.3569297844627652 0.2926507180164095 370.39513942729127 181.08586093941702
362.87161894726887 42.62554485678177 0.3630826609245175 0.2976058496429581 372.26881070045994 182.55041400308298
369.8776838050342 44.72802159039085 0.3693416027537498 0.3028324596598386 374.18425749083553 184.01597196044224
377.04571989459646 46.91882012835673 0.3757084383411748 0.30793255850782497 376.1425479489815 185.47847044374714
384.37423920137996 49.19272886637786 0.3821850275959231 0.3125215544923945 378.1420680020603 186.9415202760738
391.8673537720589 51.551645656583794 0.38877326248886857 0.31704011341831206 380.18264288681297 213.5453054162596
399.53022857376277 53.998550771733285 0.3954750676053199 0.32159882522268113 382.2641765278808 203.68235129434916
409.07713000853147 57.09830125175322 0.40375431244471205 0.05261785924895601 384.38684656688184 193.62448011822877
446.9307440932595 59.26815570908842 0.5392630387922229 0.06202664748048792 386.54960838431725 183.56472876274142
491.37888555102637 62.27065434311469 0.6980240807730219 0.0742196447407869 388.75217980057613 173.73808459459252
532.3420479118387 65.56269163392894 0.8447584666460595 0.08792355521205375 390.99427615507426 164.147221350706
570.0146924674135 69.13685388326452 0.9802474519615701 0.10365765824386775 393.27543963785325 154.80527975662196
604.5371528463849 72.99324188625005 1.1049980175642165 0.12014474573564127 395.59516773161965 145.7377058250828
636.6208507344157 77.09953047920082 1.2214468004817054 0.1368603428413897 397.95311125729603 136.89987228138284
666.5661606067431 81.44586753494053 1.3306082398723103 0.15438567470333853 400.3486982341418 128.28732785035564
694.6392431160155 86.02321042887117 1.4333773339212739 0.17418991440087606 402.78113502043635 119.89577075110573
720.7838292653479 90.8485513896746 1.529506119178838 0.1948556347439392 405.2503908250171 111.77012393218118
745.4311339221751 95.89035915398775 1.6202553319241304 0.2141699717562282 407.7560864453435 103.87451109116694
768.9197008406314 101.13605815879492 1.7070896349068974 0.23261055975060652 410.2972643916196 96.21466468402899
791.5461238362445 106.60148390571027 1.7918631593191778 0.2500862985929344 412.8731075256692 88.78800196119218
813.5311682275064 112.28198085235763 1.875610451491162 0.2657491930802869 415.48395412590855 81.56572634098426
835.0873775531195 118.16627829683524 1.9593568367966951 0.28059335554267895 418.12942481666244 74.51532387217652
856.2900421296766 124.27449378953818 2.0444067716083456 0.2933509007398709 420.80808286670407 67.67028467156186
877.4442977582551 130.5912099493718 2.1327886491760757 0.30156995001316567 423.519388423576 60.98112180589223
898.903587794931 137.1272819527165 2.2281878372035555 0.30323372696075035 426.263926491692 54.42968584766146
921.3514390746385 143.9026128590274 2.338580753525213 0.29434753398764846 429.04133904117657 47.99279828734614
945.8409969473684 150.91126888151862 2.4760046469398467 0.3201074272711777 431.84962364736657 41.59356460784898
966.7212349614506 158.19902326254177 2.5870385148510984 0.48818419242939726 434.68879187402194 35.21702260036315
979.7155696776321 165.66798277816383 2.617219688428469 0.5743820012066694 437.55954505588323 29.073581691206954
993.0382491471474 173.31477399314008 2.647773779363783 0.5733980637732374 440.4615602408136 23.30728639941313
1006.6592306442135 181.11708199591314 2.678739023242399 0.5719380301297097 443.39219174670734 17.81120069024204
1020.6369172867815 189.0988677605755 2.710213318935081 0.5702059845496192 446.35224304333093 12.629713527823238
1034.9514500675666 197.24890776851385 2.7422142419870963 0.5683372450048285 449.3424024244641 7.68086775963452
1049.6432408264593 205.58346431427927 2.7748049898733367 0.5663317164827353 452.3623894048231 2.989738811988776
1064.685961719424 214.08782173276654 2.807952105509821 0.5643456580748474 455.4088468583903 0.0
1080.1049938911572 222.77365931998764 2.8417007511637076 0.5622835737553009 458.48357591050296 0.0
1095.9211361474418 231.65001409248399 2.8760786885798257 0.5602752558901365 461.5871295346198 0.0
1112.1209248734992 240.71065860310108 2.9110667720394625 0.5582461582151286 464.7192724425523 0.0
1128.7222640245282 249.96025573123214 2.946665672073297 0.5561849675010357 467.87587687666405 0.0
1145.7288385433549 259.4020753420417 2.9828926163487743 0.554234441676769 471.0599151315838 0.0
1163.146552920869 269.0385899942591 3.0197548755201304 0.5521986459580832 474.2716930347005 0.0
1181.0164497059047 278.88687466065164 3.0572995517169677 0.5501503025225141 477.5110201023164 0.0
1199.2930786651912 288.9238222342326 3.095445566599659 0.5482159898558328 480.77294680996494 0.0
1218.0092876821582 299.1660925350771 3.1342520979110478 0.5462249556686682 484.06176219100337 0.0
1237.1965028477016 309.62664959668723 3.173754679158799 0.5442029895388041 487.37742484726095 0.0
1256.8532312887648 320.304150585484 3.21394699561374 0.5422485818087308 490.71942709513365 0.0
1276.9531918963826 331.1838064897681 3.254772121247292 0.5403299040776002 494.0830324628434 0.0
1297.5357981627487 342.2852323793762 3.296298366196184 0.5383559561355256 497.47289006040484 0.0
1318.633483849757 353.6215930868353 3.338561033656025 0.5363721712726424 500.8888825459008 0.0
1340.2361843216931 365.1875550494595 3.381540939116222 0.5344547476581525 504.3299917615031 0.0
1362.326043362858 376.9723632457502 3.425194531764395 0.5325581466841234 507.7922253856572 0.0
1384.9444190371833 388.9962885635838 3.469591298041004 0.5306664268657713 511.2801267663313 0.0
1408.1041968027039 401.2642695394968 3.514743460191246 0.5287394057624706 514.7936148893198 0.0
1431.825383888565 413.7829983098637 3.5606629809750627 0.5268152409951039 518.3310928584808 0.0
1456.0843763894138 426.5399484336497 3.6073040362268656 0.5249459654683051 521.8894715714698 0.0
1480.9214578581239 439.5547092722191 3.654733222860086 0.5230901133733408 525.4730848306887 0.0
1506.3505633401878 452.83259739661565 3.7029635520148543 0.5212420829787519 529.0818842067226 0.0
1532.3700488517734 466.3707917408575 3.7519784603711295 0.519403706307056 532.7136335653959 0.0
1558.978791117312 480.1668139774636 3.8017628591623907 0.517576356680598 536.3662857953279 0.0
1586.2204417158175 494.24132821138016 3.8523849175044433 0.515758248293789 540.0438741161018 0.0
1614.1101120601716 508.6000724432653 3.9038584970706913 0.5139393274359758 543.7463790946406 0.0
1642.6464369487849 523.2396866629631 3.9561627514211644 0.5121286097499027 547.4708712870953 0.0
1671.8332123266916 538.1605549106147 4.00929391982906 0.5103441541234144 551.216467733508 0.0
1701.7108476443539 553.3816386453605 4.063313893094575 0.5085768477629067 554.9868210458568 0.0
1732.2956483786745 568.9091042211023 4.118237371710007 0.5068206343077879 558.781937487146 0.0
1763.5738966668134 584.7338950528543 4.174025256623562 0.5050775586872014 562.5981454122898 0.0
1795.5641561071338 600.8633713389025 4.230696591737264 0.5033479490713706 566.4358348263322 0.0
1828.309456008854 617.3171048278875 4.288312875741742 0.5016305951733919 570.2982070044372 0.0
1861.827435463899 634.1017374378727 4.346889711892918 0.49992549620523086 574.1852909518561 0.0
1896.0964698109622 651.2042861102848 4.4063743154774 0.49823486663394334 578.0926279967849 0.0
1931.1483863221656 668.6385341278434 4.466807283842309 0.4965583764818593 582.021979385741 0.0
1967.0247791836027 686.422955520085 4.5282448607206005 0.494895059984346 585.9760320290837 0.0
2003.744705979011 704.5646966689089 4.590703579811342 0.49323655521312304 589.9548350790684 0.0
2041.2837743682067 723.048847192514 4.654121926459043 0.4915857074118346 593.9531011119569 0.0
2079.6894276513954 741.8966128506947 4.718564889856103 0.48995542725976904 597.9740527294582 0.0
2118.996851195545 761.1233319955287 4.784077888669562 0.4883444393127938 602.019805726412 0.0
2159.2266865206357 780.7367114614864 4.850678459426012 0.48674749434470854 606.0904271513187 0.0
2200.336836910491 800.7139677992528 4.918280910304229 0.4851669576026083 610.1797613821134 0.0
2242.39408311268 821.0852942315448 4.9869790258708715 0.48360101585557125 614.2925763096104 0.0
2285.434344574622 841.8656766905033 5.056814331511437 0.48204937637661693 618.4303648993331 0.0
2329.479866134078 863.0633891413113 5.127805354802061 0.4805034081711259 622.5932101621104 0.0
2374.484681905213 884.6531838197757 5.1998557795764855 0.47895390661805237 626.7740504200112 0.0
2420.5502763803174 906.6802694121328 5.273103332916849 0.47742532105313273 630.9792782513232 0.0
2467.689321127292 929.1498259463352 5.34756155174187 0.4759302521624793 635.2097160524316 0.0
2515.925848394001 952.0707568114085 5.423250033365692 0.4744255119802716 639.4654611461091 0.0
