e[MeV/fm^3], P[MeV/fm^3], rho[fm^-3], v2[1], mu_q[MeV], mu_e[MeV]
70.21755168181654 0.006206087273093519 0.07407856508846018 0.017597877650005332 316.5185077347417 89.2771661002368
71.43578994790998 0.027644495228360377 0.07535555647246353 0.0175978776500052 316.5894798429086 89.8124074562691
72.67502861766434 0.04945246571785267 0.07665456106626496 0.017597877650005228 316.6616753923034 90.35687548400062
73.93562970314778 0.07163636938565421 0.07797595834102777 0.01759787765000538 316.7351154730202 90.91072923592193
75.21796145691394 0.09420268669514797 0.07932013430936638 0.01759787765000533 316.8098215387112 91.47413050632369
76.5223984795798 0.11715800982215896 0.0806874816381126 0.01759787765000522 316.8858154128541 92.04724387856187
77.84932182925448 0.14050904458066893 0.08207839976302188 0.017597877650005325 316.96311929512683 92.630236773136
79.19911913285509 0.16426261238173973 0.08349329500545777 0.017597877650005436 317.0417557678931 93.22327949659658
80.57218469934486 0.18842565222626206 0.08493258069109116 0.017597877650005332 317.12174780279906 93.82654529129692
81.96891963491473 0.21300522273190858 0.08639667727063695 0.017597877650005284 317.20311876748366 94.44021038599915
83.38973196016327 0.23800850419525207 0.0878860124426853 0.017597877650005242 317.2858924324053 95.06445404735784
84.83503672928572 0.26344280068923775 0.08940102127863886 0.01759787765000527 317.37009297778565 95.69945863228664
86.3052561513196 0.28931554219685157 0.0909421463498059 0.01759787765000538 317.45574500067295 96.34540964122833
87.80081971348744 0.3156342867816875 0.09250983785669148 0.017597877650005325 317.54287352212793 97.00249577234631
89.32216430665855 0.3424067227958098 0.09410455376051008 0.01759787765000531 317.63150399453286 97.67090897664707
90.86973435297011 0.3696406711256137 0.09572675991696154 0.017597877650005242 317.7216623090265 98.3508445140514
92.44398193566516 0.39734408747669764 0.0973769302123309 0.017597877650005228 317.8133748030682 99.04250101043964
94.04536693114535 0.4255250646977123 0.09905554670190979 0.01759787765000531 317.90666826813106 99.74608051566989
95.67435714332068 0.45419183514462985 0.10076309975082554 0.017892055534992374 318.00156995752883 100.46178856260559
97.33169327479138 0.4843410207312542 0.10250008817728433 0.018775745774211428 318.10048622561175 101.18570399772256
99.01814146064449 0.5170082040359527 0.10426701939828847 0.020025246310001077 318.2058447860128 101.91428658825437
100.73429318912723 0.5525181669555139 0.1060644095778678 0.02129999675038627 318.31828524079526 102.64750316311726
102.48063871606901 0.5907964457966746 0.10789278377786223 0.022549781036994038 318.43751805132047 103.38670836290729
104.25774423592242 0.6320103592916358 0.10975267611130558 0.023887708108000116 318.5638120290785 104.13237516689382
106.06623539667063 0.676492214395437 0.11164462989845152 0.025339806313660923 318.697770868173 104.88465247088972
107.90674784282342 0.7245234535359056 0.11356919782549418 0.026726883379044414 318.8398212612412 105.64215664334085
109.77980899298537 0.7757858510810522 0.11552694210601787 0.028008654354195556 318.9889635986241 106.39548846211913
111.68603200563659 0.8304189676497289 0.11751843464523576 0.02941848660514751 319.1453310518051 107.14305877628786
113.62612253642692 0.8889903796251314 0.1195442572070575 0.0310000273545607 319.31003653378224 107.89037199216354
115.60075117782822 0.9518318179215621 0.1216050015840337 0.03259969837934959 319.4836179784206 108.6399435927219
117.61049319554543 1.0189345897359714 0.12370126977023699 0.03419210470702347 319.6659546827271 109.3941654142798
119.65602415051524 1.0905481505064962 0.12583367413711752 0.03592218882239359 319.8573917239201 110.15411877028433
121.73815641876267 1.1672766767204164 0.12800283761239192 0.03778190969818496 320.0588603075681 110.92020174565145
123.85759205422588 1.2493614886182018 0.1302093938620144 0.0396255479711905 320.27062777688235 111.69348487044105
126.01496433860267 1.3368161240061027 0.13245398747528928 0.041461386350795104 320.4925793312381 112.47517112638602
128.2110155783424 1.429932568241939 0.13473727415316794 0.04346252473119688 320.7250671173629 113.26594974297757
130.4466887956552 1.52951487508801 0.1370599208997976 0.045590760196347446 320.969220213987 114.06610244230104
132.72270298041246 1.6357091714792171 0.13942260621736857 0.04767926014436641 321.22510082538804 114.87651716166351
135.03976205186157 1.748593799706529 0.14182602030432198 0.04977029748745049 321.49267975935425 115.69799950047124
137.3986835249372 1.8685229353243933 0.14427086525697244 0.05206400529136951 321.77234677231564 116.53110782929468
139.80057355445675 1.9965668028217445 0.14675785527460983 0.05448295484632937 322.0654823434704 117.37614392238619
142.24614757531495 2.1327305435734982 0.1492877168681315 0.05683638595368079 322.37191652081754 118.23384218287305
144.73619757503982 2.2771938463603174 0.15186118907227755 0.059208520968313694 322.69174413674494 119.10477732777403
147.27162660197732 2.430390920319256 0.15447902366151722 0.0618292055008095 323.0254080857181 119.98940983187808
149.85374556019306 2.5937403356179334 0.15714198536966398 0.06457197399617759 323.3745941649684 120.88804723823948
152.4832372283129 2.7670401807274834 0.15985085211327107 0.06721882453614525 323.7388555425644 121.80124809303793
155.16100474728017 2.9506159576823916 0.1626064152188807 0.06990575565196155 324.1184454344821 122.72942464238325
157.8880490867394 3.1450019316856195 0.16540947965419006 0.07289593855263288 324.5138717435153 123.67293532678868
160.66593902373984 3.3520690822739376 0.16826086426320178 0.07600220080988451 324.92718571735776 124.63202719571277
163.4952840125817 3.5713158744339593 0.17116140200542868 0.07897532922519734 325.3576004812541 125.6070903482084
166.37712853614147 3.8032695276021222 0.17411194019922174 0.08202037368123771 325.8055622707938 126.59840218489457
169.31260061973967 4.048620249866702 0.17711334076929286 0.08542133552471287 326.2716886567447 127.60620334892384
172.303551331823 4.309718566586897 0.18016648049850292 0.0889270452590527 326.7583492276527 128.63058410314463
175.35050383107742 4.585737524453315 0.1832722512839939 0.09226446929582366 327.26444376458807 129.67181814230588
178.45466868853612 4.877441713994387 0.18643156039773165 0.09572802473872655 327.7906096931573 130.73004905217363
181.61738960046912 5.18586172672753 0.18964533075154347 0.09956214286511778 328.3377308078966 131.80536363429957
184.84067158507494 5.5134958934314255 0.19291450116672415 0.10348029397253222 328.90808973361146 132.89762523650757
188.12508868773136 5.859506730761704 0.19624002664828616 0.10723125726635341 329.50063467169656 134.00704679883177
191.47199658539387 6.224818666062787 0.19962287866394354 0.11114950466071183 330.116072530961 135.1336328978941
194.88301649425165 6.610906017540677 0.2030640454278977 0.11544544815415358 330.7555888744374 136.2772622126371
198.3602890613904 7.020342674256472 0.2065645321895225 0.11979382346787826 331.42129567013734 137.43754067535426
201.9044613376726 7.452308308070558 0.2101253615270204 0.12397650239191993 332.11220306471756 138.61467605675114
205.5170562570145 7.907903230714149 0.21374757364614289 0.1283699626450635 332.8290718474655 139.80852765902867
209.2000509218192 8.389163756231573 0.21743222668406043 0.1331367755092301 333.57341318817043 141.01869117551004
212.95568685700158 8.89862029273525 0.22118039701847075 0.1379109881763032 334.34705688852574 142.2445530860434
216.7847142491265 9.435507109353031 0.224993179582034 0.1425209986125906 335.149090910276 143.4863497980139
220.6888478651131 10.001107919216421 0.22887168818223044 0.1473848211915132 335.9803024130194 144.74379875149575
224.67051841244387 10.598148441577159 0.23281705582673115 0.15260238957125072 336.84253077264475 146.0161250814302
228.73201076449018 11.228941923303356 0.23683043505437643 0.1577674592771845 337.73719306437926 147.30260528428684
232.87421847820065 11.892825884399452 0.2409129982718618 0.16276966708385543 338.6634726746745 148.60351662363965
237.09907459677976 12.591262929879372 0.2450659380962259 0.1680647442175771 339.6221443059857 149.91845083271977
241.4095830266287 13.327795359770137 0.24929046770324403 0.17367604335428166 340.61534675451054 151.2461733723472
245.80798450797525 14.104290408314728 0.25358782118182577 0.17916063314688135 341.6439533067965 152.5860269646372
250.29536865638684 14.920249387540146 0.2579592538945237 0.18448376658109078 342.70726027181 153.9383214680799
254.87391430339358 15.777295306389933 0.26240604284425445 0.19013115054428797 343.8059831368225 155.30255316107613
259.54734193097937 16.679902122692877 0.2669294870473437 0.19603884001981875 344.9424917462097 156.67695034502995
264.3177234138911 17.62921742422393 0.2715309079130002 0.20173455319505607 346.11701155796936 158.06114921462316
269.1864120746621 18.624978432827973 0.2762116496293318 0.20727097595137622 347.328966229596 159.45546560193614
274.15586021544175 19.66893704821644 0.28097307955601647 0.2131521958171756 348.57896372915343 160.8593430130801
279.2306731431928 20.76658998854091 0.28581658862374093 0.21922189252154145 349.86949367684684 162.27041922778363
284.412585417037 21.918069468750467 0.29074359174052566 0.2249894143101847 351.2000887836266 163.68887481305947
289.7032992122702 23.123430865940225 0.29575552820505524 0.2306016920899494 352.5703075794808 165.1149897852477
295.1055673860831 24.38451504681977 0.300853862127132 0.23656661428271297 353.98060905644974 166.5482047162215
300.6250734626658 25.70790002720107 0.3060400828553784 0.24263779812409947 355.4334521442952 167.985546141962
306.2629978571605 27.092417065261266 0.3113157054123131 0.24831998114039466 356.9277197298895 169.42797804232237
312.0214966673664 28.538529352055203 0.3166822709369256 0.2538541104542591 358.4631014669581 170.8756920374787
317.9036494111742 30.048126085066315 0.3221413471348811 0.2597359108053192 360.03988091456415 172.3281747479247
323.9164360611114 31.628890065835524 0.32769452873648597 0.26606487768123 361.66030746350987 173.78185544558517
341.641153298529 36.47560941127474 0.3439007127238844 0.0008201925899064466 363.3227610243933 261.3181810023139
711.6754494530442 36.905508876124145 1.4648691067914283 0.001503372924517612 365.0270429856405 171.68878113070562
2834.2937335822467 44.25577064615466 7.794168107596569 0.06644668420515193 366.7732551876847 82.00383754097605
3039.586262669153 59.14733591460978 8.407484223769972 0.7222331239290134 368.5632457970251 12.876972403287805
3059.2788554611684 74.59725427374286 8.460855158108297 0.7880004380938899 370.39513942729127 0.0
3079.3706013638357 90.50019078006689 8.514966064287112 0.790787275993927 372.26881070045994 0.0
3100.08262678948 106.86343958847458 8.57046227757463 0.7892921713192322 374.18425749083553 0.0
3121.4391535064533 123.70359573506633 8.627387737607064 0.7877667710428673 376.1425479489815 0.0
3143.4352363240523 141.01420038012634 8.685708475886097 0.786214669232296 378.1420680020603 0.0
3166.0815515296617 158.80108629105263 8.745432257978901 0.7846377748838247 380.18264288681297 0.0
3189.389740020543 177.07078829751273 8.806569218946986 0.783037990027704 382.2641765278808 0.0
3213.3746592888074 195.8322961875903 8.869137660881188 0.7814169076162125 384.38684656688184 0.0
3238.037383753062 215.08377416743312 8.933119856803728 0.7797768389191173 386.54960838431725 0.0
3263.387539728628 234.83004832927892 8.998520457595047 0.7781193283186667 388.75217980057613 0.0
3289.4347610853783 255.07590572128348 9.065344046165851 0.7764172381192482 390.99427615507426 0.0
3316.195371014311 275.8297180633081 9.133598951423684 0.7746058509063491 393.27543963785325 0.0
3343.697204367482 297.10651400582753 9.203304446079342 0.7727966055345039 395.59516773161965 0.0
3371.923873159441 318.89526177130983 9.27443708479598 0.7710618158261733 397.95311125729603 0.0
3400.881569854954 341.19792281173625 9.346992631162625 0.7693171652807838 400.3486982341418 0.0
3430.5736931558654 364.01429044566396 9.42095998260805 0.7674223004302947 402.78113502043635 0.0
3461.0618030016553 387.3799473598003 9.496401053724236 0.7654897112096393 405.2503908250171 0.0
3492.3150287182802 411.27525902072716 9.573277006007412 0.7636870460905021 407.7560864453435 0.0
3524.3292124555696 435.69508663807653 9.651565949018268 0.761786542227167 410.2972643916196 0.0
3557.147261606855 460.66196180378904 9.731296322510099 0.7597997844338167 412.8731075256692 0.0
3590.7768304659035 486.1803839227996 9.81248139010601 0.7579104837587263 415.48395412590855 0.0
3625.2001083860514 512.2384845504273 9.895095668792441 0.7559303462445994 418.12942481666244 0.0
3660.4754996795245 538.8658936558988 9.97917172368896 0.7538985237090108 420.80808286670407 0.0
3696.5641192063053 566.0381518419345 10.0646597613256 0.7519526038510858 423.519388423576 0.0
3733.501392023116 593.7762225414905 10.151605429391267 0.7498981581938313 426.263926491692 0.0
3771.3286735578276 622.1020573426168 10.240043127569496 0.7478870124712875 429.04133904117657 0.0
3809.9818306055763 650.9733909449891 10.329871217902339 0.7458134564000636 431.84962364736657 0.0
3849.5584109187375 680.4447551064065 10.421186953580403 0.7437466881370227 434.68879187402194 0.0
3889.993780413587 710.4804161704254 10.513937435743937 0.7416585752164142 437.55954505588323 0.0
3931.404536952924 741.1443696952475 10.608232390037895 0.7395487553615983 440.4615602408136 0.0
3973.6679619702895 772.3599437130214 10.703900056514872 0.7374437286447879 443.39219174670734 0.0
4016.916810548343 804.2025632230303 10.80108625829893 0.7352948958115597 446.35224304333093 0.0
4061.088703678747 836.6381586099365 10.899740472811647 0.7331805347171532 449.3424024244641 0.0
4106.274117424989 869.7152979355495 10.999946137053023 0.7309993802366588 452.3623894048231 0.0
4152.3927096761745 903.3793844990013 11.101560773892269 0.7288770396986681 455.4088468583903 0.0
4199.508806355955 937.6697661503491 11.20467985907037 0.726673011630588 458.48357591050296 0.0
4247.67254930196 972.6143169674631 11.309361530533014 0.7245143195650439 461.5871295346198 0.0
4296.849570083122 1008.1924501655526 11.41556635589949 0.7223172228864136 464.7192724425523 0.0
4347.067471234227 1044.4065542899282 11.523243455728966 0.7200717222513475 467.87587687666405 0.0
4398.343471303458 1081.273055321754 11.632463193746744 0.7179321395130778 471.0599151315838 0.0
4450.691339616732 1118.7991865217648 11.743243280037097 0.7156831380353132 474.2716930347005 0.0
4504.206269000755 1157.0344952910568 11.855671005432358 0.713406406626838 477.5110201023164 0.0
4558.761842148766 1195.8951207048908 11.969529431060518 0.7112413221887586 480.77294680996494 0.0
4614.449208395082 1235.4413790480883 12.084985444676546 0.708997440654505 484.06176219100337 0.0
4671.340700913429 1275.7104432332203 12.202106190558794 0.7067039839788016 487.37742484726095 0.0
4729.429240032407 1316.6955200877985 12.320873228736854 0.7044721539622749 490.71942709513365 0.0
4788.63458770419 1358.3382621799983 12.441118306086175 0.7022664295558627 494.0830324628434 0.0
4849.064238695039 1400.7084551655341 12.563030251143132 0.6999815956261131 497.47289006040484 0.0
4910.791767402005 1443.8429767469286 12.686674810053903 0.6976706193698465 500.8888825459008 0.0
4973.788089833756 1487.7217543376055 12.812002584511173 0.695421688767361 504.3299917615031 0.0
5037.995152230783 1532.3002618725152 12.938880194827789 0.6931824206121764 507.7922253856572 0.0
5103.524191891703 1577.6495733209797 13.067497373252941 0.6909342449355975 511.2801267663313 0.0
5170.402974364067 1623.782320013175 13.197876371363824 0.6886285769450922 514.7936148893198 0.0
5238.669734381871 1670.7113803236273 13.330019792696362 0.6863115092593066 518.3310928584808 0.0
5308.256185623223 1718.3895675960357 13.463801340978266 0.6840453311793642 521.8894715714698 0.0
5379.2698991795905 1766.8850382803764 13.599402598154253 0.6817806553604289 525.4730848306887 0.0
5451.740780066948 1816.211284288094 13.736847729841317 0.679510810358094 529.0818842067226 0.0
5525.6543189411395 1866.3515569231952 13.876076939574947 0.677238114179044 532.7136335653959 0.0
5600.99784440367 1917.2906063553555 14.017035627313296 0.6749643604830666 536.3662857953279 0.0
5677.885104542223 1969.0983989153249 14.159904570979213 0.6726874293813516 540.0438741161018 0.0
5756.348391026053 2021.7893754877873 14.304709922266644 0.6703946072711844 543.7463790946406 0.0
5836.370563515768 2075.3425997811682 14.451374967967768 0.6680974451926254 547.4708712870953 0.0
5917.954437970368 2129.7543911945954 14.599881389917488 0.6658189634056377 551.216467733508 0.0
6001.2044725865635 2185.0883584606377 14.750393200922938 0.6635478809105511 554.9868210458568 0.0
6086.155384631693 2241.3599098669074 14.902938474743891 0.6612766793304417 558.781937487146 0.0
6172.758597068843 2298.5293493546496 15.057396361185578 0.6590081662204117 562.5981454122898 0.0
6261.055335840898 2356.6165667199784 15.213808054033846 0.6567429536400251 566.4358348263322 0.0
6351.153734116911 2415.685019045297 15.372331116542155 0.6544796387668814 570.2982070044372 0.0
6443.091204033952 2475.7511754462375 15.53299562898496 0.6522183974489089 574.1852909518561 0.0
6536.797644508787 2536.7613969353692 15.695644734752573 0.6499623671105539 578.0926279967849 0.0
6632.3495664899965 2598.7578296146185 15.860377998691787 0.6477113248344413 582.021979385741 0.0
6729.849269019829 2661.7987395762652 16.027336477665397 0.6454641852824423 585.9760320290837 0.0
6829.337023839891 2725.9017148996186 16.196552278380853 0.6432096830210607 589.9548350790684 0.0
6930.732428176739 2791.0044162063077 16.367841447911122 0.6409518624860002 593.9531011119569 0.0
7034.152836513185 2857.174227735712 16.541368466035927 0.6387085620687962 597.9740527294582 0.0
7139.683336257185 2924.458438068576 16.717246558846195 0.6364783231332964 602.019805726412 0.0
7247.367378061609 2992.8758651141666 16.895509968886746 0.6342542251555141 606.0904271513187 0.0
7357.08096342854 3062.3392977608382 17.075917731909904 0.6320398177012976 610.1797613821134 0.0
7468.99100423262 3132.9459653645536 17.25870868893097 0.6298328267494906 614.2925763096104 0.0
7583.180997379168 3204.7394975338384 17.44398078223255 0.6276330878907643 618.4303648993331 0.0
7699.69761048474 3277.739955868889 17.631770343331485 0.6254284320957559 622.5932101621104 0.0
7818.403594647331 3351.8495553120406 17.821804727331312 0.623205689553723 626.7740504200112 0.0
7939.549224697485 3427.2113918067785 18.014426984852967 0.6210003114536473 630.9792782513232 0.0
8063.1634168661585 3503.8401142676134 18.209673286013405 0.6188306477388785 635.2097160524316 0.0
8189.296410983209 3581.757151288541 18.407582180297137 0.6166436635839929 639.4654611461091 0.0
