e[MeV/fm^3], P[MeV/fm^3], rho[fm^-3], v2[1], mu_q[MeV], mu_e[MeV]
70.21755168181654 0.006206087273093519 0.07407856508846018 0.017597877650005332 316.5185077347417 89.2771661002368
71.43578994790998 0.027644495228360377 0.07535555647246353 0.0175978776500052 316.5894798429086 89.8124074562691
72.67502861766434 0.04945246571785267 0.07665456106626496 0.017597877650005228 316.6616753923034 90.35687548400062
73.93562970314778 0.07163636938565421 0.07797595834102777 0.01759787765000538 316.7351154730202 90.91072923592193
75.21796145691394 0.09420268669514797 0.07932013430936638 0.01759787765000533 316.8098215387112 91.47413050632369
76.5223984795798 0.11715800982215896 0.0806874816381126 0.01759787765000522 316.8858154128541 92.04724387856187
77.84932182925448 0.14050904458066893 0.08207839976302188 0.017597877650005325 316.96311929512683 92.630236773136
79.19911913285509 0.16426261238173973 0.08349329500545777 0.017597877650005436 317.0417557678931 93.22327949659658
80.57218469934486 0.18842565222626206 0.08493258069109116 0.017597877650005332 317.12174780279906 93.82654529129692
81.96891963491473 0.21300522273190858 0.08639667727063695 0.017597877650005284 317.20311876748366 94.44021038599915
83.38973196016327 0.23800850419525207 0.0878860124426853 0.017597877650005242 317.2858924324053 95.06445404735784
84.83503672928572 0.26344280068923775 0.08940102127863886 0.01759787765000527 317.37009297778565 95.69945863228664
86.3052561513196 0.28931554219685157 0.0909421463498059 0.01759787765000538 317.45574500067295 96.34540964122833
87.80081971348744 0.3156342867816875 0.09250983785669148 0.017597877650005325 317.54287352212793 97.00249577234631
89.32216430665855 0.3424067227958098 0.09410455376051008 0.01759787765000531 317.63150399453286 97.67090897664707
90.86973435297011 0.3696406711256137 0.09572675991696154 0.017597877650005242 317.7216623090265 98.3508445140514
92.44398193566516 0.39734408747669764 0.0973769302123309 0.017597877650005228 317.8133748030682 99.04250101043964
94.04536693114535 0.4255250646977123 0.09905554670190979 0.01759787765000531 317.90666826813106 99.74608051566989
95.67435714332068 0.45419183514462985 0.10076309975082554 0.017892055534992374 318.00156995752883 100.46178856260559
97.33169327479138 0.4843410207312542 0.10250008817728433 0.018775745774211428 318.10048622561175 101.18570399772256
99.01814146064449 0.5170082040359527 0.10426701939828847 0.020025246310001077 318.2058447860128 101.91428658825437
100.73429318912723 0.5525181669555139 0.1060644095778678 0.02129999675038627 318.31828524079526 102.64750316311726
102.48063871606901 0.5907964457966746 0.10789278377786223 0.022549781036994038 318.43751805132047 103.38670836290729
104.25774423592242 0.6320103592916358 0.10975267611130558 0.023887708108000116 318.5638120290785 104.13237516689382
106.06623539667063 0.676492214395437 0.11164462989845152 0.025339806313660923 318.697770868173 104.88465247088972
107.90674784282342 0.7245234535359056 0.11356919782549418 0.026726883379044414 318.8398212612412 105.64215664334085
109.77980899298537 0.7757858510810522 0.11552694210601787 0.028008654354195556 318.9889635986241 106.39548846211913
111.68603200563659 0.8304189676497289 0.11751843464523576 0.02941848660514751 319.1453310518051 107.14305877628786
113.62612253642692 0.8889903796251314 0.1195442572070575 0.0310000273545607 319.31003653378224 107.89037199216354
115.60075117782822 0.9518318179215621 0.1216050015840337 0.03259969837934959 319.4836179784206 108.6399435927219
117.61049319554543 1.0189345897359714 0.12370126977023699 0.03419210470702347 319.6659546827271 109.3941654142798
119.65602415051524 1.0905481505064962 0.12583367413711752 0.03592218882239359 319.8573917239201 110.15411877028433
121.73815641876267 1.1672766767204164 0.12800283761239192 0.03778190969818496 320.0588603075681 110.92020174565145
123.85759205422588 1.2493614886182018 0.1302093938620144 0.0396255479711905 320.27062777688235 111.69348487044105
126.01496433860267 1.3368161240061027 0.13245398747528928 0.041461386350795104 320.4925793312381 112.47517112638602
128.2110155783424 1.429932568241939 0.13473727415316794 0.04346252473119688 320.7250671173629 113.26594974297757
130.4466887956552 1.52951487508801 0.1370599208997976 0.045590760196347446 320.969220213987 114.06610244230104
132.72270298041246 1.6357091714792171 0.13942260621736857 0.04767926014436641 321.22510082538804 114.87651716166351
135.03976205186157 1.748593799706529 0.14182602030432198 0.04977029748745049 321.49267975935425 115.69799950047124
137.3986835249372 1.8685229353243933 0.14427086525697244 0.05206400529136951 321.77234677231564 116.53110782929468
139.80057355445675 1.9965668028217445 0.14675785527460983 0.05448295484632937 322.0654823434704 117.37614392238619
142.24614757531495 2.1327305435734982 0.1492877168681315 0.05683638595368079 322.37191652081754 118.23384218287305
144.73619757503982 2.2771938463603174 0.15186118907227755 0.059208520968313694 322.69174413674494 119.10477732777403
147.27162660197732 2.430390920319256 0.15447902366151722 0.0618292055008095 323.0254080857181 119.98940983187808
149.85374556019306 2.5937403356179334 0.15714198536966398 0.06457197399617759 323.3745941649684 120.88804723823948
152.4832372283129 2.7670401807274834 0.15985085211327107 0.06721882453614525 323.7388555425644 121.80124809303793
155.16100474728017 2.9506159576823916 0.1626064152188807 0.06990575565196155 324.1184454344821 122.72942464238325
157.8880490867394 3.1450019316856195 0.16540947965419006 0.07289593855263288 324.5138717435153 123.67293532678868
160.66593902373984 3.3520690822739376 0.16826086426320178 0.07600220080988451 324.92718571735776 124.63202719571277
163.4952840125817 3.5713158744339593 0.17116140200542868 0.07897532922519734 325.3576004812541 125.6070903482084
166.37712853614147 3.8032695276021222 0.17411194019922174 0.08202037368123771 325.8055622707938 126.59840218489457
169.31260061973967 4.048620249866702 0.17711334076929286 0.08542133552471287 326.2716886567447 127.60620334892384
172.303551331823 4.309718566586897 0.18016648049850292 0.0889270452590527 326.7583492276527 128.63058410314463
175.35050383107742 4.585737524453315 0.1832722512839939 0.09226446929582366 327.26444376458807 129.67181814230588
178.45466868853612 4.877441713994387 0.18643156039773165 0.09572802473872655 327.7906096931573 130.73004905217363
181.61738960046912 5.18586172672753 0.18964533075154347 0.09956214286511778 328.3377308078966 131.80536363429957
184.84067158507494 5.5134958934314255 0.19291450116672415 0.10348029397253222 328.90808973361146 132.89762523650757
188.12508868773136 5.859506730761704 0.19624002664828616 0.10723125726635341 329.50063467169656 134.00704679883177
191.47199658539387 6.224818666062787 0.19962287866394354 0.11114950466071183 330.116072530961 135.1336328978941
194.88301649425165 6.610906017540677 0.2030640454278977 0.11544544815415358 330.7555888744374 136.2772622126371
198.3602890613904 7.020342674256472 0.2065645321895225 0.11979382346787826 331.42129567013734 137.43754067535426
201.9044613376726 7.452308308070558 0.2101253615270204 0.12397650239191993 332.11220306471756 138.61467605675114
205.5170562570145 7.907903230714149 0.21374757364614289 0.1283699626450635 332.8290718474655 139.80852765902867
209.2000509218192 8.389163756231573 0.21743222668406043 0.1331367755092301 333.57341318817043 141.01869117551004
212.95568685700158 8.89862029273525 0.22118039701847075 0.1379109881763032 334.34705688852574 142.2445530860434
216.7847142491265 9.435507109353031 0.224993179582034 0.1425209986125906 335.149090910276 143.4863497980139
220.6888478651131 10.001107919216421 0.22887168818223044 0.1473848211915132 335.9803024130194 144.74379875149575
224.67051841244387 10.598148441577159 0.23281705582673115 0.15260238957125072 336.84253077264475 146.0161250814302
228.73201076449018 11.228941923303356 0.23683043505437643 0.1577674592771845 337.73719306437926 147.30260528428684
232.87421847820065 11.892825884399452 0.2409129982718618 0.16276966708385543 338.6634726746745 148.60351662363965
237.09907459677976 12.591262929879372 0.2450659380962259 0.1680647442175771 339.6221443059857 149.91845083271977
241.4095830266287 13.327795359770137 0.24929046770324403 0.17367604335428166 340.61534675451054 151.2461733723472
245.80798450797525 14.104290408314728 0.25358782118182577 0.17916063314688135 341.6439533067965 152.5860269646372
250.29536865638684 14.920249387540146 0.2579592538945237 0.18448376658109078 342.70726027181 153.9383214680799
254.87391430339358 15.777295306389933 0.26240604284425445 0.19013115054428797 343.8059831368225 155.30255316107613
259.54734193097937 16.679902122692877 0.2669294870473437 0.19603884001981875 344.9424917462097 156.67695034502995
264.3177234138911 17.62921742422393 0.2715309079130002 0.20173455319505607 346.11701155796936 158.06114921462316
269.1864120746621 18.624978432827973 0.2762116496293318 0.20727097595137622 347.328966229596 159.45546560193614
274.15586021544175 19.66893704821644 0.28097307955601647 0.2131521958171756 348.57896372915343 160.8593430130801
279.2306731431928 20.76658998854091 0.28581658862374093 0.21922189252154145 349.86949367684684 162.27041922778363
284.412585417037 21.918069468750467 0.29074359174052566 0.2249894143101847 351.2000887836266 163.68887481305947
289.7032992122702 23.123430865940225 0.29575552820505524 0.2306016920899494 352.5703075794808 165.1149897852477
295.1055673860831 24.38451504681977 0.300853862127132 0.23656661428271297 353.98060905644974 166.5482047162215
300.6250734626658 25.70790002720107 0.3060400828553784 0.24263779812409947 355.4334521442952 167.985546141962
306.2629978571605 27.092417065261266 0.3113157054123131 0.24831998114039466 356.9277197298895 169.42797804232237
312.0214966673664 28.538529352055203 0.3166822709369256 0.2538541104542591 358.4631014669581 170.8756920374787
317.9036494111742 30.048126085066315 0.3221413471348811 0.2597359108053192 360.03988091456415 172.3281747479247
323.9164360611114 31.628890065835524 0.32769452873648597 0.2656390932017807 361.66030746350987 173.78185544558517
330.06021547034334 33.278110584552124 0.3333434379625472 0.2710787578055842 363.3227610243933 175.23867305073648
336.3377248306841 34.996751726455315 0.3390897249982634 0.27638164452897485 365.0270429856405 176.69867300893014
342.75239563416363 36.78671837750218 0.3449350684752844 0.2820159576097043 366.7732551876847 178.16142771359964
349.3127469329602 38.65679115669434 0.35088117596208035 0.28759239956345484 368.5632457970251 179.62281308437977
356.0179982424811 40.60254779373834 0.3569297844627652 0.2926507180164095 370.39513942729127 181.08586093941702
362.87161894726887 42.62554485678177 0.3630826609245175 0.2976058496429581 372.26881070045994 182.55041400308298
369.8776838050342 44.72802159039085 0.3693416027537498 0.3028324596598386 374.18425749083553 184.01597196044224
377.04571989459646 46.91882012835673 0.3757084383411748 0.30793255850782497 376.1425479489815 185.47847044374714
384.37423920137996 49.19272886637786 0.3821850275959231 0.3125215544923945 378.1420680020603 186.9415202760738
391.8673537720589 51.551645656583794 0.38877326248886857 0.31704011341831206 380.18264288681297 188.40489537630313
399.53022857376277 53.998550771733285 0.3954750676053199 0.32173794710659864 382.2641765278808 189.86781153455445
407.3724291860139 56.54109433027862 0.4022924007072386 0.3262560177033471 384.38684656688184 191.32699317636136
415.3926093188036 59.174483419942426 0.40922725330514964 0.33032373141907057 386.54960838431725 192.78593445174437
423.5953061809909 61.90062597545923 0.41628165123991057 0.3343330679737635 388.75217980057613 194.2445223409546
431.9870027817532 64.72329723895402 0.4234576552745099 0.33844367777413575 390.99427615507426 195.70167441052624
440.5770251421459 67.64881573370899 0.43075736169606577 0.34234063934627335 393.27543963785325 197.1549973649513
449.3643086509324 70.67296114055506 0.4381829029282034 0.34585294088734964 395.59516773161965 198.60775365438798
458.3538473549931 73.79767867736162 0.4457364481539887 0.3493186232354084 397.95311125729603 200.05992813734576
467.5536981515388 77.027587172091 0.45342020394959914 0.35282403402270646 400.3486982341418 201.51013545137317
476.9726258790827 80.36760327959247 0.4612364149289199 0.35610018974828783 402.78113502043635 202.95689176523837
486.6100156532322 83.81420550185936 0.4691873643992499 0.3590573204431635 405.2503908250171 204.40314259136073
496.47135452575156 87.36941208352289 0.4772753750283123 0.36197834849888366 407.7560864453435 205.84894995866304
506.56655900314644 91.03873246762508 0.4855028095227629 0.36489385448832223 410.2972643916196 207.29262843749711
516.9034684719422 94.82566064673001 0.4938720713183944 0.36757989436499905 412.8731075256692 208.73358290625708
527.4821139822687 98.72747146381049 0.5023856052822402 0.3700084324005575 415.48395412590855 210.17438737708488
538.3085169951437 102.74629564781578 0.5110458984267782 0.3724093515593818 418.12942481666244 211.61515947844745
549.3947716703991 106.88858307175066 0.5198554806364498 0.37477404613277354 420.80808286670407 213.0539215761969
560.7473841545874 111.15641113021425 0.5288169254067018 0.3769207954870195 423.519388423576 214.4909179400455
572.3672561543884 115.54792410382744 0.5379328505957653 0.37886474183026664 426.263926491692 215.9283232945553
584.2609906842314 120.06540490899816 0.5472059191893986 0.3807870372087292 429.04133904117657 217.3662915140309
596.4432130423701 124.71630099334256 0.5566388400788104 0.38265444483646505 431.84962364736657 218.80256300968787
608.9186419826651 129.50128533081002 0.5662343688519925 0.3844509365283635 434.68879187402194 220.23815990490425
616.00136603938 132.2255976425991 0.5716459518793942 0.1645528124496538 437.55954505588323 218.46391481611414
658.6399226231363 139.59250855554413 0.7045390116265015 0.18099879638466465 440.4615602408136 212.83716086499987
687.5101135706639 144.97871937527415 0.7929650765060093 0.1931197247698062 443.39219174670734 207.32294499359924
715.7872559197435 150.62109291906933 0.8782929418594402 0.20494527752587022 446.35224304333093 201.95520477246143
743.6831990168541 156.48703349265307 0.9614420470349672 0.21643492876011106 449.3424024244641 196.69774224048078
771.1609115571707 162.60077582118964 1.042192235019533 0.22796294123812766 452.3623894048231 191.5739050698157
798.3187189977185 168.93843129684046 1.1209781127079497 0.23886765143337652 455.4088468583903 186.57037752285882
825.2140768288239 175.50945357594372 1.1979622462552715 0.2497999221630307 458.48357591050296 181.6872971053424
851.9020214397483 182.3212708328884 1.2732970281188185 0.26007460319927755 461.5871295346198 176.9264912790871
878.4717820611318 189.3592897951056 1.3473442955213624 0.270096362681842 464.7192724425523 172.27209059935487
904.9034822804996 196.63533830700166 1.4199525409970766 0.27982962449287907 467.87587687666405 167.7457593962188
931.3041462305044 204.14306801663642 1.4915198054481644 0.28864053262782496 471.0599151315838 163.3273665445535
957.7246101065837 211.88182569315796 1.562214207491429 0.2974120163439018 474.2716930347005 159.0116867030325
984.1913359107214 219.87277085848189 1.6320125246487291 0.30576321149405183 477.5110201023164 154.81264640330735
1010.7266025590675 228.08841205983603 1.7010830355955076 0.3132305430878848 480.77294680996494 150.71949707774309
1037.403461921067 236.54146139499656 1.769626980835344 0.3205029702126403 484.06176219100337 146.7243150908179
1064.2581714963317 245.24673609101885 1.8376829027216395 0.32744393519405346 487.37742484726095 142.83390376266252
1091.3283952905492 254.20027409312613 1.9053836845770864 0.3337381782762563 490.71942709513365 139.04191585875625
1118.610317587325 263.3873914802758 1.9727503217953613 0.33954664373454957 494.0830324628434 135.34778778487538
1146.1742989665065 272.8246038555434 2.0399570661395345 0.3451384925786929 497.47289006040484 131.74465041982154
1174.0596749333906 282.52688592316196 2.1070474861736352 0.3503758411358744 500.8888825459008 128.23781237087016
1202.2867278662316 292.486721906425 2.174110856723443 0.3550867838010676 504.3299917615031 124.82039311221858
1230.8507528971174 302.69416552428436 2.241144536975957 0.3594314846458957 507.7922253856572 121.49282690906335
1259.8182028037318 313.1670341227873 2.3082988677317497 0.3634660745760243 511.2801267663313 118.24890894687816
1289.2172345974525 323.9100771150059 2.375629232101936 0.3672748592416353 514.7936148893198 115.08709510118173
1319.0744457140217 334.9320738253114 2.443147155244061 0.37079362617667133 518.3310928584808 112.01143625090614
1349.381399505586 346.22004924966296 2.5108466062611394 0.37396123128259795 521.8894715714698 109.01823215156413
1380.1975771032003 357.79130224013704 2.5788033999578515 0.3768556240004113 525.4730848306887 106.10191331054074
1411.5457335129547 369.648490628873 2.6469744188181563 0.37943476687593325 529.0818842067226 103.2683972180266
1443.447345285301 381.79179526181713 2.715641942669663 0.38174086056880707 532.7136335653959 100.51160995940091
1475.9107728137649 394.2204941999084 2.784856254135991 0.38385440303973173 536.3662857953279 97.82910927591601
1508.9956700165337 406.95406575700565 2.854728934986335 0.3857931519094917 540.0438741161018 95.2162430196745
1542.7263655023512 419.9986888984288 2.925294306288423 0.3875748556698708 543.7463790946406 92.67149677258126
1577.1057113770598 433.3529136693553 2.996533597193546 0.38919883260839416 547.4708712870953 90.19623234309108
1612.1455201476126 447.017558263627 3.0684608721369324 0.3906592570550389 551.216467733508 87.78856266741096
1647.9007611435707 461.0106444879715 3.141176421494448 0.39197536207510186 554.9868210458568 85.44402129677893
1684.3962168450466 475.3389752430732 3.2147121908969125 0.39316081744287246 558.781937487146 83.16120844116676
1721.6208006669267 489.9952928034082 3.289027933834871 0.3942220386760047 562.5981454122898 80.94086241885284
1759.6018982285384 504.9874691489135 3.3641610992985314 0.3951664491900946 566.4358348263322 78.78120789054147
1798.3956415587456 520.3348554359103 3.4402042787657794 0.3960019102662917 570.2982070044372 76.6790265159244
1838.0277524761063 536.0449130222571 3.5171881814061328 0.396735171741021 574.1852909518561 74.63301377651999
1878.477505290893 552.1067057866586 3.595053613230025 0.3973718223742937 578.0926279967849 72.64415056633197
1919.7872940395284 568.5343581302051 3.6738638444738427 0.3979182959043861 582.021979385741 70.71012365368475
1962.0107617917 585.3465761155442 3.7537014586356188 0.39838080822541766 585.9760320290837 68.8283364542764
2005.174817530856 602.5515052381962 3.8345965191931812 0.3987662884446248 589.9548350790684 66.99759280467308
2049.254857216039 620.1368994059446 3.916475574983089 0.3990785179413985 593.9531011119569 65.21967784904075
2094.3112251246484 638.1241995294046 3.9994317338448084 0.39932004707092794 597.9740527294582 63.49176724580867
2140.3898255030235 656.5291308252255 4.08353305784787 0.39949661977068196 602.019805726412 61.81140658487139
2187.5190985296917 675.3605827344687 4.168809577043693 0.39961382158936676 606.0904271513187 60.17749813713827
2235.6539753207253 694.5980905115462 4.255159344709632 0.39967577997405357 610.1797613821134 58.59134313302865
2284.8768358754455 714.2721505932916 4.342709743513073 0.399686635100462 614.2925763096104 57.049939056118276
2335.2338051576435 734.3988017481797 4.431520653506006 0.39965012928492083 618.4303648993331 55.551715658995036
2386.7549426087508 754.9876798118564 4.52162232098927 0.39956896320570756 622.5932101621104 54.09568438836259
2439.3904499171476 776.0164492790682 4.612897588626789 0.3994446887380798 626.7740504200112 52.68381430084641
2493.263106728755 797.5316197541579 4.705525607970137 0.3992823136529138 630.9792782513232 51.313593972126206
2548.391830168485 819.5385474874953 4.799533786238634 0.3990868016568818 635.2097160524316 49.98263541465462
