e[MeV/fm^3], P[MeV/fm^3], rho[fm^-3], v2[1], mu_q[MeV], mu_e[MeV]
70.21755168181654 0.006206087273093519 0.07407856508846018 0.017597877650005332 316.5185077347417 89.2771661002368
71.43578994790998 0.027644495228360377 0.07535555647246353 0.0175978776500052 316.5894798429086 89.8124074562691
72.67502861766434 0.04945246571785267 0.07665456106626496 0.017597877650005228 316.6616753923034 90.35687548400062
73.93562970314778 0.07163636938565421 0.07797595834102777 0.01759787765000538 316.7351154730202 90.91072923592193
75.21796145691394 0.09420268669514797 0.07932013430936638 0.01759787765000533 316.8098215387112 91.47413050632369
76.5223984795798 0.11715800982215896 0.0806874816381126 0.01759787765000522 316.8858154128541 92.04724387856187
77.84932182925448 0.14050904458066893 0.08207839976302188 0.017597877650005325 316.96311929512683 92.630236773136
79.19911913285509 0.16426261238173973 0.08349329500545777 0.017597877650005436 317.0417557678931 93.22327949659658
80.57218469934486 0.18842565222626206 0.08493258069109116 0.017597877650005332 317.12174780279906 93.82654529129692
81.96891963491473 0.21300522273190858 0.08639667727063695 0.017597877650005284 317.20311876748366 94.44021038599915
83.38973196016327 0.23800850419525207 0.0878860124426853 0.017597877650005242 317.2858924324053 95.06445404735784
84.83503672928572 0.26344280068923775 0.08940102127863886 0.01759787765000527 317.37009297778565 95.69945863228664
86.3052561513196 0.28931554219685157 0.0909421463498059 0.01759787765000538 317.45574500067295 96.34540964122833
87.80081971348744 0.3156342867816875 0.09250983785669148 0.017597877650005325 317.54287352212793 97.00249577234631
89.32216430665855 0.3424067227958098 0.09410455376051008 0.01759787765000531 317.63150399453286 97.67090897664707
90.86973435297011 0.3696406711256137 0.09572675991696154 0.017597877650005242 317.7216623090265 98.3508445140514
92.44398193566516 0.39734408747669764 0.0973769302123309 0.017597877650005228 317.8133748030682 99.04250101043964
94.04536693114535 0.4255250646977123 0.09905554670190979 0.01759787765000531 317.90666826813106 99.74608051566989
95.67435714332068 0.45419183514462985 0.10076309975082554 0.017892055534992374 318.00156995752883 100.46178856260559
97.33169327479138 0.4843410207312542 0.10250008817728433 0.018775745774211428 318.10048622561175 101.18570399772256
99.01814146064449 0.5170082040359527 0.10426701939828847 0.020025246310001077 318.2058447860128 101.91428658825437
100.73429318912723 0.5525181669555139 0.1060644095778678 0.02129999675038627 318.31828524079526 102.64750316311726
102.48063871606901 0.5907964457966746 0.10789278377786223 0.022549781036994038 318.43751805132047 103.38670836290729
104.25774423592242 0.6320103592916358 0.10975267611130558 0.023887708108000116 318.5638120290785 104.13237516689382
106.06623539667063 0.676492214395437 0.11164462989845152 0.025339806313660923 318.697770868173 104.88465247088972
107.90674784282342 0.7245234535359056 0.11356919782549418 0.026726883379044414 318.8398212612412 105.64215664334085
109.77980899298537 0.7757858510810522 0.11552694210601787 0.028008654354195556 318.9889635986241 106.39548846211913
111.68603200563659 0.8304189676497289 0.11751843464523576 0.02941848660514751 319.1453310518051 107.14305877628786
113.62612253642692 0.8889903796251314 0.1195442572070575 0.0310000273545607 319.31003653378224 107.89037199216354
115.60075117782822 0.9518318179215621 0.1216050015840337 0.03259969837934959 319.4836179784206 108.6399435927219
117.61049319554543 1.0189345897359714 0.12370126977023699 0.03419210470702347 319.6659546827271 109.3941654142798
119.65602415051524 1.0905481505064962 0.12583367413711752 0.03592218882239359 319.8573917239201 110.15411877028433
121.73815641876267 1.1672766767204164 0.12800283761239192 0.03778190969818496 320.0588603075681 110.92020174565145
123.85759205422588 1.2493614886182018 0.1302093938620144 0.0396255479711905 320.27062777688235 111.69348487044105
126.01496433860267 1.3368161240061027 0.13245398747528928 0.041461386350795104 320.4925793312381 112.47517112638602
128.2110155783424 1.429932568241939 0.13473727415316794 0.04346252473119688 320.7250671173629 113.26594974297757
130.4466887956552 1.52951487508801 0.1370599208997976 0.045590760196347446 320.969220213987 114.06610244230104
132.72270298041246 1.6357091714792171 0.13942260621736857 0.04767926014436641 321.22510082538804 114.87651716166351
135.03976205186157 1.748593799706529 0.14182602030432198 0.04977029748745049 321.49267975935425 115.69799950047124
137.3986835249372 1.8685229353243933 0.14427086525697244 0.05206400529136951 321.77234677231564 116.53110782929468
139.80057355445675 1.9965668028217445 0.14675785527460983 0.05448295484632937 322.0654823434704 117.37614392238619
142.24614757531495 2.1327305435734982 0.1492877168681315 0.05683638595368079 322.37191652081754 118.23384218287305
144.73619757503982 2.2771938463603174 0.15186118907227755 0.059208520968313694 322.69174413674494 119.10477732777403
147.27162660197732 2.430390920319256 0.15447902366151722 0.0618292055008095 323.0254080857181 119.98940983187808
149.85374556019306 2.5937403356179334 0.15714198536966398 0.06457197399617759 323.3745941649684 120.88804723823948
152.4832372283129 2.7670401807274834 0.15985085211327107 0.06721882453614525 323.7388555425644 121.80124809303793
155.16100474728017 2.9506159576823916 0.1626064152188807 0.06990575565196155 324.1184454344821 122.72942464238325
157.8880490867394 3.1450019316856195 0.16540947965419006 0.07289593855263288 324.5138717435153 123.67293532678868
160.66593902373984 3.3520690822739376 0.16826086426320178 0.07600220080988451 324.92718571735776 124.63202719571277
163.4952840125817 3.5713158744339593 0.17116140200542868 0.07897532922519734 325.3576004812541 125.6070903482084
166.37712853614147 3.8032695276021222 0.17411194019922174 0.08202037368123771 325.8055622707938 126.59840218489457
169.31260061973967 4.048620249866702 0.17711334076929286 0.08542133552471287 326.2716886567447 127.60620334892384
172.303551331823 4.309718566586897 0.18016648049850292 0.0889270452590527 326.7583492276527 128.63058410314463
175.35050383107742 4.585737524453315 0.1832722512839939 0.09226446929582366 327.26444376458807 129.67181814230588
178.45466868853612 4.877441713994387 0.18643156039773165 0.09572802473872655 327.7906096931573 130.73004905217363
181.61738960046912 5.18586172672753 0.18964533075154347 0.09956214286511778 328.3377308078966 131.80536363429957
184.84067158507494 5.5134958934314255 0.19291450116672415 0.10348029397253222 328.90808973361146 132.89762523650757
188.12508868773136 5.859506730761704 0.19624002664828616 0.10723125726635341 329.50063467169656 134.00704679883177
191.47199658539387 6.224818666062787 0.19962287866394354 0.11114950466071183 330.116072530961 135.1336328978941
194.88301649425165 6.610906017540677 0.2030640454278977 0.11544544815415358 330.7555888744374 136.2772622126371
198.3602890613904 7.020342674256472 0.2065645321895225 0.11979382346787826 331.42129567013734 137.43754067535426
201.9044613376726 7.452308308070558 0.2101253615270204 0.12397650239191993 332.11220306471756 138.61467605675114
205.5170562570145 7.907903230714149 0.21374757364614289 0.1283699626450635 332.8290718474655 139.80852765902867
209.2000509218192 8.389163756231573 0.21743222668406043 0.1331367755092301 333.57341318817043 141.01869117551004
212.95568685700158 8.89862029273525 0.22118039701847075 0.1379109881763032 334.34705688852574 142.2445530860434
216.7847142491265 9.435507109353031 0.224993179582034 0.1425209986125906 335.149090910276 143.4863497980139
220.6888478651131 10.001107919216421 0.22887168818223044 0.1473848211915132 335.9803024130194 144.74379875149575
224.67051841244387 10.598148441577159 0.23281705582673115 0.15260238957125072 336.84253077264475 146.0161250814302
228.73201076449018 11.228941923303356 0.23683043505437643 0.1577674592771845 337.73719306437926 147.30260528428684
232.87421847820065 11.892825884399452 0.2409129982718618 0.16276966708385543 338.6634726746745 148.60351662363965
237.09907459677976 12.591262929879372 0.2450659380962259 0.1680647442175771 339.6221443059857 149.91845083271977
241.4095830266287 13.327795359770137 0.24929046770324403 0.17367604335428166 340.61534675451054 151.2461733723472
245.80798450797525 14.104290408314728 0.25358782118182577 0.17916063314688135 341.6439533067965 152.5860269646372
250.29536865638684 14.920249387540146 0.2579592538945237 0.18448376658109078 342.70726027181 185.12862308527875
254.87391430339358 15.777295306389933 0.26240604284425445 0.1898909737516128 343.8059831368225 175.83622666545847
263.98119120413867 17.561206847648727 0.2712108128190396 0.01697280560539951 344.9424917462097 166.22425910815713
271.43974092980847 17.69076970999067 0.2980081259393699 0.017769300328687822 346.11701155796936 156.29081361307368
324.3096447491356 18.77948132812784 0.4893342918498464 0.023966381985228158 347.328966229596 146.3367195429869
372.6764078038824 20.087952325300652 0.6646562272616572 0.032444870617772625 348.57896372915343 136.57871206351024
414.52988548866915 21.64115828112253 0.8186680552523358 0.040906862634854935 349.86949367684684 127.13441938277535
453.1764421191617 23.3575401168 0.9622807078068221 0.050033707352935275 351.2000887836266 117.77171892763035
487.73416569380385 25.26030152382181 1.0924232622560528 0.06394020660293892 352.5703075794808 108.5834668746731
517.277250340784 27.37356237318756 1.2053866188698608 0.07675714571962322 353.98060905644974 99.78008209578584
545.1115279165202 29.647081301249532 1.3135020186806168 0.08733877576765381 355.4334521442952 91.07561170277074
571.429384336092 32.08645039185943 1.417779687354486 0.09841450341934455 356.9277197298895 82.48332618137403
596.5545846573006 34.696475930103944 1.5197259791328097 0.10982173027892361 358.4631014669581 73.99678676301828
620.9005586169193 37.51034524147444 1.6226307080193805 0.11727550060417258 360.03988091456415 65.66797422603183
646.096787005673 40.509498797822715 1.73436380746793 0.11601208967776255 361.66030746350987 57.342405071747834
674.5116775144168 43.70920241432969 1.8700511104459216 0.11585571484491897 363.3227610243933 48.95180982153441
703.2933885808998 47.138451045694765 2.013664458096594 0.15268762892987686 365.0270429856405 40.37579862570628
723.9225435963601 50.784197519355466 2.1115561411968367 0.36446878082405476 366.7732551876847 31.743164562390515
732.5119096347848 54.586181706991056 2.1353099803728925 0.444330509954018 368.5632457970251 23.435633494219534
741.3308383449614 58.520021223415526 2.159359434634683 0.44663887437781113 370.39513942729127 15.534858112949838
750.4289268698494 62.58894204485243 2.1839249728824712 0.44715219711838516 372.26881070045994 7.982929804985316
759.84022809339 66.79648715243665 2.2091530640035577 0.44666383070260496 374.18425749083553 1.5206869239213308
769.5932292277297 71.14865757048148 2.2351497993615337 0.4457489505552128 376.1425479489815 0.0
779.693091475176 75.64553409855961 2.2619289137021092 0.4447479442323088 378.1420680020603 0.0
790.1488999513164 80.29039240951445 2.289503568005398 0.4437416857034986 380.18264288681297 0.0
800.9702547697661 85.08672986118899 2.317887938282299 0.44273219165980704 382.2641765278808 0.0
812.1683570806698 90.0387341228699 2.3471000856522446 0.4417207454790306 384.38684656688184 0.0
823.7480447905886 95.14776616518499 2.3771412489497057 0.44070902264381306 386.54960838431725 0.0
835.7181934757539 100.41696456209968 2.4080230449605766 0.4396981642198958 388.75217980057613 0.0
848.0877553069188 105.84948877150894 2.439757062545959 0.43867227544449205 390.99427615507426 0.0
860.8714745808048 111.45057993489613 2.4723630847685403 0.43759384699366244 393.27543963785325 0.0
874.0932731643301 117.22885439939988 2.5058749343250457 0.4365288159847429 395.59516773161965 0.0
887.7426091083136 123.18017216145246 2.5402720867665596 0.4355203766692659 397.95311125729603 0.0
901.8270454687893 129.3070399127872 2.5755617585309074 0.43451801475903107 400.3486982341418 0.0
916.3528133228083 135.61138042297995 2.6117477183060576 0.4334435526054712 402.78113502043635 0.0
931.3690199631101 142.1112524690495 2.6489046272571053 0.43235967383367946 405.2503908250171 0.0
946.8539463168751 148.79836672671976 2.6869942077443025 0.43136175986832637 407.7560864453435 0.0
962.8087108025619 155.67267024481583 2.726010852527203 0.43032325575301034 410.2972643916196 0.0
979.2712210929325 162.74771804016348 2.7660060956163752 0.4292503225749442 412.8731075256692 0.0
996.247465943205 170.02572725996043 2.8069885284592355 0.42824252016007414 415.48395412590855 0.0
1013.7257912214071 177.50214621576086 2.8489358391895903 0.42720092419984823 418.12942481666244 0.0
1031.759481447099 185.19586932244175 2.8919177943837604 0.42614389521584695 420.80808286670407 0.0
1050.3207346206852 193.0963369526128 2.9358864714964437 0.4251452692129094 423.519388423576 0.0
1069.437026093291 201.2137383951819 2.98088387071836 0.4241044705177224 426.263926491692 0.0
1089.1445162592058 209.56104213681195 3.0269587940266165 0.4230973187571978 429.04133904117657 0.0
1109.4004651874304 218.12164778364442 3.074032752716303 0.4220740670847407 431.84962364736657 0.0
1130.2857015014313 226.9249694425498 3.1222217375354226 0.4210647449506011 434.68879187402194 0.0
1151.746030819426 235.951354197582 3.171447467531941 0.4200606762090109 437.55954505588323 0.0
1173.879990205796 245.23646696564066 3.2218480227253625 0.41905638608633833 440.4615602408136 0.0
1196.5989794186326 254.74674728449173 3.273274913036876 0.41806979659819277 443.39219174670734 0.0
1220.0110408372113 264.5217128687661 3.325885180538681 0.4170731201714144 446.35224304333093 0.0
1244.0631923877072 274.54221689961145 3.3796036638493443 0.41610690007707074 449.3424024244641 0.0
1268.8336679992187 284.83640302444246 3.434536111446031 0.4151214028828827 452.3623894048231 0.0
1294.2715958168956 295.3841754112108 3.490584306099244 0.414175396179699 455.4088468583903 0.0
1320.4247918020942 306.2034923531538 3.547823695592089 0.41320546460233043 458.48357591050296 0.0
1347.3350654246592 317.3095466670704 3.6063118973589074 0.4122668233821649 461.5871295346198 0.0
1374.976169577134 328.69256367319826 3.666006833042182 0.41132475177935657 464.7192724425523 0.0
1403.3921262388305 340.36643314754315 3.7269363104320408 0.4103730216393231 467.87587687666405 0.0
1432.5861851128113 352.33345325984646 3.7891206189113245 0.4094779083295057 471.0599151315838 0.0
1462.5705140449913 364.5979788446195 3.85257436122878 0.40854952625381813 474.2716930347005 0.0
1493.4299509427553 377.19028965714466 3.9174059612673964 0.40762045330654306 477.5110201023164 0.0
1525.0811266028547 390.0778880579108 3.983462389666264 0.40674847729877683 480.77294680996494 0.0
1557.5844032323027 403.2842770836811 4.0508510351617595 0.40585627227199783 484.06176219100337 0.0
1591.0050209890057 416.8326708842219 4.119653041229112 0.4049552494393227 487.37742484726095 0.0
1625.3417166564036 430.7221488635019 4.189857268458247 0.4040893811350976 490.71942709513365 0.0
1660.5498788471039 444.9342700653282 4.261364304324191 0.4032441945743903 494.0830324628434 0.0
1696.7028785993152 459.4973271567396 4.334300031584114 0.4023797045075952 497.47289006040484 0.0
1733.8685913168522 474.4353330028398 4.408745553490499 0.40151560291481303 500.8888825459008 0.0
1772.0291048711515 489.7411472859484 4.4846636874380055 0.4006851764440711 504.3299917615031 0.0
1811.1558910162655 505.40241536212835 4.561980726623212 0.39986829491214326 507.7922253856572 0.0
1851.3267271586317 521.448902883069 4.64082590477409 0.39905793429563374 511.2801267663313 0.0
1892.5693173297266 537.8902241268876 4.721227558460428 0.3982370465003502 514.7936148893198 0.0
1934.9291339078043 554.741545253908 4.803223085828601 0.3974216814282707 518.3310928584808 0.0
1978.364207010065 571.9861194044438 4.886727854597249 0.39663391633101064 521.8894715714698 0.0
2022.9506844359003 589.6529776981941 4.971865855836594 0.3958559479431445 525.4730848306887 0.0
2068.718588459995 607.7525239424718 5.058667014389102 0.3950853097417264 529.0818842067226 0.0
2115.669909633063 626.2840742559825 5.147107868984198 0.39432267665818976 532.7136335653959 0.0
2163.8073974012273 645.2472981268721 5.237167111101837 0.3935685236561035 536.3662857953279 0.0
2213.214985117757 664.6737926358131 5.328974224411099 0.39282201930789196 540.0438741161018 0.0
2263.9252989779347 684.574846999363 5.422560885170581 0.39207900050610967 543.7463790946406 0.0
2315.9425570061994 704.9501449742808 5.5178982978011915 0.3913430382174159 547.4708712870953 0.0
2369.2776229697424 725.8027857410879 5.61498352560845 0.39062138198844565 551.216467733508 0.0
2424.008620273173 747.1620617246159 5.713934185352871 0.38991019717234554 554.9868210458568 0.0
2480.1708166631165 769.0401606722033 5.814783699031041 0.38920692321171035 558.781937487146 0.0
2537.7442997832677 791.4277892101226 5.91746645107332 0.3885122828864196 562.5981454122898 0.0
2596.768364756064 814.3387389797559 6.02202330633432 0.3878263079096822 566.4358348263322 0.0
2657.3277603077236 837.8043543193158 6.128573863059991 0.387148422076633 570.2982070044372 0.0
2719.4607116108823 861.8378271975374 6.237153453344168 0.386478532329674 574.1852909518561 0.0
2783.1325669009702 886.4241872303601 6.347670322200631 0.385817412826726 578.0926279967849 0.0
2848.4077608018592 911.5867910499105 6.460205662379888 0.3851648372227974 582.021979385741 0.0
2915.3693377929726 937.3560480080346 6.5748703862804705 0.3845203358182596 585.9760320290837 0.0
2984.0586721060486 963.7462185168425 6.691701815614386 0.3838806144808018 589.9548350790684 0.0
3054.4373468628337 990.7404819433581 6.810593601826793 0.38324668808081874 593.9531011119569 0.0
3126.5997470937614 1018.3734908265527 6.931673152484216 0.3826234329133218 597.9740527294582 0.0
3200.6168521477107 1046.6710415191515 7.055030376908604 0.3820102579506157 602.019805726412 0.0
3276.533559764825 1075.648588181365 7.180704765523699 0.3814050544341532 606.0904271513187 0.0
3354.2761323271397 1105.2763708423024 7.308540466543429 0.38080862854200337 610.1797613821134 0.0
3433.9765562373364 1135.6030799499306 7.438720591103938 0.38022020580359595 614.2925763096104 0.0
3515.708987332272 1166.6552165771361 7.5713301528105825 0.3796395915331985 618.4303648993331 0.0
3599.5218903977266 1198.4494432595855 7.706410796294444 0.3790635067214563 622.5932101621104 0.0
3685.3356843002066 1230.9533565659387 7.843788256466715 0.3784884932234984 626.7740504200112 0.0
3773.3526448610864 1264.2411156804021 7.983735320415498 0.3779235212686265 630.9792782513232 0.0
3863.5992047799305 1298.3220985521675 8.126277564637595 0.3773731837594063 635.2097160524316 0.0
3956.127812568182 1333.2143155293686 8.27145897759402 0.3768198774190523 639.4654611461091 0.0
