e[MeV/fm^3], P[MeV/fm^3], rho[fm^-3], v2[1], mu_q[MeV], mu_e[MeV]
70.21755168181654 0.006206087273093519 0.07407856508846018 0.017597877650005332 316.5185077347417 89.2771661002368
71.43578994790998 0.027644495228360377 0.07535555647246353 0.0175978776500052 316.5894798429086 89.8124074562691
72.67502861766434 0.04945246571785267 0.07665456106626496 0.017597877650005228 316.6616753923034 90.35687548400062
73.93562970314778 0.07163636938565421 0.07797595834102777 0.01759787765000538 316.7351154730202 90.91072923592193
75.21796145691394 0.09420268669514797 0.07932013430936638 0.01759787765000533 316.8098215387112 91.47413050632369
76.5223984795798 0.11715800982215896 0.0806874816381126 0.01759787765000522 316.8858154128541 92.04724387856187
77.84932182925448 0.14050904458066893 0.08207839976302188 0.017597877650005325 316.96311929512683 92.630236773136
79.19911913285509 0.16426261238173973 0.08349329500545777 0.017597877650005436 317.0417557678931 93.22327949659658
80.57218469934486 0.18842565222626206 0.08493258069109116 0.017597877650005332 317.12174780279906 93.82654529129692
81.96891963491473 0.21300522273190858 0.08639667727063695 0.017597877650005284 317.20311876748366 94.44021038599915
83.38973196016327 0.23800850419525207 0.0878860124426853 0.017597877650005242 317.2858924324053 95.06445404735784
84.83503672928572 0.26344280068923775 0.08940102127863886 0.01759787765000527 317.37009297778565 95.69945863228664
86.3052561513196 0.28931554219685157 0.0909421463498059 0.01759787765000538 317.45574500067295 96.34540964122833
87.80081971348744 0.3156342867816875 0.09250983785669148 0.017597877650005325 317.54287352212793 97.00249577234631
89.32216430665855 0.3424067227958098 0.09410455376051008 0.01759787765000531 317.63150399453286 97.67090897664707
90.86973435297011 0.3696406711256137 0.09572675991696154 0.017597877650005242 317.7216623090265 98.3508445140514
92.44398193566516 0.39734408747669764 0.0973769302123309 0.017597877650005228 317.8133748030682 99.04250101043964
94.04536693114535 0.4255250646977123 0.09905554670190979 0.01759787765000531 317.90666826813106 99.74608051566989
95.67435714332068 0.45419183514462985 0.10076309975082554 0.017892055534992374 318.00156995752883 100.46178856260559
97.33169327479138 0.4843410207312542 0.10250008817728433 0.018775745774211428 318.10048622561175 101.18570399772256
99.01814146064449 0.5170082040359527 0.10426701939828847 0.020025246310001077 318.2058447860128 101.91428658825437
100.73429318912723 0.5525181669555139 0.1060644095778678 0.02129999675038627 318.31828524079526 102.64750316311726
102.48063871606901 0.5907964457966746 0.10789278377786223 0.022549781036994038 318.43751805132047 103.38670836290729
104.25774423592242 0.6320103592916358 0.10975267611130558 0.023887708108000116 318.5638120290785 104.13237516689382
106.06623539667063 0.676492214395437 0.11164462989845152 0.025339806313660923 318.697770868173 104.88465247088972
107.90674784282342 0.7245234535359056 0.11356919782549418 0.026726883379044414 318.8398212612412 105.64215664334085
109.77980899298537 0.7757858510810522 0.11552694210601787 0.028008654354195556 318.9889635986241 106.39548846211913
111.68603200563659 0.8304189676497289 0.11751843464523576 0.02941848660514751 319.1453310518051 107.14305877628786
113.62612253642692 0.8889903796251314 0.1195442572070575 0.0310000273545607 319.31003653378224 107.89037199216354
115.60075117782822 0.9518318179215621 0.1216050015840337 0.03259969837934959 319.4836179784206 108.6399435927219
117.61049319554543 1.0189345897359714 0.12370126977023699 0.03419210470702347 319.6659546827271 109.3941654142798
119.65602415051524 1.0905481505064962 0.12583367413711752 0.03592218882239359 319.8573917239201 110.15411877028433
121.73815641876267 1.1672766767204164 0.12800283761239192 0.03778190969818496 320.0588603075681 110.92020174565145
123.85759205422588 1.2493614886182018 0.1302093938620144 0.0396255479711905 320.27062777688235 111.69348487044105
126.01496433860267 1.3368161240061027 0.13245398747528928 0.041461386350795104 320.4925793312381 112.47517112638602
128.2110155783424 1.429932568241939 0.13473727415316794 0.04346252473119688 320.7250671173629 113.26594974297757
130.4466887956552 1.52951487508801 0.1370599208997976 0.045590760196347446 320.969220213987 114.06610244230104
132.72270298041246 1.6357091714792171 0.13942260621736857 0.04767926014436641 321.22510082538804 114.87651716166351
135.03976205186157 1.748593799706529 0.14182602030432198 0.04977029748745049 321.49267975935425 115.69799950047124
137.3986835249372 1.8685229353243933 0.14427086525697244 0.05206400529136951 321.77234677231564 116.53110782929468
139.80057355445675 1.9965668028217445 0.14675785527460983 0.05448295484632937 322.0654823434704 117.37614392238619
142.24614757531495 2.1327305435734982 0.1492877168681315 0.05683638595368079 322.37191652081754 118.23384218287305
144.73619757503982 2.2771938463603174 0.15186118907227755 0.059208520968313694 322.69174413674494 119.10477732777403
147.27162660197732 2.430390920319256 0.15447902366151722 0.0618292055008095 323.0254080857181 119.98940983187808
149.85374556019306 2.5937403356179334 0.15714198536966398 0.06457197399617759 323.3745941649684 120.88804723823948
152.4832372283129 2.7670401807274834 0.15985085211327107 0.06721882453614525 323.7388555425644 121.80124809303793
155.16100474728017 2.9506159576823916 0.1626064152188807 0.06990575565196155 324.1184454344821 122.72942464238325
157.8880490867394 3.1450019316856195 0.16540947965419006 0.07289593855263288 324.5138717435153 123.67293532678868
160.66593902373984 3.3520690822739376 0.16826086426320178 0.07600220080988451 324.92718571735776 124.63202719571277
163.4952840125817 3.5713158744339593 0.17116140200542868 0.07897532922519734 325.3576004812541 125.6070903482084
166.37712853614147 3.8032695276021222 0.17411194019922174 0.08202037368123771 325.8055622707938 126.59840218489457
169.31260061973967 4.048620249866702 0.17711334076929286 0.08542133552471287 326.2716886567447 127.60620334892384
172.303551331823 4.309718566586897 0.18016648049850292 0.0889270452590527 326.7583492276527 128.63058410314463
175.35050383107742 4.585737524453315 0.1832722512839939 0.09226446929582366 327.26444376458807 129.67181814230588
178.45466868853612 4.877441713994387 0.18643156039773165 0.09572802473872655 327.7906096931573 130.73004905217363
181.61738960046912 5.18586172672753 0.18964533075154347 0.09956214286511778 328.3377308078966 131.80536363429957
184.84067158507494 5.5134958934314255 0.19291450116672415 0.10373013393142339 328.90808973361146 132.89762523650757
192.09797004711544 6.294126627957226 0.20020586313221453 0.005899836965925335 329.50063467169656 142.82354865395888
212.315813596763 6.413408608702731 0.2724832911386371 0.005899836965925328 330.116072530961 131.85240327630189
303.0169531247346 6.9485305445414065 0.5823294224576961 0.005899836965925304 330.7555888744374 120.45202114177853
397.4326245574109 7.505567613022568 0.9048648468366185 0.011642814788850847 331.42129567013734 108.58475310720037
463.32377018050386 8.536813107268946 1.1433197894782081 0.01582121701624687 332.11220306471756 98.19833650339822
530.9068147619024 9.617875992249179 1.3883829681976194 0.016751075352444737 332.8290718474655 87.46878478108549
601.2246822556999 10.851014861888938 1.6523634081637055 0.019483282708176675 333.57341318817043 76.52071573470954
674.7026243828369 12.432069948689783 1.952509232562079 0.02151741109005456 334.34705688852574 65.66295847649548
750.8769788138188 14.07114484750074 2.2636694766682757 0.09518895212622869 335.149090910276 54.40675524367106
767.9157117217071 15.973823585904494 2.330875906110751 0.45055656785722364 335.9803024130194 44.01530871947379
771.7488583585504 17.99310693486457 2.3435149721034114 0.5733304629397113 336.84253077264475 33.52100526052669
775.1714767840757 20.097612705364455 2.3543338642592078 0.660694587663377 337.73719306437926 23.93128111301419
778.2839689573511 22.283691015324024 2.363751133423749 0.710784510221782 338.6634726746745 15.012396237905984
781.441081508942 24.554708165271997 2.373179953464808 0.7286134868051128 339.6221443059857 7.789510280258623
784.6416736435086 26.916812922431433 2.382600864973448 0.7379476940193745 340.61534675451054 2.502384287816728
787.9708727296978 29.373333259874368 2.392364695364419 0.7378098367833603 341.6439533067965 0.0
791.425014164364 31.921612647246434 2.402464086912416 0.7371089210580251 342.70726027181 0.0
795.0202355510545 34.56929802409269 2.4129334034813565 0.7361997871084931 343.8059831368225 0.0
798.7495785641348 37.31388820062506 2.4237762691731786 0.735067923054828 344.9424917462097 0.0
802.6425244814701 40.171904942204065 2.4350317751882646 0.7338192985635361 346.11701155796936 0.0
806.6748113193554 43.12948236732591 2.44666561548732 0.7329273566874237 347.328966229596 0.0
810.8597656731195 46.19437574911724 2.458698136640921 0.7316375012984508 348.57896372915343 0.0
815.2162809539255 49.378488864011665 2.4711667707943223 0.7304260484636034 349.86949367684684 0.0
819.731670584756 52.67449759847977 2.4840527307681497 0.7293853081735113 351.2000887836266 0.0
824.4116969623727 56.08530086984594 2.497361007924332 0.727988292896999 352.5703075794808 0.0
829.2736225560587 59.620625884760074 2.5111160213579176 0.7265849857333455 353.98060905644974 0.0
834.3144020488019 63.280253688071085 2.5253269752418612 0.7254052692571609 355.4334521442952 0.0
839.534623031956 67.06379087375933 2.539988586202638 0.7241507328972547 356.9277197298895 0.0
844.9376491060623 70.9728499239375 2.555103411208494 0.7226406181298408 358.4631014669581 0.0
850.5410272696517 75.01711718281173 2.570695148044403 0.7210774118283751 360.03988091456415 0.0
856.3444843117171 79.1977850717088 2.586775436439872 0.7196738175038266 361.66030746350987 0.0
862.3466351376535 83.51302047832009 2.603333703424898 0.7182204177135336 363.3227610243933 0.0
868.5515132301612 87.96482242324934 2.6203738740130595 0.7167164002724178 365.0270429856405 0.0
874.9643007800881 92.55599057999592 2.637902922243948 0.7151656314247505 366.7732551876847 0.0
881.5967794053565 97.29400257912907 2.655945561889314 0.713570509720749 368.5632457970251 0.0
888.4470354743414 102.17652062905267 2.6744890763854037 0.7119366823048274 370.39513942729127 0.0
895.5196105155974 107.20580939741365 2.693538325990496 0.7102675361288568 372.26881070045994 0.0
902.8195700298536 112.38448193510736 2.7130994711721113 0.7085660401778888 374.18425749083553 0.0
910.3562008795215 117.71810697914714 2.733189753273768 0.7068344088160776 376.1425479489815 0.0
918.1285133222278 123.20495851708858 2.7537989263987233 0.7050769529682857 378.1420680020603 0.0
926.1410382084833 128.8472068513497 2.7749314594571053 0.7032960431929363 380.18264288681297 0.0
934.3986641391541 134.64725197438455 2.7965926687052804 0.70149402161758 382.2641765278808 0.0
942.9074389211396 140.60828159920447 2.8187907810745254 0.699672861750801 384.38684656688184 0.0
951.6685338444511 146.73004944482915 2.841521240928471 0.6978353235967738 386.54960838431725 0.0
960.6861622357035 153.01442938219841 2.8647874191840472 0.6959832844526996 388.75217980057613 0.0
969.9645534300537 159.46328855559875 2.8885926633741805 0.6940867781044533 390.99427615507426 0.0
979.5107961061935 166.07984047920127 2.9129428240886353 0.6920744356952815 393.27543963785325 0.0
989.3367556645491 172.86970930439682 2.937849261327812 0.6900699427371588 395.59516773161965 0.0
999.4360919704172 179.82916529152416 2.963301913028353 0.6881537851511119 397.95311125729603 0.0
1009.8118532215454 186.959194730554 2.9893009515252764 0.686232222030382 400.3486982341418 0.0
1020.4660914965692 194.2600928911664 3.0158440691067243 0.68415191004107 402.78113502043635 0.0
1031.4243563833236 201.7447481147988 3.0429615672173838 0.6820358935125768 405.2503908250171 0.0
1042.674365464938 209.40635418789296 3.070635997753168 0.6800684737302198 407.7560864453435 0.0
1054.2152014277995 217.2435161660769 3.0988604353156304 0.6780009484991929 410.2972643916196 0.0
1066.0653430479153 225.26478211445308 3.1276519395087083 0.6758459194793112 412.8731075256692 0.0
1078.2279460610146 233.47176930987428 3.157015653720551 0.6738029146893361 415.48395412590855 0.0
1090.6960839828685 241.86044736600496 3.186940640485088 0.6716692098134374 418.12942481666244 0.0
1103.4952168518869 250.44225242867057 3.2174483940293106 0.6694859209807476 420.80808286670407 0.0
1116.609792425655 259.20866335238435 3.248516754069806 0.6674021734957094 423.519388423576 0.0
1130.054370919842 268.1671906891312 3.2801656851846137 0.6652094584402128 426.263926491692 0.0
1143.8466944825018 277.3261187442754 3.3124133574107004 0.6630693101716734 429.04133904117657 0.0
1157.9616799457356 286.67102415006383 3.3452180580291953 0.6608711061670736 431.84962364736657 0.0
1172.4403629552173 296.22197534963817 3.3786271511257437 0.6586860014359264 434.68879187402194 0.0
1187.2554379233325 305.9657522280271 3.41261210750488 0.6564872280116791 437.55954505588323 0.0
1202.4563049693902 315.92611514585764 3.4472276801447763 0.6542714641352099 440.4615602408136 0.0
1217.9937247741184 326.076270454986 3.482400489145278 0.6520697390955963 443.39219174670734 0.0
1233.923186967119 336.4437624196324 3.518198478706764 0.6498283701372998 446.35224304333093 0.0
1250.2182148607687 347.0159120254639 3.5545943285194066 0.6476316483784466 449.3424024244641 0.0
1266.9174646437646 357.8109478356881 3.591629810993299 0.645372377909867 452.3623894048231 0.0
1283.990000061739 368.81048461292465 3.6292486036754847 0.6431820057487005 455.4088468583903 0.0
1301.4618821317542 380.0284062794896 3.667490205125743 0.6409151542028848 458.48357591050296 0.0
1319.3542523425108 391.4749990933363 3.706380794916623 0.63870212939654 461.5871295346198 0.0
1337.653059624618 403.1429292928012 3.7459020714127287 0.6364582898460949 464.7192724425523 0.0
1356.3737707233079 415.0353754785248 3.7860453799512266 0.634172263742526 467.87587687666405 0.0
1375.521621479723 427.1571844151988 3.826833395804887 0.6320018320783465 471.0599151315838 0.0
1395.102542902355 439.5111003354927 3.868273557018447 0.6297288162360992 474.2716930347005 0.0
1415.1576672419915 452.11600506197345 3.910409163984376 0.6274350959177344 477.5110201023164 0.0
1435.6377107189917 464.9433615641786 3.9531538235816157 0.6252618203691753 480.77294680996494 0.0
1456.5782543537443 478.01371777351574 3.996572114913868 0.6230175118764656 484.06176219100337 0.0
1478.0106943931655 491.3413301890221 4.040696933961255 0.6207313491474107 487.37742484726095 0.0
1499.9328919374045 504.9241991511183 4.085521278433874 0.6185144862090866 490.71942709513365 0.0
1522.315079732112 518.7432304802755 4.130981655893151 0.6163312496617941 494.0830324628434 0.0
1545.1996175424479 532.8223986962591 4.177151933053904 0.6140778498493678 497.47289006040484 0.0
1568.618716816732 547.1760262683177 4.224064621810586 0.6118063621700092 500.8888825459008 0.0
1592.5612705874853 561.7973988314995 4.271699624614144 0.6096038061534887 504.3299917615031 0.0
1617.0064251316812 576.6722586044526 4.320007538652119 0.6074183849006847 507.7922253856572 0.0
1641.9983526240496 591.8251960910679 4.36906308513204 0.605231880840801 511.2801267663313 0.0
1667.5495901268862 607.2613702093904 4.4188774298816424 0.6029975085764043 514.7936148893198 0.0
1693.6787364973386 622.9870193982235 4.4694580913452935 0.6007597442689327 518.3310928584808 0.0
1720.3597288006872 638.9863671796768 4.520755586026213 0.598578972206111 521.8894715714698 0.0
1747.6354536625504 655.2830834632314 4.572841481731744 0.596407250462935 525.4730848306887 0.0
1775.519447685779 671.8827031333343 4.6257277500200935 0.5942381322855397 529.0818842067226 0.0
1804.0081617535113 688.7805858498194 4.67939398962024 0.5920738327280795 532.7136335653959 0.0
1833.0986806894034 705.9725597918996 4.733821593011906 0.5899160453772758 536.3662857953279 0.0
1862.836975942745 723.4832508548174 4.789082912245961 0.5877627406033046 540.0438741161018 0.0
1893.2377023868432 741.3186112068263 4.845190773768069 0.5856019919902327 543.7463790946406 0.0
1924.2970076042159 759.4729385740097 4.9021192420610875 0.5834446240528379 547.4708712870953 0.0
1956.017631643921 777.9458056544413 4.959862842569892 0.5813122340818637 551.216467733508 0.0
1988.4419820054477 796.759703914611 5.018487243365803 0.5791941186402134 554.9868210458568 0.0
2021.5858491890313 815.9210101735816 5.078006107464771 0.5770831649061776 558.781937487146 0.0
2055.432505554827 835.4173270121024 5.1383748858681715 0.5749819321742695 562.5981454122898 0.0
2090.0002307743866 855.2565319739028 5.199612136331688 0.5728909259225112 566.4358348263322 0.0
2125.333631060717 875.4614498961337 5.2617821488006955 0.5708087909043371 570.2982070044372 0.0
2161.4497627328024 896.0389267106654 5.324899475591583 0.5687356310084795 574.1852909518561 0.0
2198.3234076417925 916.9717704504378 5.388905093459833 0.5666742526406683 578.0926279967849 0.0
2235.9869424135586 938.275603539408 5.453840651731836 0.5646243734572085 582.021979385741 0.0
2274.483089562567 959.9716807394198 5.519764405919764 0.5625849291911305 585.9760320290837 0.0
2313.8302505797815 982.067344482164 5.586691817499274 0.560545709238248 589.9548350790684 0.0
2353.9997433408257 1004.5427196350583 5.654553896217727 0.5585103127199407 593.9531011119569 0.0
2395.0404172255558 1027.4222931088152 5.723418220680014 0.5564947593648544 597.9740527294582 0.0
2436.9881545196463 1050.7235186715577 5.793331713066303 0.5544976202431933 602.019805726412 0.0
2479.862856248562 1074.4542879950588 5.864310806158061 0.552512554605439 606.0904271513187 0.0
2523.6176465359576 1098.5856603732498 5.936262112503463 0.5505426313839674 610.1797613821134 0.0
2568.3215918168794 1123.152729393278 6.009283416861779 0.5485857228107722 614.2925763096104 0.0
2614.010724672299 1148.1720908478196 6.083416627503918 0.546641586962064 618.4303648993331 0.0
2660.706463857492 1173.6521920555772 6.15867913322699 0.5446994614168243 622.5932101621104 0.0
2708.357295580517 1199.560759332835 6.234965647107778 0.5427477910811831 626.7740504200112 0.0
2757.06757756851 1225.9498971807113 6.312418401573181 0.5408175429677797 630.9792782513232 0.0
2806.8499257102285 1252.8252650016268 6.391051813079852 0.538924719439839 635.2097160524316 0.0
2857.727448244563 1280.1959244307805 6.470884295791369 0.5370183715659209 639.4654611461091 0.0
