e[MeV/fm^3], P[MeV/fm^3], rho[fm^-3], v2[1], mu_q[MeV], mu_e[MeV]
70.21755168181654 0.006206087273093519 0.07407856508846018 0.017597877650005332 316.5185077347417 89.2771661002368
71.43578994790998 0.027644495228360377 0.07535555647246353 0.0175978776500052 316.5894798429086 89.8124074562691
72.67502861766434 0.04945246571785267 0.07665456106626496 0.017597877650005228 316.6616753923034 90.35687548400062
73.93562970314778 0.07163636938565421 0.07797595834102777 0.01759787765000538 316.7351154730202 90.91072923592193
75.21796145691394 0.09420268669514797 0.07932013430936638 0.01759787765000533 316.8098215387112 91.47413050632369
76.5223984795798 0.11715800982215896 0.0806874816381126 0.01759787765000522 316.8858154128541 92.04724387856187
77.84932182925448 0.14050904458066893 0.08207839976302188 0.017597877650005325 316.96311929512683 92.630236773136
79.19911913285509 0.16426261238173973 0.08349329500545777 0.017597877650005436 317.0417557678931 93.22327949659658
80.57218469934486 0.18842565222626206 0.08493258069109116 0.017597877650005332 317.12174780279906 93.82654529129692
81.96891963491473 0.21300522273190858 0.08639667727063695 0.017597877650005284 317.20311876748366 94.44021038599915
83.38973196016327 0.23800850419525207 0.0878860124426853 0.017597877650005242 317.2858924324053 95.06445404735784
84.83503672928572 0.26344280068923775 0.08940102127863886 0.01759787765000527 317.37009297778565 95.69945863228664
86.3052561513196 0.28931554219685157 0.0909421463498059 0.01759787765000538 317.45574500067295 96.34540964122833
87.80081971348744 0.3156342867816875 0.09250983785669148 0.017597877650005325 317.54287352212793 97.00249577234631
89.32216430665855 0.3424067227958098 0.09410455376051008 0.01759787765000531 317.63150399453286 97.67090897664707
90.86973435297011 0.3696406711256137 0.09572675991696154 0.017597877650005242 317.7216623090265 98.3508445140514
92.44398193566516 0.39734408747669764 0.0973769302123309 0.017597877650005228 317.8133748030682 99.04250101043964
94.04536693114535 0.4255250646977123 0.09905554670190979 0.01759787765000531 317.90666826813106 99.74608051566989
95.67435714332068 0.45419183514462985 0.10076309975082554 0.017892055534992374 318.00156995752883 100.46178856260559
97.33169327479138 0.4843410207312542 0.10250008817728433 0.018775745774211428 318.10048622561175 101.18570399772256
99.01814146064449 0.5170082040359527 0.10426701939828847 0.020025246310001077 318.2058447860128 101.91428658825437
100.73429318912723 0.5525181669555139 0.1060644095778678 0.02129999675038627 318.31828524079526 102.64750316311726
102.48063871606901 0.5907964457966746 0.10789278377786223 0.022549781036994038 318.43751805132047 103.38670836290729
104.25774423592242 0.6320103592916358 0.10975267611130558 0.023887708108000116 318.5638120290785 104.13237516689382
106.06623539667063 0.676492214395437 0.11164462989845152 0.025339806313660923 318.697770868173 104.88465247088972
107.90674784282342 0.7245234535359056 0.11356919782549418 0.026726883379044414 318.8398212612412 105.64215664334085
109.77980899298537 0.7757858510810522 0.11552694210601787 0.028008654354195556 318.9889635986241 106.39548846211913
111.68603200563659 0.8304189676497289 0.11751843464523576 0.02941848660514751 319.1453310518051 107.14305877628786
113.62612253642692 0.8889903796251314 0.1195442572070575 0.0310000273545607 319.31003653378224 107.89037199216354
115.60075117782822 0.9518318179215621 0.1216050015840337 0.03259969837934959 319.4836179784206 108.6399435927219
117.61049319554543 1.0189345897359714 0.12370126977023699 0.03419210470702347 319.6659546827271 109.3941654142798
119.65602415051524 1.0905481505064962 0.12583367413711752 0.03592218882239359 319.8573917239201 110.15411877028433
121.73815641876267 1.1672766767204164 0.12800283761239192 0.03778190969818496 320.0588603075681 110.92020174565145
123.85759205422588 1.2493614886182018 0.1302093938620144 0.0396255479711905 320.27062777688235 111.69348487044105
126.01496433860267 1.3368161240061027 0.13245398747528928 0.041461386350795104 320.4925793312381 112.47517112638602
128.2110155783424 1.429932568241939 0.13473727415316794 0.04346252473119688 320.7250671173629 113.26594974297757
130.4466887956552 1.52951487508801 0.1370599208997976 0.045590760196347446 320.969220213987 114.06610244230104
132.72270298041246 1.6357091714792171 0.13942260621736857 0.04767926014436641 321.22510082538804 114.87651716166351
135.03976205186157 1.748593799706529 0.14182602030432198 0.04977029748745049 321.49267975935425 115.69799950047124
137.3986835249372 1.8685229353243933 0.14427086525697244 0.05206400529136951 321.77234677231564 116.53110782929468
139.80057355445675 1.9965668028217445 0.14675785527460983 0.05448295484632937 322.0654823434704 117.37614392238619
142.24614757531495 2.1327305435734982 0.1492877168681315 0.05683638595368079 322.37191652081754 118.23384218287305
144.73619757503982 2.2771938463603174 0.15186118907227755 0.059208520968313694 322.69174413674494 119.10477732777403
147.27162660197732 2.430390920319256 0.15447902366151722 0.0618292055008095 323.0254080857181 119.98940983187808
149.85374556019306 2.5937403356179334 0.15714198536966398 0.06457197399617759 323.3745941649684 120.88804723823948
152.4832372283129 2.7670401807274834 0.15985085211327107 0.06721882453614525 323.7388555425644 121.80124809303793
155.16100474728017 2.9506159576823916 0.1626064152188807 0.06990575565196155 324.1184454344821 122.72942464238325
157.8880490867394 3.1450019316856195 0.16540947965419006 0.07289593855263288 324.5138717435153 123.67293532678868
160.66593902373984 3.3520690822739376 0.16826086426320178 0.07600220080988451 324.92718571735776 124.63202719571277
163.4952840125817 3.5713158744339593 0.17116140200542868 0.07897532922519734 325.3576004812541 125.6070903482084
166.37712853614147 3.8032695276021222 0.17411194019922174 0.08202037368123771 325.8055622707938 126.59840218489457
169.31260061973967 4.048620249866702 0.17711334076929286 0.08542133552471287 326.2716886567447 127.60620334892384
172.303551331823 4.309718566586897 0.18016648049850292 0.0889270452590527 326.7583492276527 128.63058410314463
175.35050383107742 4.585737524453315 0.1832722512839939 0.09226446929582366 327.26444376458807 129.67181814230588
178.45466868853612 4.877441713994387 0.18643156039773165 0.09572802473872655 327.7906096931573 130.73004905217363
181.61738960046912 5.18586172672753 0.18964533075154347 0.09956214286511778 328.3377308078966 131.80536363429957
184.84067158507494 5.5134958934314255 0.19291450116672415 0.10348029397253222 328.90808973361146 132.89762523650757
188.12508868773136 5.859506730761704 0.19624002664828616 0.10723125726635341 329.50063467169656 134.00704679883177
191.47199658539387 6.224818666062787 0.19962287866394354 0.11114950466071183 330.116072530961 135.1336328978941
194.88301649425165 6.610906017540677 0.2030640454278977 0.11544544815415358 330.7555888744374 136.2772622126371
198.3602890613904 7.020342674256472 0.2065645321895225 0.11979382346787826 331.42129567013734 137.43754067535426
201.9044613376726 7.452308308070558 0.2101253615270204 0.12397650239191993 332.11220306471756 138.61467605675114
205.5170562570145 7.907903230714149 0.21374757364614289 0.1283699626450635 332.8290718474655 139.80852765902867
209.2000509218192 8.389163756231573 0.21743222668406043 0.1331367755092301 333.57341318817043 141.01869117551004
212.95568685700158 8.89862029273525 0.22118039701847075 0.1379109881763032 334.34705688852574 142.2445530860434
216.7847142491265 9.435507109353031 0.224993179582034 0.1425209986125906 335.149090910276 143.4863497980139
220.6888478651131 10.001107919216421 0.22887168818223044 0.1473848211915132 335.9803024130194 144.74379875149575
224.67051841244387 10.598148441577159 0.23281705582673115 0.15260238957125072 336.84253077264475 146.0161250814302
228.73201076449018 11.228941923303356 0.23683043505437643 0.1577674592771845 337.73719306437926 147.30260528428684
232.87421847820065 11.892825884399452 0.2409129982718618 0.16276966708385543 338.6634726746745 148.60351662363965
237.09907459677976 12.591262929879372 0.2450659380962259 0.1680647442175771 339.6221443059857 149.91845083271977
241.4095830266287 13.327795359770137 0.24929046770324403 0.17367604335428166 340.61534675451054 151.2461733723472
245.80798450797525 14.104290408314728 0.25358782118182577 0.17916063314688135 341.6439533067965 152.5860269646372
250.29536865638684 14.920249387540146 0.2579592538945237 0.18448376658109078 342.70726027181 153.9383214680799
254.87391430339358 15.777295306389933 0.26240604284425445 0.19013115054428797 343.8059831368225 155.30255316107613
259.54734193097937 16.679902122692877 0.2669294870473437 0.19603884001981875 344.9424917462097 156.67695034502995
264.3177234138911 17.62921742422393 0.2715309079130002 0.20173455319505607 346.11701155796936 158.06114921462316
269.1864120746621 18.624978432827973 0.2762116496293318 0.20727097595137622 347.328966229596 159.45546560193614
274.15586021544175 19.66893704821644 0.28097307955601647 0.2131521958171756 348.57896372915343 160.8593430130801
279.2306731431928 20.76658998854091 0.28581658862374093 0.21922189252154145 349.86949367684684 162.27041922778363
284.412585417037 21.918069468750467 0.29074359174052566 0.2249894143101847 351.2000887836266 163.68887481305947
289.7032992122702 23.123430865940225 0.29575552820505524 0.2306016920899494 352.5703075794808 165.1149897852477
295.1055673860831 24.38451504681977 0.300853862127132 0.23656661428271297 353.98060905644974 166.5482047162215
300.6250734626658 25.70790002720107 0.3060400828553784 0.24263779812409947 355.4334521442952 167.985546141962
306.2629978571605 27.092417065261266 0.3113157054123131 0.24831998114039466 356.9277197298895 169.42797804232237
312.0214966673664 28.538529352055203 0.3166822709369256 0.2538541104542591 358.4631014669581 170.8756920374787
317.9036494111742 30.048126085066315 0.3221413471348811 0.2597359108053192 360.03988091456415 172.3281747479247
323.9164360611114 31.628890065835524 0.32769452873648597 0.2656390932017807 361.66030746350987 173.78185544558517
330.06021547034334 33.278110584552124 0.3333434379625472 0.2710787578055842 363.3227610243933 175.23867305073648
336.3377248306841 34.996751726455315 0.3390897249982634 0.27638164452897485 365.0270429856405 176.69867300893014
342.75239563416363 36.78671837750218 0.3449350684752844 0.2820159576097043 366.7732551876847 178.16142771359964
349.3127469329602 38.65679115669434 0.35088117596208035 0.28759239956345484 368.5632457970251 179.62281308437977
356.0179982424811 40.60254779373834 0.3569297844627652 0.2926507180164095 370.39513942729127 181.08586093941702
362.87161894726887 42.62554485678177 0.3630826609245175 0.2976058496429581 372.26881070045994 182.55041400308298
369.8776838050342 44.72802159039085 0.3693416027537498 0.3028324596598386 374.18425749083553 184.01597196044224
377.04571989459646 46.91882012835673 0.3757084383411748 0.30793255850782497 376.1425479489815 185.47847044374714
384.37423920137996 49.19272886637786 0.3821850275959231 0.3125215544923945 378.1420680020603 186.9415202760738
391.8673537720589 51.551645656583794 0.38877326248886857 0.31704011341831206 380.18264288681297 292.1112601348402
399.53022857376277 53.998550771733285 0.3954750676053199 0.32173794710659864 382.2641765278808 272.74088215449234
407.3724291860139 56.54109433027862 0.4022924007072386 0.3262560177033471 384.38684656688184 252.98769624781792
415.3926093188036 59.174483419942426 0.40922725330514964 0.33043474137261875 386.54960838431725 232.86142345613897
430.7042459114571 64.29013821831046 0.42235700231626383 0.015864596892886954 388.75217980057613 212.36468969220255
459.575247904129 64.77778095744758 0.5161774453410175 0.017916200826630077 390.99427615507426 191.50014395624754
609.0927061766727 68.25086744857452 0.9991340938067343 0.028665702316139463 393.27543963785325 170.70855546591056
740.9644246060176 72.66343995339939 1.4271839311889316 0.03920198691594673 395.59516773161965 150.228200718103
858.2006571163903 77.8576775346958 1.8109635898186518 0.05088243849154517 397.95311125729603 130.04984038276697
962.4362036424534 83.77094238293118 2.155914042276083 0.06390697223056446 400.3486982341418 110.19557161251444
1055.6647565372089 90.32735479470271 2.46864258757136 0.07564046408751934 402.78113502043635 90.78785297899331
1145.5984271791694 97.59101723685681 2.779922777437309 0.0791127030657946 405.2503908250171 71.77662027287796
1248.4563619859368 105.53378929559233 3.1563846291594033 0.0791611183746016 407.7560864453435 52.80559535312
1356.616890664807 114.3165826500601 3.569760186236814 0.2587465826652817 410.2972643916196 33.21702937493435
1386.915593587776 123.6631808925438 3.658599135205162 0.3779766324808982 412.8731075256692 14.518176671402971
1409.3339466906316 133.28954660319846 3.7127887888111433 0.4293441566050924 415.48395412590855 1.8432738777005917
1432.3680165012372 143.17784754473774 3.7680690593618693 0.42873429119559603 418.12942481666244 0.0
1456.132713862698 153.35295763513776 3.8247092883983442 0.4276686637758895 420.80808286670407 0.0
1480.5917853673725 163.80094900318244 3.882647797259511 0.426658887727108 423.519388423576 0.0
1505.7813679725168 174.53525080833302 3.941939794303781 0.4256063358712332 426.263926491692 0.0
1531.749001200989 185.5729401068125 4.002649357181143 0.4245876941663247 429.04133904117657 0.0
1558.4384385938395 196.89211006685593 4.064673257020477 0.4235526262610172 431.84962364736657 0.0
1585.9559633585645 208.53150936480878 4.128163848658406 0.42253154228516543 434.68879187402194 0.0
1614.2303186165504 220.46524898698294 4.193018361508503 0.42151562934697884 437.55954505588323 0.0
1643.3910641707046 232.74030496239462 4.259418142454769 0.4204993905470693 440.4615602408136 0.0
1673.3216384714715 245.31241858276047 4.327167971512605 0.4195009244287453 443.39219174670734 0.0
1704.164118527733 258.2336546444156 4.39647418042827 0.4184921482538124 446.35224304333093 0.0
1735.848844121261 271.4787936542697 4.467238094017513 0.41751406955484827 449.3424024244641 0.0
1768.4786727613532 285.0848977791658 4.539598596496906 0.41651637200950153 452.3623894048231 0.0
1801.9866403497738 299.02543692927117 4.6134264518050045 0.41555853902499784 455.4088468583903 0.0
1836.4356476748344 313.3240867078707 4.688820886540916 0.4145763708247596 458.48357591050296 0.0
1871.8806711743675 328.0008588783014 4.765857622277155 0.4136257856160537 461.5871295346198 0.0
1908.2871884130561 343.04286806847045 4.844481374419091 0.4126716128293273 464.7192724425523 0.0
1945.7129891665247 358.4683344666169 4.9247283905988715 0.41170755795125746 467.87587687666405 0.0
1984.162398365412 374.2803238719254 5.006625525948413 0.4108007527633504 471.0599151315838 0.0
2023.6514134356014 390.4845692109713 5.090191984395357 0.4098601393707977 474.2716930347005 0.0
2064.291564884224 407.12093525678273 5.175570173655156 0.40891873155999914 477.5110201023164 0.0
2105.9731302620116 424.1465348556074 5.262558751195234 0.40803508277374245 480.77294680996494 0.0
2148.7755528560306 441.592381996136 5.351299068757335 0.4071308397518649 484.06176219100337 0.0
2192.784596683956 459.4890359554716 5.44189771107258 0.4062175682556708 487.37742484726095 0.0
2237.9985808166584 477.8352661846181 5.534340014140506 0.40533983911032756 490.71942709513365 0.0
2284.3587447414247 496.6067005524477 5.6284950771594735 0.4044829901862217 494.0830324628434 0.0
2331.9616403303235 515.8406640262748 5.724528569217957 0.40360648335344607 497.47289006040484 0.0
2380.896490002016 535.5687616443314 5.822547017980422 0.4027302864966096 500.8888825459008 0.0
2431.139713150732 555.7815640379621 5.922501515836606 0.4018881530156788 504.3299917615031 0.0
2482.653708391372 576.4627246050328 6.024294978002519 0.4010596774566011 507.7922253856572 0.0
2535.540816035525 597.6515036419999 6.128097468398271 0.40023773949177066 511.2801267663313 0.0
2589.837445365919 619.3605473352922 6.233946205479503 0.39940504522798737 514.7936148893198 0.0
2645.60332908986 641.609781730503 6.341890209000697 0.3985778782813707 518.3310928584808 0.0
2702.783213394278 664.3770925157526 6.451818103785278 0.3977786369336149 521.8894715714698 0.0
2761.477289529313 687.7007670811118 6.563893053328529 0.396989265095665 525.4730848306887 0.0
2821.7250129015806 711.5944894101973 6.678154364802965 0.3962072626937596 529.0818842067226 0.0
2883.5289386063396 736.057306184272 6.794571072391644 0.39543331670362925 532.7136335653959 0.0
2946.892623165988 761.088732308153 6.913115050781895 0.3946679113190932 536.3662857953279 0.0
3011.9264836205984 786.7304251912522 7.033956658408783 0.3939102048620793 540.0438741161018 0.0
3078.6733967996547 812.9972326037214 7.157137505213165 0.39315597290757687 543.7463790946406 0.0
3147.1388271416636 839.8886690578173 7.2826195722505656 0.3924088424529133 547.4708712870953 0.0
3217.337022733517 867.4087842983483 7.410398945041514 0.3916761753187332 551.216467733508 0.0
3289.3707523732937 895.596192869831 7.540630368609265 0.3909540815097863 554.9868210458568 0.0
3363.286363759441 924.4669236064193 7.673357747927573 0.3902399637165068 558.781937487146 0.0
3439.0575822044316 954.0086589151364 7.808494648590095 0.38953455791411873 562.5981454122898 0.0
3516.736057515622 984.2395452637351 7.946094778047006 0.38883789839359384 566.4358348263322 0.0
3596.4332545797274 1015.2008866500494 8.086315454178724 0.38814940199328607 570.2982070044372 0.0
3678.1994069230386 1046.9100318350982 8.229203092695705 0.38746897613577946 574.1852909518561 0.0
3761.9888442141046 1079.3471737862076 8.374636870494559 0.38679740912237115 578.0926279967849 0.0
3847.8862925323924 1112.5430730967375 8.522723560672008 0.38613447300774517 582.021979385741 0.0
3936.0009618099707 1146.5377904437787 8.673609037368823 0.3854796925326802 585.9760320290837 0.0
4026.3872231468135 1181.3500789029201 8.827342331299745 0.38482972227851864 589.9548350790684 0.0
4118.994433951781 1216.9576763969906 8.983783394464357 0.3841855949018429 593.9531011119569 0.0
4213.946721894024 1253.406236821796 9.1430998046515 0.38355226684636445 597.9740527294582 0.0
4311.337421883548 1290.72973628704 9.305409808651978 0.38292913961753783 602.019805726412 0.0
4411.225534504008 1328.9484968140393 9.470765287292894 0.38231407230449044 606.0904271513187 0.0
4513.51396787456 1368.023209485808 9.638961107757556 0.38170788595876726 610.1797613821134 0.0
4618.376310101531 1408.018031706722 9.810238122419088 0.38110979514986276 614.2925763096104 0.0
4725.910053085078 1448.9678509898017 9.984708105858193 0.3805196036024556 618.4303648993331 0.0
4836.178884083902 1490.8945775298384 10.162425769810673 0.37993397927221917 622.5932101621104 0.0
4949.078004335782 1533.7554011310715 10.343161733897192 0.37934940735081746 626.7740504200112 0.0
5064.873425593569 1577.6480217475148 10.527274756792028 0.37877500885115456 630.9792782513232 0.0
5183.599896259413 1622.5847816201224 10.714798491931901 0.37821545484991237 635.2097160524316 0.0
5305.326337656841 1668.5893623136633 10.90579073094562 0.3776528703127262 639.4654611461091 0.0
