e[MeV/fm^3], P[MeV/fm^3], rho[fm^-3], v2[1], mu_q[MeV], mu_e[MeV]
70.21755168181654 0.006206087273093519 0.07407856508846018 0.017597877650005332 316.5185077347417 89.2771661002368
71.43578994790998 0.027644495228360377 0.07535555647246353 0.0175978776500052 316.5894798429086 89.8124074562691
72.67502861766434 0.04945246571785267 0.07665456106626496 0.017597877650005228 316.6616753923034 90.35687548400062
73.93562970314778 0.07163636938565421 0.07797595834102777 0.01759787765000538 316.7351154730202 90.91072923592193
75.21796145691394 0.09420268669514797 0.07932013430936638 0.01759787765000533 316.8098215387112 91.47413050632369
76.5223984795798 0.11715800982215896 0.0806874816381126 0.01759787765000522 316.8858154128541 92.04724387856187
77.84932182925448 0.14050904458066893 0.08207839976302188 0.017597877650005325 316.96311929512683 92.630236773136
79.19911913285509 0.16426261238173973 0.08349329500545777 0.017597877650005436 317.0417557678931 93.22327949659658
80.57218469934486 0.18842565222626206 0.08493258069109116 0.017597877650005332 317.12174780279906 93.82654529129692
81.96891963491473 0.21300522273190858 0.08639667727063695 0.017597877650005284 317.20311876748366 94.44021038599915
83.38973196016327 0.23800850419525207 0.0878860124426853 0.017597877650005242 317.2858924324053 95.06445404735784
84.83503672928572 0.26344280068923775 0.08940102127863886 0.01759787765000527 317.37009297778565 95.69945863228664
86.3052561513196 0.28931554219685157 0.0909421463498059 0.01759787765000538 317.45574500067295 96.34540964122833
87.80081971348744 0.3156342867816875 0.09250983785669148 0.017597877650005325 317.54287352212793 97.00249577234631
89.32216430665855 0.3424067227958098 0.09410455376051008 0.01759787765000531 317.63150399453286 97.67090897664707
90.86973435297011 0.3696406711256137 0.09572675991696154 0.017597877650005242 317.7216623090265 98.3508445140514
92.44398193566516 0.39734408747669764 0.0973769302123309 0.017597877650005228 317.8133748030682 99.04250101043964
94.04536693114535 0.4255250646977123 0.09905554670190979 0.01759787765000531 317.90666826813106 99.74608051566989
95.67435714332068 0.45419183514462985 0.10076309975082554 0.017892055534992374 318.00156995752883 100.46178856260559
97.33169327479138 0.4843410207312542 0.10250008817728433 0.018775745774211428 318.10048622561175 101.18570399772256
99.01814146064449 0.5170082040359527 0.10426701939828847 0.020025246310001077 318.2058447860128 101.91428658825437
100.73429318912723 0.5525181669555139 0.1060644095778678 0.02129999675038627 318.31828524079526 102.64750316311726
102.48063871606901 0.5907964457966746 0.10789278377786223 0.022549781036994038 318.43751805132047 103.38670836290729
104.25774423592242 0.6320103592916358 0.10975267611130558 0.023887708108000116 318.5638120290785 104.13237516689382
106.06623539667063 0.676492214395437 0.11164462989845152 0.025339806313660923 318.697770868173 104.88465247088972
107.90674784282342 0.7245234535359056 0.11356919782549418 0.026726883379044414 318.8398212612412 105.64215664334085
109.77980899298537 0.7757858510810522 0.11552694210601787 0.028008654354195556 318.9889635986241 106.39548846211913
111.68603200563659 0.8304189676497289 0.11751843464523576 0.02941848660514751 319.1453310518051 107.14305877628786
113.62612253642692 0.8889903796251314 0.1195442572070575 0.0310000273545607 319.31003653378224 107.89037199216354
115.60075117782822 0.9518318179215621 0.1216050015840337 0.03259969837934959 319.4836179784206 108.6399435927219
117.61049319554543 1.0189345897359714 0.12370126977023699 0.03419210470702347 319.6659546827271 109.3941654142798
119.65602415051524 1.0905481505064962 0.12583367413711752 0.03592218882239359 319.8573917239201 110.15411877028433
121.73815641876267 1.1672766767204164 0.12800283761239192 0.03778190969818496 320.0588603075681 110.92020174565145
123.85759205422588 1.2493614886182018 0.1302093938620144 0.0396255479711905 320.27062777688235 111.69348487044105
126.01496433860267 1.3368161240061027 0.13245398747528928 0.041461386350795104 320.4925793312381 112.47517112638602
128.2110155783424 1.429932568241939 0.13473727415316794 0.04346252473119688 320.7250671173629 113.26594974297757
130.4466887956552 1.52951487508801 0.1370599208997976 0.045590760196347446 320.969220213987 114.06610244230104
132.72270298041246 1.6357091714792171 0.13942260621736857 0.04767926014436641 321.22510082538804 114.87651716166351
135.03976205186157 1.748593799706529 0.14182602030432198 0.04977029748745049 321.49267975935425 115.69799950047124
137.3986835249372 1.8685229353243933 0.14427086525697244 0.05206400529136951 321.77234677231564 116.53110782929468
139.80057355445675 1.9965668028217445 0.14675785527460983 0.05448295484632937 322.0654823434704 117.37614392238619
142.24614757531495 2.1327305435734982 0.1492877168681315 0.05683638595368079 322.37191652081754 118.23384218287305
144.73619757503982 2.2771938463603174 0.15186118907227755 0.059208520968313694 322.69174413674494 119.10477732777403
147.27162660197732 2.430390920319256 0.15447902366151722 0.0618292055008095 323.0254080857181 119.98940983187808
149.85374556019306 2.5937403356179334 0.15714198536966398 0.06457197399617759 323.3745941649684 120.88804723823948
152.4832372283129 2.7670401807274834 0.15985085211327107 0.06721882453614525 323.7388555425644 121.80124809303793
155.16100474728017 2.9506159576823916 0.1626064152188807 0.06990575565196155 324.1184454344821 122.72942464238325
157.8880490867394 3.1450019316856195 0.16540947965419006 0.07289593855263288 324.5138717435153 123.67293532678868
160.66593902373984 3.3520690822739376 0.16826086426320178 0.07600220080988451 324.92718571735776 124.63202719571277
163.4952840125817 3.5713158744339593 0.17116140200542868 0.07897532922519734 325.3576004812541 125.6070903482084
166.37712853614147 3.8032695276021222 0.17411194019922174 0.08202037368123771 325.8055622707938 126.59840218489457
169.31260061973967 4.048620249866702 0.17711334076929286 0.08542133552471287 326.2716886567447 127.60620334892384
172.303551331823 4.309718566586897 0.18016648049850292 0.0889270452590527 326.7583492276527 128.63058410314463
175.35050383107742 4.585737524453315 0.1832722512839939 0.09226446929582366 327.26444376458807 129.67181814230588
178.45466868853612 4.877441713994387 0.18643156039773165 0.09572802473872655 327.7906096931573 130.73004905217363
181.61738960046912 5.18586172672753 0.18964533075154347 0.09956214286511778 328.3377308078966 131.80536363429957
184.84067158507494 5.5134958934314255 0.19291450116672415 0.10348029397253222 328.90808973361146 132.89762523650757
188.12508868773136 5.859506730761704 0.19624002664828616 0.10723125726635341 329.50063467169656 134.00704679883177
191.47199658539387 6.224818666062787 0.19962287866394354 0.11114950466071183 330.116072530961 135.1336328978941
194.88301649425165 6.610906017540677 0.2030640454278977 0.11544544815415358 330.7555888744374 136.2772622126371
198.3602890613904 7.020342674256472 0.2065645321895225 0.11979382346787826 331.42129567013734 137.43754067535426
201.9044613376726 7.452308308070558 0.2101253615270204 0.12397650239191993 332.11220306471756 138.61467605675114
205.5170562570145 7.907903230714149 0.21374757364614289 0.1283699626450635 332.8290718474655 139.80852765902867
209.2000509218192 8.389163756231573 0.21743222668406043 0.1331367755092301 333.57341318817043 141.01869117551004
212.95568685700158 8.89862029273525 0.22118039701847075 0.1379109881763032 334.34705688852574 142.2445530860434
216.7847142491265 9.435507109353031 0.224993179582034 0.1425209986125906 335.149090910276 143.4863497980139
220.6888478651131 10.001107919216421 0.22887168818223044 0.1473848211915132 335.9803024130194 144.74379875149575
224.67051841244387 10.598148441577159 0.23281705582673115 0.15260238957125072 336.84253077264475 146.0161250814302
228.73201076449018 11.228941923303356 0.23683043505437643 0.1577674592771845 337.73719306437926 147.30260528428684
232.87421847820065 11.892825884399452 0.2409129982718618 0.16276966708385543 338.6634726746745 148.60351662363965
237.09907459677976 12.591262929879372 0.2450659380962259 0.1680647442175771 339.6221443059857 149.91845083271977
241.4095830266287 13.327795359770137 0.24929046770324403 0.17367604335428166 340.61534675451054 151.2461733723472
245.80798450797525 14.104290408314728 0.25358782118182577 0.17916063314688135 341.6439533067965 152.5860269646372
250.29536865638684 14.920249387540146 0.2579592538945237 0.18448376658109078 342.70726027181 153.9383214680799
254.87391430339358 15.777295306389933 0.26240604284425445 0.19013115054428797 343.8059831368225 155.30255316107613
259.54734193097937 16.679902122692877 0.2669294870473437 0.19603884001981875 344.9424917462097 156.67695034502995
264.3177234138911 17.62921742422393 0.2715309079130002 0.20173455319505607 346.11701155796936 158.06114921462316
269.1864120746621 18.624978432827973 0.2762116496293318 0.20727097595137622 347.328966229596 159.45546560193614
274.15586021544175 19.66893704821644 0.28097307955601647 0.2131521958171756 348.57896372915343 160.8593430130801
279.2306731431928 20.76658998854091 0.28581658862374093 0.21922189252154145 349.86949367684684 162.27041922778363
284.412585417037 21.918069468750467 0.29074359174052566 0.2249894143101847 351.2000887836266 163.68887481305947
289.7032992122702 23.123430865940225 0.29575552820505524 0.2306016920899494 352.5703075794808 165.1149897852477
295.1055673860831 24.38451504681977 0.300853862127132 0.23656661428271297 353.98060905644974 192.15962999984617
300.6250734626658 25.70790002720107 0.3060400828553784 0.24296360527658933 355.4334521442952 183.59603789140883
309.43317391723696 27.883370015714572 0.31425127224542776 0.029210812680940557 356.9277197298895 174.7882745404019
330.13139965340173 28.557172516123615 0.3907906694181799 0.03589645873428465 358.4631014669581 165.7414967046899
369.90796980884255 30.24053642749409 0.5369226786944061 0.04687401137393005 360.03988091456415 156.93138147753874
406.86995409713626 32.1294907106774 0.6734096925610964 0.056313267691031066 361.66030746350987 148.2418697908224
441.07759768248127 34.22071076800619 0.8004382874842626 0.06700357075651431 363.3227610243933 139.68917953313147
472.70952507521963 36.51187437386861 0.9185756410629873 0.07889324260175401 365.0270429856405 131.2781026256123
502.0253247837695 39.00024019992856 1.0286404186041123 0.09186633097368635 366.7732551876847 123.00685531638388
529.32472048361 41.68570448692634 1.1315715358699263 0.10590409707487836 368.5632457970251 114.86266832631561
554.7903995405223 44.561577940599285 1.2277831865618285 0.1209661639016395 370.39513942729127 106.85836273091249
578.5996436235688 47.62055031838155 1.3176521782183246 0.13539720572570468 372.26881070045994 99.02404072428392
601.4279650792897 50.862879884296426 1.4042900518660033 0.14861324214366567 374.18425749083553 91.32650704096466
623.5629931061577 54.29371121729296 1.4888978186115667 0.1614232276034766 376.1425479489815 83.7307730008871
645.1393056037515 57.91181373988058 1.5719805091884982 0.17383695216112605 378.1420680020603 76.23448500623918
666.3055447307026 61.71895152034685 1.654160725748475 0.185565217804615 380.18264288681297 68.82901223800528
687.2202104957536 65.71771672548955 1.7362071430461126 0.19614920482250486 382.2641765278808 61.50455612081317
708.0786729089991 69.91216118104894 1.81923726247809 0.20473894157027428 384.38684656688184 54.248587861537246
729.1563426113023 74.30528384033576 1.9051205311821167 0.20955507735095957 386.54960838431725 47.048839826074506
750.9801400767468 78.90409699001283 1.9977929670419945 0.20665277547095728 388.75217980057613 39.88174007604286
774.8036767798447 83.72140043642231 2.1071992186088497 0.18925274849329132 390.99427615507426 32.702528664705994
804.0518318308298 88.79150697138147 2.261632512906851 0.28657942689451676 393.27543963785325 25.405777137207817
819.4233246638765 94.11140747450784 2.309129461689543 0.366707583968541 395.59516773161965 18.092329385221063
833.6522464230513 99.60083760482631 2.34506997141074 0.3857058210400468 397.95311125729603 11.031813110262895
848.3325482853635 105.26178260180087 2.3818772588137054 0.38540477478371526 400.3486982341418 4.198309710079603
863.4804102556054 111.09655462697555 2.4196153439955546 0.3848786122146546 402.78113502043635 0.07254649447355543
879.154295032511 117.1240827602779 2.4583992794780842 0.3842815635663981 405.2503908250171 0.0
895.3311473480021 123.33592246380408 2.4981904594752056 0.38372587658778023 407.7560864453435 0.0
912.0126099421119 129.73239202198897 2.5389838182598465 0.38314861097177877 410.2972643916196 0.0
929.2407569628641 136.3280098403796 2.5808387538846813 0.38255317724987226 412.8731075256692 0.0
947.0221718945887 143.12508909590522 2.6237645440515083 0.38199483626431663 415.48395412590855 0.0
965.3442606711136 150.1190734766387 2.6677364441159397 0.3814188735164974 418.12942481666244 0.0
984.2663051064228 157.3303320876198 2.7128353045656928 0.38083525137543894 420.80808286670407 0.0
1003.757994465877 164.74806715312303 2.7590076113974282 0.3802848885297605 423.519388423576 0.0
1023.8495065161444 172.38289169869438 2.80630012240183 0.37971227230652715 426.263926491692 0.0
1044.5809458002566 180.24866541887963 2.854768539458813 0.379159017621832 429.04133904117657 0.0
1065.9060353069158 188.32869819248444 2.9043266915757497 0.3785980082831166 431.84962364736657 0.0
1087.9140433583004 196.6540736109304 2.955105826342179 0.3780453902299641 434.68879187402194 0.0
1110.5450619332764 205.20396927916363 3.00701643268588 0.37749675638009794 437.55954505588323 0.0
1133.9080880646914 214.01623194796406 3.0602151990721156 0.3769487171280961 440.4615602408136 0.0
1157.9064343677214 223.05646915584126 3.1145375867651715 0.37641140825547303 443.39219174670734 0.0
1182.6592513482797 232.36627981854693 3.170160254632298 0.3758693248015845 446.35224304333093 0.0
1208.1079110194469 241.92532300242132 3.2269972376190372 0.3753447945005375 449.3424024244641 0.0
1234.3391076245387 251.76360641183408 3.285168581906977 0.37481056025562776 452.3623894048231 0.0
1261.2980535659572 261.8611814266652 3.344567580693421 0.3742986012676326 455.4088468583903 0.0
1289.0370716758932 272.2365739783609 3.405277236929824 0.37377452537969624 458.48357591050296 0.0
1317.602362025884 282.90585899315107 3.4673620269174745 0.37326810504895214 461.5871295346198 0.0
1346.9651360075527 293.858889313224 3.530774644984821 0.3727607022533599 464.7192724425523 0.0
1377.1758939016731 305.1120769386331 3.595552024707493 0.3722488169518181 467.87587687666405 0.0
1408.2372469079112 316.6669450377553 3.6617131980895374 0.3717681380593092 471.0599151315838 0.0
1440.1627021919692 328.5281565743175 3.7292742889204917 0.37127039153838837 474.2716930347005 0.0
1473.0464891470438 340.72819595042955 3.7983582559665754 0.3707729549388592 477.5110201023164 0.0
1506.7984335661606 353.23447591380955 3.8687984672161644 0.37030681341487615 480.77294680996494 0.0
1541.4838550406168 366.0705867463877 3.940710782443335 0.3698305739863583 484.06176219100337 0.0
1577.175280580318 379.26149240150124 4.01418709052809 0.36935030006324876 487.37742484726095 0.0
1613.8717257090584 392.8065963743685 4.089215459707577 0.3688894350116598 490.71942709513365 0.0
1651.5258656968585 406.6882055741432 4.165689654272341 0.36844021941286265 494.0830324628434 0.0
1690.2173403852728 420.9349272475822 4.243745987841328 0.36798140719649286 497.47289006040484 0.0
1730.0217307842506 435.57270053476293 4.323476405408451 0.36752341537898126 500.8888825459008 0.0
1770.919805419073 450.5944866199621 4.404840176981194 0.3670838934550771 504.3299917615031 0.0
1812.8817983115275 465.98883495804284 4.487759173771479 0.36665212763658506 507.7922253856572 0.0
1855.9923322806687 481.78601603877144 4.572373642151445 0.36622437893071336 511.2801267663313 0.0
1900.2824243229195 497.99657278184156 4.65871576160782 0.3657916637877374 514.7936148893198 0.0
1945.8035248141841 514.6376599375064 4.74682997428875 0.36536241031999417 518.3310928584808 0.0
1992.5105808664784 531.6927788066172 4.83662459099221 0.3649482398143915 521.8894715714698 0.0
2040.4865409649751 549.1915389811567 4.928234202465831 0.36453974486524476 525.4730848306887 0.0
2089.7650312874434 567.145362124525 5.021692742863149 0.3641356102849942 529.0818842067226 0.0
2140.349498246918 585.5546731657836 5.116976623574756 0.36373617390446533 532.7136335653959 0.0
2192.244158519325 604.4202077309027 5.214064442122065 0.3633416678554715 536.3662857953279 0.0
2245.540796945855 623.7745051553159 5.3130974037656635 0.36295164080783504 540.0438741161018 0.0
2300.2759716125106 643.6299737730359 5.414111386705297 0.36256390877937417 543.7463790946406 0.0
2356.455981522132 663.9877879869364 5.517077683727416 0.36218031693833375 547.4708712870953 0.0
2414.093585770991 684.8519203542883 5.621994143268634 0.3618046285644745 551.216467733508 0.0
2473.2743204584713 706.2526295952739 5.728989044353672 0.36143482497336343 554.9868210458568 0.0
2534.0377176025545 728.2033250325637 5.838100207103255 0.36106955571372357 558.781937487146 0.0
2596.3635958158375 750.6958526901818 5.949258235970845 0.36070918074154523 562.5981454122898 0.0
2660.2958138083613 773.7452045746727 6.062508866438397 0.36035370088253327 566.4358348263322 0.0
2725.927543934294 797.3841007252274 6.177983218110522 0.36000280243396965 570.2982070044372 0.0
2793.3016492872202 821.6270707153118 6.295721242959571 0.35965642270323794 574.1852909518561 0.0
2862.3819448750087 846.4602156629506 6.415625004326668 0.359314947253357 578.0926279967849 0.0
2933.239690830929 871.9082980819516 6.537784063309322 0.35897824443154835 582.021979385741 0.0
3005.966455970323 898.0033063849706 6.662320390682438 0.35864605772682 585.9760320290837 0.0
3080.608651025842 924.7609627688731 6.789276163685961 0.3583166799624955 589.9548350790684 0.0
3157.126357404284 952.165804050289 6.918538027226225 0.35799062105525437 593.9531011119569 0.0
3235.6235684913927 980.254208904021 7.05024591137089 0.3576703768497058 597.9740527294582 0.0
3316.178723138023 1009.0534714346821 7.184498772845627 0.35735562892717887 602.019805726412 0.0
3398.8422030821694 1038.5806478468644 7.321341219836516 0.35704527937208663 606.0904271513187 0.0
3483.535150371431 1068.8066689076381 7.4606050207575665 0.3567397286928271 610.1797613821134 0.0
3570.4027802594683 1099.782461962833 7.602491102563937 0.35643856734833346 614.2925763096104 0.0
3659.5274402181126 1131.5364337472924 7.747093706513571 0.356141683688473 618.4303648993331 0.0
3750.9635321392966 1164.0869909177854 7.894459857856965 0.35584739323602577 622.5932101621104 0.0
3844.626201473848 1197.40269166588 8.04440168595637 0.35555392405207176 626.7740504200112 0.0
3940.7384052227635 1231.5614726027957 8.197219459420555 0.35526584046619103 630.9792782513232 0.0
4039.3295593130993 1266.5734436832518 8.352941037717224 0.35498547524279633 635.2097160524316 0.0
4140.458556912157 1302.4585193486996 8.511616079967796 0.35470366471526305 639.4654611461091 0.0
