e[MeV/fm^3], P[MeV/fm^3], rho[fm^-3], v2[1], mu_q[MeV], mu_e[MeV]
70.21755168181654 0.006206087273093519 0.07407856508846018 0.017597877650005332 316.5185077347417 89.2771661002368
71.43578994790998 0.027644495228360377 0.07535555647246353 0.0175978776500052 316.5894798429086 89.8124074562691
72.67502861766434 0.04945246571785267 0.07665456106626496 0.017597877650005228 316.6616753923034 90.35687548400062
73.93562970314778 0.07163636938565421 0.07797595834102777 0.01759787765000538 316.7351154730202 90.91072923592193
75.21796145691394 0.09420268669514797 0.07932013430936638 0.01759787765000533 316.8098215387112 91.47413050632369
76.5223984795798 0.11715800982215896 0.0806874816381126 0.01759787765000522 316.8858154128541 92.04724387856187
77.84932182925448 0.14050904458066893 0.08207839976302188 0.017597877650005325 316.96311929512683 92.630236773136
79.19911913285509 0.16426261238173973 0.08349329500545777 0.017597877650005436 317.0417557678931 93.22327949659658
80.57218469934486 0.18842565222626206 0.08493258069109116 0.017597877650005332 317.12174780279906 93.82654529129692
81.96891963491473 0.21300522273190858 0.08639667727063695 0.017597877650005284 317.20311876748366 94.44021038599915
83.38973196016327 0.23800850419525207 0.0878860124426853 0.017597877650005242 317.2858924324053 95.06445404735784
84.83503672928572 0.26344280068923775 0.08940102127863886 0.01759787765000527 317.37009297778565 95.69945863228664
86.3052561513196 0.28931554219685157 0.0909421463498059 0.01759787765000538 317.45574500067295 96.34540964122833
87.80081971348744 0.3156342867816875 0.09250983785669148 0.017597877650005325 317.54287352212793 97.00249577234631
89.32216430665855 0.3424067227958098 0.09410455376051008 0.01759787765000531 317.63150399453286 97.67090897664707
90.86973435297011 0.3696406711256137 0.09572675991696154 0.017597877650005242 317.7216623090265 98.3508445140514
92.44398193566516 0.39734408747669764 0.0973769302123309 0.017597877650005228 317.8133748030682 99.04250101043964
94.04536693114535 0.4255250646977123 0.09905554670190979 0.01759787765000531 317.90666826813106 99.74608051566989
95.67435714332068 0.45419183514462985 0.10076309975082554 0.017892055534992374 318.00156995752883 100.46178856260559
97.33169327479138 0.4843410207312542 0.10250008817728433 0.018775745774211428 318.10048622561175 101.18570399772256
99.01814146064449 0.5170082040359527 0.10426701939828847 0.020025246310001077 318.2058447860128 101.91428658825437
100.73429318912723 0.5525181669555139 0.1060644095778678 0.02129999675038627 318.31828524079526 102.64750316311726
102.48063871606901 0.5907964457966746 0.10789278377786223 0.022549781036994038 318.43751805132047 103.38670836290729
104.25774423592242 0.6320103592916358 0.10975267611130558 0.023887708108000116 318.5638120290785 104.13237516689382
106.06623539667063 0.676492214395437 0.11164462989845152 0.025339806313660923 318.697770868173 104.88465247088972
107.90674784282342 0.7245234535359056 0.11356919782549418 0.026726883379044414 318.8398212612412 105.64215664334085
109.77980899298537 0.7757858510810522 0.11552694210601787 0.028008654354195556 318.9889635986241 106.39548846211913
111.68603200563659 0.8304189676497289 0.11751843464523576 0.02941848660514751 319.1453310518051 107.14305877628786
113.62612253642692 0.8889903796251314 0.1195442572070575 0.0310000273545607 319.31003653378224 107.89037199216354
115.60075117782822 0.9518318179215621 0.1216050015840337 0.03259969837934959 319.4836179784206 108.6399435927219
117.61049319554543 1.0189345897359714 0.12370126977023699 0.03419210470702347 319.6659546827271 109.3941654142798
119.65602415051524 1.0905481505064962 0.12583367413711752 0.03592218882239359 319.8573917239201 110.15411877028433
121.73815641876267 1.1672766767204164 0.12800283761239192 0.03778190969818496 320.0588603075681 110.92020174565145
123.85759205422588 1.2493614886182018 0.1302093938620144 0.0396255479711905 320.27062777688235 111.69348487044105
126.01496433860267 1.3368161240061027 0.13245398747528928 0.041461386350795104 320.4925793312381 112.47517112638602
128.2110155783424 1.429932568241939 0.13473727415316794 0.04346252473119688 320.7250671173629 113.26594974297757
130.4466887956552 1.52951487508801 0.1370599208997976 0.045590760196347446 320.969220213987 114.06610244230104
132.72270298041246 1.6357091714792171 0.13942260621736857 0.04767926014436641 321.22510082538804 114.87651716166351
135.03976205186157 1.748593799706529 0.14182602030432198 0.04977029748745049 321.49267975935425 115.69799950047124
137.3986835249372 1.8685229353243933 0.14427086525697244 0.05206400529136951 321.77234677231564 116.53110782929468
139.80057355445675 1.9965668028217445 0.14675785527460983 0.05448295484632937 322.0654823434704 117.37614392238619
142.24614757531495 2.1327305435734982 0.1492877168681315 0.05683638595368079 322.37191652081754 118.23384218287305
144.73619757503982 2.2771938463603174 0.15186118907227755 0.059208520968313694 322.69174413674494 119.10477732777403
147.27162660197732 2.430390920319256 0.15447902366151722 0.0618292055008095 323.0254080857181 119.98940983187808
149.85374556019306 2.5937403356179334 0.15714198536966398 0.06457197399617759 323.3745941649684 120.88804723823948
152.4832372283129 2.7670401807274834 0.15985085211327107 0.06721882453614525 323.7388555425644 121.80124809303793
155.16100474728017 2.9506159576823916 0.1626064152188807 0.06990575565196155 324.1184454344821 122.72942464238325
157.8880490867394 3.1450019316856195 0.16540947965419006 0.07289593855263288 324.5138717435153 123.67293532678868
160.66593902373984 3.3520690822739376 0.16826086426320178 0.07600220080988451 324.92718571735776 124.63202719571277
163.4952840125817 3.5713158744339593 0.17116140200542868 0.07897532922519734 325.3576004812541 125.6070903482084
166.37712853614147 3.8032695276021222 0.17411194019922174 0.08202037368123771 325.8055622707938 126.59840218489457
169.31260061973967 4.048620249866702 0.17711334076929286 0.08542133552471287 326.2716886567447 127.60620334892384
172.303551331823 4.309718566586897 0.18016648049850292 0.0889270452590527 326.7583492276527 128.63058410314463
175.35050383107742 4.585737524453315 0.1832722512839939 0.09226446929582366 327.26444376458807 129.67181814230588
178.45466868853612 4.877441713994387 0.18643156039773165 0.09572802473872655 327.7906096931573 130.73004905217363
181.61738960046912 5.18586172672753 0.18964533075154347 0.09956214286511778 328.3377308078966 131.80536363429957
184.84067158507494 5.5134958934314255 0.19291450116672415 0.10348029397253222 328.90808973361146 132.89762523650757
188.12508868773136 5.859506730761704 0.19624002664828616 0.10723125726635341 329.50063467169656 134.00704679883177
191.47199658539387 6.224818666062787 0.19962287866394354 0.11114950466071183 330.116072530961 135.1336328978941
194.88301649425165 6.610906017540677 0.2030640454278977 0.11544544815415358 330.7555888744374 136.2772622126371
198.3602890613904 7.020342674256472 0.2065645321895225 0.11979382346787826 331.42129567013734 137.43754067535426
201.9044613376726 7.452308308070558 0.2101253615270204 0.12397650239191993 332.11220306471756 138.61467605675114
205.5170562570145 7.907903230714149 0.21374757364614289 0.1283699626450635 332.8290718474655 139.80852765902867
209.2000509218192 8.389163756231573 0.21743222668406043 0.1331367755092301 333.57341318817043 141.01869117551004
212.95568685700158 8.89862029273525 0.22118039701847075 0.1379109881763032 334.34705688852574 142.2445530860434
216.7847142491265 9.435507109353031 0.224993179582034 0.1425209986125906 335.149090910276 143.4863497980139
220.6888478651131 10.001107919216421 0.22887168818223044 0.1473848211915132 335.9803024130194 144.74379875149575
224.67051841244387 10.598148441577159 0.23281705582673115 0.15260238957125072 336.84253077264475 146.0161250814302
228.73201076449018 11.228941923303356 0.23683043505437643 0.1577674592771845 337.73719306437926 147.30260528428684
232.87421847820065 11.892825884399452 0.2409129982718618 0.16276966708385543 338.6634726746745 148.60351662363965
237.09907459677976 12.591262929879372 0.2450659380962259 0.1680647442175771 339.6221443059857 149.91845083271977
241.4095830266287 13.327795359770137 0.24929046770324403 0.17367604335428166 340.61534675451054 151.2461733723472
245.80798450797525 14.104290408314728 0.25358782118182577 0.17916063314688135 341.6439533067965 152.5860269646372
250.29536865638684 14.920249387540146 0.2579592538945237 0.18448376658109078 342.70726027181 153.9383214680799
254.87391430339358 15.777295306389933 0.26240604284425445 0.19013115054428797 343.8059831368225 155.30255316107613
259.54734193097937 16.679902122692877 0.2669294870473437 0.19603884001981875 344.9424917462097 156.67695034502995
264.3177234138911 17.62921742422393 0.2715309079130002 0.20173455319505607 346.11701155796936 158.06114921462316
269.1864120746621 18.624978432827973 0.2762116496293318 0.20727097595137622 347.328966229596 159.45546560193614
274.15586021544175 19.66893704821644 0.28097307955601647 0.2131521958171756 348.57896372915343 160.8593430130801
279.2306731431928 20.76658998854091 0.28581658862374093 0.21922189252154145 349.86949367684684 162.27041922778363
284.412585417037 21.918069468750467 0.29074359174052566 0.2249894143101847 351.2000887836266 163.68887481305947
289.7032992122702 23.123430865940225 0.29575552820505524 0.2306016920899494 352.5703075794808 165.1149897852477
295.1055673860831 24.38451504681977 0.300853862127132 0.23656661428271297 353.98060905644974 166.5482047162215
300.6250734626658 25.70790002720107 0.3060400828553784 0.24263779812409947 355.4334521442952 167.985546141962
306.2629978571605 27.092417065261266 0.3113157054123131 0.24831998114039466 356.9277197298895 169.42797804232237
312.0214966673664 28.538529352055203 0.3166822709369256 0.2538541104542591 358.4631014669581 170.8756920374787
317.9036494111742 30.048126085066315 0.3221413471348811 0.2597359108053192 360.03988091456415 335.1043117425864
323.9164360611114 31.628890065835524 0.32769452873648597 0.2656390932017807 361.66030746350987 307.4183240039896
330.06021547034334 33.278110584552124 0.3333434379625472 0.2710787578055842 363.3227610243933 279.01427882677933
336.3377248306841 34.996751726455315 0.3390897249982634 0.27638164452897485 365.0270429856405 249.89556961228197
342.75239563416363 36.78671837750218 0.3449350684752844 0.2817036277739895 366.7732551876847 220.06045635383862
352.26649685784054 39.5089771978733 0.3535618385923565 0.004350852294097041 368.5632457970251 189.47736198609624
572.4428637952185 41.11554225950385 1.0499619131542663 0.010242585539196714 370.39513942729127 158.44164465068152
845.9730003961238 44.918241104543014 1.9188325897452283 0.01894455489750073 372.26881070045994 128.01908062805717
1069.7009945004957 50.079367289166456 2.643484236863418 0.0262178064275152 374.18425749083553 98.36266144656769
1288.1150661323115 56.477166019307084 3.3790831372768677 0.03163561174682869 376.1425479489815 69.10037329858463
1516.3784464192734 64.25748729562049 4.178553936576687 0.44706963340474193 378.1420680020603 39.038964678677544
1534.2818473088164 72.84147523659794 4.227132068673718 0.5031120443045596 380.18264288681297 12.801639187943696
1551.1209924553937 81.68803602413878 4.271368843419751 0.5258227796594479 382.2641765278808 0.0
1568.4411110731196 90.8036488297039 4.316550270965452 0.5255576270404543 384.38684656688184 0.0
1586.3262420080111 100.18956857600328 4.362948582051768 0.5240425280197161 386.54960838431725 0.0
1604.7884202524654 109.85030923693019 4.4105780954581135 0.5225242472343514 388.75217980057613 0.0
1623.8397711340372 119.79040199128713 4.459453085555884 0.5209787190167741 390.99427615507426 0.0
1643.5003468835248 130.01744111378744 4.509598009134887 0.5193489216578118 393.27543963785325 0.0
1663.802924705947 140.54413811900775 4.561055586318337 0.5177347123588496 395.59516773161965 0.0
1684.7323186211904 151.3637018299703 4.613797779419163 0.5162013974130741 397.95311125729603 0.0
1706.2984217837393 162.479398297228 4.667832199681731 0.514672816547391 400.3486982341418 0.0
1728.5090779616326 173.8934264682778 4.723161219603954 0.513028883310092 402.78113502043635 0.0
1751.4323706797277 185.6331580294286 4.779882635797002 0.5113659673032078 405.2503908250171 0.0
1775.0375330725878 197.68543593577633 4.837945035812041 0.5098299711562038 407.7560864453435 0.0
1799.3251140458522 210.04927822692312 4.897337968445612 0.5082263650505201 410.2972643916196 0.0
1824.3468385971573 222.74448214307398 4.958126360544359 0.5065647826842126 412.8731075256692 0.0
1850.1110381460005 235.7744295081452 5.020322578081003 0.5049993412498841 415.48395412590855 0.0
1876.600979395449 249.13170085174843 5.083896140676368 0.5033758988317292 418.12942481666244 0.0
1903.8890254956782 262.8435731802906 5.14893387670844 0.5017239662410544 420.80808286670407 0.0
1931.935905302348 276.8933861239467 5.215371204817851 0.5001581669790696 423.519388423576 0.0
1960.7798909885266 291.29673954660143 5.283265096887016 0.49852118462621675 426.263926491692 0.0
1990.4704022183887 306.0726425480316 5.352678389125262 0.4969327347867516 429.04133904117657 0.0
2020.946280235212 321.194223845856 5.4235016809927235 0.495313260229163 431.84962364736657 0.0
2052.3189115159016 336.7054483628961 5.495887109112361 0.49371187339747546 434.68879187402194 0.0
2084.5137553721047 352.57706305340133 5.569734302711113 0.49211302516397293 437.55954505588323 0.0
2117.666183639977 368.86199492940165 5.645223282240713 0.4905100158384279 440.4615602408136 0.0
2151.6512553115667 385.50749241005104 5.722150770409809 0.4889295833668319 443.39219174670734 0.0
2186.6182872503923 402.5730069941965 5.800725303210137 0.4873291191573683 446.35224304333093 0.0
2222.494551153481 420.03017308917714 5.880850555517365 0.4857722541667222 449.3424024244641 0.0
2259.3871501449403 437.9204080557198 5.962664293233563 0.4841801862571904 452.3623894048231 0.0
2297.2225653615915 456.2105698050329 6.046026856046031 0.482647187532919 455.4088468583903 0.0
2336.067886451463 474.9285806991186 6.131043017885488 0.4810708557148695 458.48357591050296 0.0
2375.980675844382 494.09709323844254 6.217790130667907 0.47954123237289537 461.5871295346198 0.0
2416.9242797627544 513.701054418523 6.306212258223516 0.4780012028373859 464.7192724425523 0.0
2458.9547652472306 533.7570395321254 6.39633250690487 0.4764413438614046 467.87587687666405 0.0
2502.0790103327595 554.2706582682486 6.488187112035328 0.47497003247494973 471.0599151315838 0.0
2546.3136206888316 575.2482665022895 6.581796217826922 0.47343952648688337 474.2716930347005 0.0
2591.7742175479907 596.7339367535883 6.67730139713475 0.47190399047905274 477.5110201023164 0.0
2638.3412610492755 618.6748694008409 6.774485953325759 0.4704586749443038 480.77294680996494 0.0
2686.1012378301825 641.1091860400084 6.873504602976938 0.46897570697054825 484.06176219100337 0.0
2735.1429049943295 664.0705280841221 6.974463628142318 0.4674741763840986 487.37742484726095 0.0
2785.4635232497117 687.5566060166086 7.0773467828321 0.4660273191548834 490.71942709513365 0.0
2836.9968576496303 711.5355308768596 7.182008371442529 0.46461126339767933 494.0830324628434 0.0
2889.8474394375407 736.0526874894285 7.288628529762748 0.46315895640702553 497.47289006040484 0.0
2944.1073091842277 761.1425916309821 7.397313243337081 0.4617036502871237 500.8888825459008 0.0
2999.7504389037194 786.7933452509383 7.508010460373164 0.46030135301998243 504.3299917615031 0.0
3056.733258474443 812.9826095339125 7.620610604652035 0.4589184090641174 507.7922253856572 0.0
3115.1660883635623 839.7577117458683 7.73529786486388 0.4575430661606479 511.2801267663313 0.0
3175.086089669237 867.132087190457 7.852109145250341 0.4561462775470684 514.7936148893198 0.0
3236.5529338428346 895.1256682920803 7.971088329106224 0.45475552449912904 518.3310928584808 0.0
3299.5056058501546 923.7105339001936 8.092114435258264 0.45340846064590323 521.8894715714698 0.0
3364.051874599498 952.932634390974 8.215364099396984 0.45207491610970596 525.4730848306887 0.0
3430.231977954638 982.8064764147563 8.340876414666445 0.4507507698326334 529.0818842067226 0.0
3498.0456152131324 1013.3282617039202 8.468613382399328 0.4494372651427554 532.7136335653959 0.0
3567.4936977647108 1044.494871125426 8.598540438854585 0.4481353080002535 536.3662857953279 0.0
3638.6941447269714 1076.3555612055707 8.730840450918826 0.4468435504396293 540.0438741161018 0.0
3711.6906468825773 1108.9260371894227 8.865554902965343 0.4455548293021483 543.7463790946406 0.0
3786.4850157415053 1142.2021771707189 9.002636558186754 0.44427543806247716 547.4708712870953 0.0
3863.0903717142182 1176.1869205877183 9.142078713590369 0.44301806348088224 551.216467733508 0.0
3941.6162169233958 1210.925705901174 9.284047441931728 0.4417761545606602 554.9868210458568 0.0
4022.109745737142 1246.4354555340822 9.428586600562529 0.44054534882669394 558.781937487146 0.0
4104.539097481207 1282.6982525724095 9.575598263248082 0.4393269982374397 562.5981454122898 0.0
4188.957313968894 1319.7336863139433 9.72513729001874 0.4381212475297698 566.4358348263322 0.0
4275.482250297395 1357.5895522451551 9.877370892650054 0.4369271704852924 570.2982070044372 0.0
4364.165019616551 1396.2841295056528 10.03234550747523 0.4357446867689303 574.1852909518561 0.0
4454.952775427402 1435.7904046408298 10.189926381130707 0.43457524869547814 578.0926279967849 0.0
4547.934097062378 1476.1430708898035 10.35022569912465 0.43341854258690304 582.021979385741 0.0
4643.223811017012 1517.387906408348 10.513397618372112 0.4322738195323437 585.9760320290837 0.0
4740.877201349642 1559.5446320974204 10.679491250045533 0.43113528073306995 589.9548350790684 0.0
4840.835196223048 1602.5825244228313 10.848350021276914 0.43000480629492976 593.9531011119569 0.0
4943.228498282599 1646.553926345782 11.020151455346259 0.42889116533467053 597.9740527294582 0.0
5048.154829158477 1691.4972874888656 11.195020316555853 0.4277933926343689 602.019805726412 0.0
5155.674136030099 1737.4339359617518 11.373008618524807 0.4267078089608827 606.0904271513187 0.0
5265.678494563516 1784.3136538727736 11.553892056418137 0.4256359398361811 610.1797613821134 0.0
5378.351181470989 1832.2104460393039 11.737926207242266 0.4245764726589032 614.2925763096104 0.0
5493.793319890495 1881.1629246315954 11.925227400555933 0.42352913149428506 618.4303648993331 0.0
5612.069577503803 1931.1940444618942 12.115850527096182 0.4224880478473043 622.5932101621104 0.0
5733.06286106636 1982.2486198486959 12.309544202996106 0.42144700127236234 626.7740504200112 0.0
5857.053055827677 2034.438471348337 12.50668687220582 0.4204223200695534 630.9792782513232 0.0
5984.076056372314 2087.777119150167 12.707314742197646 0.41942239301309403 635.2097160524316 0.0
6114.201798601506 2142.2893288590167 12.911485824197175 0.4184165891129332 639.4654611461091 0.0
