e[MeV/fm^3], P[MeV/fm^3], rho[fm^-3], v2[1], mu_q[MeV], mu_e[MeV]
70.21755168181654 0.006206087273093519 0.07407856508846018 0.017597877650005332 316.5185077347417 89.2771661002368
71.43578994790998 0.027644495228360377 0.07535555647246353 0.0175978776500052 316.5894798429086 89.8124074562691
72.67502861766434 0.04945246571785267 0.07665456106626496 0.017597877650005228 316.6616753923034 90.35687548400062
73.93562970314778 0.07163636938565421 0.07797595834102777 0.01759787765000538 316.7351154730202 90.91072923592193
75.21796145691394 0.09420268669514797 0.07932013430936638 0.01759787765000533 316.8098215387112 91.47413050632369
76.5223984795798 0.11715800982215896 0.0806874816381126 0.01759787765000522 316.8858154128541 92.04724387856187
77.84932182925448 0.14050904458066893 0.08207839976302188 0.017597877650005325 316.96311929512683 92.630236773136
79.19911913285509 0.16426261238173973 0.08349329500545777 0.017597877650005436 317.0417557678931 93.22327949659658
80.57218469934486 0.18842565222626206 0.08493258069109116 0.017597877650005332 317.12174780279906 93.82654529129692
81.96891963491473 0.21300522273190858 0.08639667727063695 0.017597877650005284 317.20311876748366 94.44021038599915
83.38973196016327 0.23800850419525207 0.0878860124426853 0.017597877650005242 317.2858924324053 95.06445404735784
84.83503672928572 0.26344280068923775 0.08940102127863886 0.01759787765000527 317.37009297778565 95.69945863228664
86.3052561513196 0.28931554219685157 0.0909421463498059 0.01759787765000538 317.45574500067295 96.34540964122833
87.80081971348744 0.3156342867816875 0.09250983785669148 0.017597877650005325 317.54287352212793 97.00249577234631
89.32216430665855 0.3424067227958098 0.09410455376051008 0.01759787765000531 317.63150399453286 97.67090897664707
90.86973435297011 0.3696406711256137 0.09572675991696154 0.017597877650005242 317.7216623090265 98.3508445140514
92.44398193566516 0.39734408747669764 0.0973769302123309 0.017597877650005228 317.8133748030682 99.04250101043964
94.04536693114535 0.4255250646977123 0.09905554670190979 0.01759787765000531 317.90666826813106 99.74608051566989
95.67435714332068 0.45419183514462985 0.10076309975082554 0.017892055534992374 318.00156995752883 100.46178856260559
97.33169327479138 0.4843410207312542 0.10250008817728433 0.018775745774211428 318.10048622561175 101.18570399772256
99.01814146064449 0.5170082040359527 0.10426701939828847 0.020025246310001077 318.2058447860128 101.91428658825437
100.73429318912723 0.5525181669555139 0.1060644095778678 0.02129999675038627 318.31828524079526 102.64750316311726
102.48063871606901 0.5907964457966746 0.10789278377786223 0.022549781036994038 318.43751805132047 103.38670836290729
104.25774423592242 0.6320103592916358 0.10975267611130558 0.023887708108000116 318.5638120290785 104.13237516689382
106.06623539667063 0.676492214395437 0.11164462989845152 0.025339806313660923 318.697770868173 104.88465247088972
107.90674784282342 0.7245234535359056 0.11356919782549418 0.026726883379044414 318.8398212612412 105.64215664334085
109.77980899298537 0.7757858510810522 0.11552694210601787 0.028008654354195556 318.9889635986241 106.39548846211913
111.68603200563659 0.8304189676497289 0.11751843464523576 0.02941848660514751 319.1453310518051 107.14305877628786
113.62612253642692 0.8889903796251314 0.1195442572070575 0.0310000273545607 319.31003653378224 107.89037199216354
115.60075117782822 0.9518318179215621 0.1216050015840337 0.03259969837934959 319.4836179784206 108.6399435927219
117.61049319554543 1.0189345897359714 0.12370126977023699 0.03419210470702347 319.6659546827271 109.3941654142798
119.65602415051524 1.0905481505064962 0.12583367413711752 0.03592218882239359 319.8573917239201 110.15411877028433
121.73815641876267 1.1672766767204164 0.12800283761239192 0.03778190969818496 320.0588603075681 110.92020174565145
123.85759205422588 1.2493614886182018 0.1302093938620144 0.0396255479711905 320.27062777688235 111.69348487044105
126.01496433860267 1.3368161240061027 0.13245398747528928 0.041461386350795104 320.4925793312381 112.47517112638602
128.2110155783424 1.429932568241939 0.13473727415316794 0.04346252473119688 320.7250671173629 113.26594974297757
130.4466887956552 1.52951487508801 0.1370599208997976 0.045590760196347446 320.969220213987 114.06610244230104
132.72270298041246 1.6357091714792171 0.13942260621736857 0.04767926014436641 321.22510082538804 114.87651716166351
135.03976205186157 1.748593799706529 0.14182602030432198 0.04977029748745049 321.49267975935425 115.69799950047124
137.3986835249372 1.8685229353243933 0.14427086525697244 0.05206400529136951 321.77234677231564 116.53110782929468
139.80057355445675 1.9965668028217445 0.14675785527460983 0.05448295484632937 322.0654823434704 117.37614392238619
142.24614757531495 2.1327305435734982 0.1492877168681315 0.05683638595368079 322.37191652081754 118.23384218287305
144.73619757503982 2.2771938463603174 0.15186118907227755 0.059208520968313694 322.69174413674494 119.10477732777403
147.27162660197732 2.430390920319256 0.15447902366151722 0.0618292055008095 323.0254080857181 119.98940983187808
149.85374556019306 2.5937403356179334 0.15714198536966398 0.06457197399617759 323.3745941649684 120.88804723823948
152.4832372283129 2.7670401807274834 0.15985085211327107 0.06721882453614525 323.7388555425644 121.80124809303793
155.16100474728017 2.9506159576823916 0.1626064152188807 0.06990575565196155 324.1184454344821 122.72942464238325
157.8880490867394 3.1450019316856195 0.16540947965419006 0.07289593855263288 324.5138717435153 123.67293532678868
160.66593902373984 3.3520690822739376 0.16826086426320178 0.07600220080988451 324.92718571735776 1983.525233713155
163.4952840125817 3.5713158744339593 0.17116140200542868 0.07897532922519734 325.3576004812541 1971.79101348621
166.37712853614147 3.8032695276021222 0.17411194019922174 0.08202037368123771 325.8055622707938 1959.5784159346513
169.31260061973967 4.048620249866702 0.17711334076929286 0.08542133552471287 326.2716886567447 1946.8706044812905
172.303551331823 4.309718566586897 0.18016648049850292 0.0889270452590527 326.7583492276527 1933.6029780106978
175.35050383107742 4.585737524453315 0.1832722512839939 0.09226446929582366 327.26444376458807 1919.805531337879
178.45466868853612 4.877441713994387 0.18643156039773165 0.09572802473872655 327.7906096931573 1905.460886591368
181.61738960046912 5.18586172672753 0.18964533075154347 0.09956214286511778 328.3377308078966 1890.544949245156
184.84067158507494 5.5134958934314255 0.19291450116672415 0.10348029397253222 328.90808973361146 1874.9954890404088
188.12508868773136 5.859506730761704 0.19624002664828616 0.10723125726635341 329.50063467169656 1858.841180728795
191.47199658539387 6.224818666062787 0.19962287866394354 0.11114950466071183 330.116072530961 1842.0627521469455
194.88301649425165 6.610906017540677 0.2030640454278977 0.11544544815415358 330.7555888744374 1824.627881778767
198.3602890613904 7.020342674256472 0.2065645321895225 0.11979382346787826 331.42129567013734 1806.47899191123
201.9044613376726 7.452308308070558 0.2101253615270204 0.12397650239191993 332.11220306471756 1787.6430685078647
205.5170562570145 7.907903230714149 0.21374757364614289 0.1283699626450635 332.8290718474655 1768.099370484039
209.2000509218192 8.389163756231573 0.21743222668406043 0.1331367755092301 333.57341318817043 1747.806699440918
212.95568685700158 8.89862029273525 0.22118039701847075 0.1379109881763032 334.34705688852574 1726.7151702494518
216.7847142491265 9.435507109353031 0.224993179582034 0.1425209986125906 335.149090910276 1704.8496474325195
220.6888478651131 10.001107919216421 0.22887168818223044 0.1473848211915132 335.9803024130194 1682.1886709825817
224.67051841244387 10.598148441577159 0.23281705582673115 0.15260238957125072 336.84253077264475 1658.6820947532447
228.73201076449018 11.228941923303356 0.23683043505437643 0.1577674592771845 337.73719306437926 1634.2912856069204
232.87421847820065 11.892825884399452 0.2409129982718618 0.16276966708385543 338.6634726746745 1609.0385065420492
237.09907459677976 12.591262929879372 0.2450659380962259 0.1680647442175771 339.6221443059857 1582.9026371650411
241.4095830266287 13.327795359770137 0.24929046770324403 0.17367604335428166 340.61534675451054 1555.8253683570924
245.80798450797525 14.104290408314728 0.25358782118182577 0.17916063314688135 341.6439533067965 1527.7828920671554
250.29536865638684 14.920249387540146 0.2579592538945237 0.18448376658109078 342.70726027181 1498.794392733713
254.87391430339358 15.777295306389933 0.26240604284425445 0.19013115054428797 343.8059831368225 1468.8403643223153
259.54734193097937 16.679902122692877 0.2669294870473437 0.19603884001981875 344.9424917462097 1437.856198742947
264.3177234138911 17.62921742422393 0.2715309079130002 0.20173455319505607 346.11701155796936 1405.8357494271875
269.1864120746621 18.624978432827973 0.2762116496293318 0.20727097595137622 347.328966229596 1372.7947289631063
274.15586021544175 19.66893704821644 0.28097307955601647 0.2131521958171756 348.57896372915343 1338.716562568076
279.2306731431928 20.76658998854091 0.28581658862374093 0.21922189252154145 349.86949367684684 1303.5333767530344
284.412585417037 21.918069468750467 0.29074359174052566 0.2249894143101847 351.2000887836266 1267.2579110266563
289.7032992122702 23.123430865940225 0.29575552820505524 0.2306016920899494 352.5703075794808 1229.9022010038357
295.1055673860831 24.38451504681977 0.300853862127132 0.23656661428271297 353.98060905644974 1191.453733373844
300.6250734626658 25.70790002720107 0.3060400828553784 0.24263779812409947 355.4334521442952 1151.8454713485226
306.2629978571605 27.092417065261266 0.3113157054123131 0.24831998114039466 356.9277197298895 1111.107870322431
312.0214966673664 28.538529352055203 0.3166822709369256 0.2538541104542591 358.4631014669581 1069.2493911380795
317.9036494111742 30.048126085066315 0.3221413471348811 0.2597359108053192 360.03988091456415 1026.2623032416575
323.9164360611114 31.628890065835524 0.32769452873648597 0.2656390932017807 361.66030746350987 982.0852824192569
330.06021547034334 33.278110584552124 0.3333434379625472 0.2710787578055842 363.3227610243933 936.7624965002012
336.3377248306841 34.996751726455315 0.3390897249982634 0.27638164452897485 365.0270429856405 890.299360149933
342.75239563416363 36.78671837750218 0.3449350684752844 0.2820159576097043 366.7732551876847 842.6930969347152
349.3127469329602 38.65679115669434 0.35088117596208035 0.28759239956345484 368.5632457970251 793.89332105337
356.0179982424811 40.60254779373834 0.3569297844627652 0.2926507180164095 370.39513942729127 743.9511603912007
362.87161894726887 42.62554485678177 0.3630826609245175 0.2976058496429581 372.26881070045994 692.870033077556
369.8776838050342 44.72802159039085 0.3693416027537498 0.3028324596598386 374.18425749083553 640.6499970643976
377.04571989459646 46.91882012835673 0.3757084383411748 0.30793255850782497 376.1425479489815 587.2619318033663
384.37423920137996 49.19272886637786 0.3821850275959231 0.3125215544923945 378.1420680020603 532.7498410966685
391.8673537720589 51.551645656583794 0.38877326248886857 0.31704011341831206 380.18264288681297 477.1184894429707
399.53022857376277 53.998550771733285 0.3954750676053199 0.32173794710659864 382.2641765278808 420.37049610516124
407.3724291860139 56.54109433027862 0.4022924007072386 0.3262560177033471 384.38684656688184 362.5010181130575
415.3926093188036 59.174483419942426 0.40922725330514964 0.33043474137261875 386.54960838431725 303.5385344973082
432.0887782811925 64.75788158699505 0.42355572457116125 0.0008383789302639066 388.75217980057613 243.49073820428882
669.4832285205333 65.17185482105599 1.0979170810684673 0.0026492614391176884 390.99427615507426 182.36538981812726
1751.0454910426456 72.49881796223683 4.2064530610494275 0.010865594957543002 393.27543963785325 119.71545762900804
2735.120391858808 86.85450644007607 7.129111824051601 0.5339690402094459 395.59516773161965 52.11424393117294
2765.919852673472 103.80112642946803 7.211124099451884 0.7144953424478828 397.95311125729603 7.705498971278928
2786.8992724320906 121.13831622991825 7.263720044970477 0.8268659740101496 400.3486982341418 0.0
2808.3255698648554 138.8654007075998 7.317097373854002 0.8264968716102317 402.78113502043635 0.0
2830.2999465921876 157.00788859188768 7.371473065896197 0.8248594487559746 405.2503908250171 0.0
2852.8018498340275 175.55126828780564 7.426824116877929 0.8233285419320184 407.7560864453435 0.0
2875.827458459119 194.49119177975834 7.483133401812328 0.8217107621206043 410.2972643916196 0.0
2899.403329219052 213.8432606771961 7.540411644758659 0.8200159398874067 412.8731075256692 0.0
2923.534401513757 233.6107172774524 7.59866787061251 0.8184006213113548 415.48395412590855 0.0
2948.2085893382464 253.78467047614762 7.657886255569093 0.8167032729730348 418.12942481666244 0.0
2973.4616021055112 274.3853591312634 7.718076277680798 0.8149580428220871 420.80808286670407 0.0
2999.267666692605 295.39476658018594 7.779208143131694 0.8132823366058046 423.519388423576 0.0
3025.6497045814795 316.8280374835658 7.841309670724375 0.8115088675335356 426.263926491692 0.0
3052.633410408782 338.7004330496393 7.904397357529338 0.8097689685373499 429.04133904117657 0.0
3080.175465142371 360.9803936953452 7.968405351962423 0.8079700297764081 431.84962364736657 0.0
3108.337638931492 383.7065595519559 8.033386017297834 0.8061733787610805 434.68879187402194 0.0
3137.079170547015 406.8537079203738 8.099314829758914 0.8043527112555582 437.55954505588323 0.0
3166.473392512611 430.466886782382 8.166248989633385 0.8025094762025384 440.4615602408136 0.0
3196.439188865761 454.4897412275506 8.234081339937372 0.8006648073842619 443.39219174670734 0.0
3227.0611347568533 478.9760184759947 8.302894791400883 0.7987778530907832 446.35224304333093 0.0
3258.300067588468 503.9017769417644 8.372666024659292 0.7969156495311536 449.3424024244641 0.0
3290.2124299261072 529.3009244888095 8.443438341380174 0.7949902235265789 452.3623894048231 0.0
3322.743258698321 555.1323437604668 8.51511635329087 0.7931115580572223 455.4088468583903 0.0
3355.9347160348243 581.4247637995519 8.587761475104502 0.7911554749057554 458.48357591050296 0.0
3389.81848594185 608.1978937495597 8.661408064178213 0.789234887629318 461.5871295346198 0.0
3424.3722247787045 635.4368002317693 8.736033600512403 0.7872744505900062 464.7192724425523 0.0
3459.607904583357 663.1398996975553 8.811587645262401 0.7852659619185651 467.87587687666405 0.0
3495.5392983327324 691.3205360035882 8.888124657054815 0.7833469638845791 471.0599151315838 0.0
3532.174928301603 719.98371600997 8.965655870602932 0.781324087665725 474.2716930347005 0.0
3569.573522832263 749.1636226500166 9.044227164620782 0.7792712240622848 477.5110201023164 0.0
3607.6494629255776 778.7975237192722 9.123694204021083 0.7773134987771488 480.77294680996494 0.0
3646.46441711298 808.9305041194608 9.20417071695404 0.7752788699491457 484.06176219100337 0.0
3686.062809163524 839.5880800680194 9.285692581641221 0.7731938159735741 487.37742484726095 0.0
3726.4389580766965 870.7647242577267 9.368247044218036 0.7711591700368796 490.71942709513365 0.0
3767.5363588733903 902.4157057622674 9.451717142565162 0.769142778466021 494.0830324628434 0.0
3809.4271701428947 934.592901642256 9.536230417327992 0.767048146481411 497.47289006040484 0.0
3852.1561835922653 967.3213695837095 9.621821570663748 0.7649238968720535 500.8888825459008 0.0
3895.7033717350228 1000.5859278701105 9.708458345980114 0.7628507930830217 504.3299917615031 0.0
3940.0268762634123 1034.3519945856226 9.796046695713951 0.7607808597901773 507.7922253856572 0.0
3985.200885984362 1068.6721571988958 9.884714055378968 0.7586969486880353 511.2801267663313 0.0
4031.2417609416107 1103.5546367011407 9.97447193962719 0.7565536146841776 514.7936148893198 0.0
4078.170123312472 1139.0064200986583 10.065312822455272 0.7543937952722803 518.3310928584808 0.0
4125.938927260961 1174.9918091089448 10.157151515056366 0.752275324158278 521.8894715714698 0.0
4174.619673458055 1211.5611056805626 10.250109898474866 0.7501522995537968 525.4730848306887 0.0
4224.229934865581 1248.7230558491622 10.344200698977376 0.7480184503461782 529.0818842067226 0.0
4274.756875872234 1286.463620365514 10.439379259015125 0.7458759000622965 532.7136335653959 0.0
4326.189023681503 1324.76994031281 10.535604772328144 0.7437262951516708 536.3662857953279 0.0
4378.60109623627 1363.6931865267209 10.632997007336325 0.74156758932725 540.0438741161018 0.0
4432.012014901136 1403.242680176252 10.73156992059822 0.7393875920973194 543.7463790946406 0.0
4486.406130676954 1443.4007317824628 10.831265881296154 0.7371972784459899 547.4708712870953 0.0
4541.7830066606075 1484.1634105371008 10.932070103160871 0.735018559043894 551.216467733508 0.0
4598.210986630183 1525.5770900939349 11.034091210848548 0.7328407110111925 554.9868210458568 0.0
4655.710363612334 1567.6516789938903 11.1373443383115 0.7306565521378996 558.781937487146 0.0
4714.24508200966 1610.3558986687078 11.24174396911939 0.7284687676913553 562.5981454122898 0.0
4773.839912065885 1653.7030444808245 11.34731443828137 0.7262779432974433 566.4358348263322 0.0
4834.564592799913 1697.7388276227962 11.454158379013897 0.7240827169573905 570.2982070044372 0.0
4896.440935277599 1742.4737958141236 11.562292131568466 0.7218832523087997 574.1852909518561 0.0
4959.418448005108 1787.8663117778517 11.67160641592162 0.7196826054698295 578.0926279967849 0.0
5023.54531238667 1833.946074805531 11.782164624187645 0.7174805717402286 582.021979385741 0.0
5088.886758270816 1880.7546329203244 11.89405763727488 0.7152761003985866 585.9760320290837 0.0
5155.46620473051 1928.3032056627735 12.00730299793139 0.7130580691432868 589.9548350790684 0.0
5223.225394856883 1976.5432517277427 12.121772221216792 0.710830452999252 593.9531011119569 0.0
5292.239387807406 2025.5229551783254 12.23757177940337 0.7086108511763864 597.9740527294582 0.0
5362.561942401155 2075.275745729295 12.35477439355768 0.7063978736120848 602.019805726412 0.0
5434.218259327181 2125.8135762495644 12.473398855182193 0.7041847316532817 606.0904271513187 0.0
5507.1222655718975 2177.0701589809073 12.593281165394568 0.7019749952812369 610.1797613821134 0.0
5581.381304019276 2229.1153601273923 12.714576426037736 0.6997664398112065 614.2925763096104 0.0
5657.046956449022 2281.97932014652 12.837345657119043 0.6975589381057485 618.4303648993331 0.0
5734.146226134807 2335.6747331995393 12.961608862870749 0.6953402287959349 622.5932101621104 0.0
5812.583312403469 2390.1270234475137 13.087179941933282 0.6930969543684764 626.7740504200112 0.0
5892.51803218225 2445.438365405069 13.214279122385163 0.6908649984173643 630.9792782513232 0.0
5973.968053849791 2501.6187535957324 13.3429304543968 0.6886629355266347 635.2097160524316 0.0
6056.962376395866 2558.6816918591007 13.473155215082754 0.6864416863995118 639.4654611461091 0.0
