e[MeV/fm^3], P[MeV/fm^3], rho[fm^-3], v2[1], mu_q[MeV], mu_e[MeV]
70.21755168181654 0.006206087273093519 0.07407856508846018 0.017597877650005332 316.5185077347417 89.2771661002368
71.43578994790998 0.027644495228360377 0.07535555647246353 0.0175978776500052 316.5894798429086 89.8124074562691
72.67502861766434 0.04945246571785267 0.07665456106626496 0.017597877650005228 316.6616753923034 90.35687548400062
73.93562970314778 0.07163636938565421 0.07797595834102777 0.01759787765000538 316.7351154730202 90.91072923592193
75.21796145691394 0.09420268669514797 0.07932013430936638 0.01759787765000533 316.8098215387112 91.47413050632369
76.5223984795798 0.11715800982215896 0.0806874816381126 0.01759787765000522 316.8858154128541 92.04724387856187
77.84932182925448 0.14050904458066893 0.08207839976302188 0.017597877650005325 316.96311929512683 92.630236773136
79.19911913285509 0.16426261238173973 0.08349329500545777 0.017597877650005436 317.0417557678931 93.22327949659658
80.57218469934486 0.18842565222626206 0.08493258069109116 0.017597877650005332 317.12174780279906 93.82654529129692
81.96891963491473 0.21300522273190858 0.08639667727063695 0.017597877650005284 317.20311876748366 94.44021038599915
83.38973196016327 0.23800850419525207 0.0878860124426853 0.017597877650005242 317.2858924324053 95.06445404735784
84.83503672928572 0.26344280068923775 0.08940102127863886 0.01759787765000527 317.37009297778565 95.69945863228664
86.3052561513196 0.28931554219685157 0.0909421463498059 0.01759787765000538 317.45574500067295 96.34540964122833
87.80081971348744 0.3156342867816875 0.09250983785669148 0.017597877650005325 317.54287352212793 97.00249577234631
89.32216430665855 0.3424067227958098 0.09410455376051008 0.01759787765000531 317.63150399453286 97.67090897664707
90.86973435297011 0.3696406711256137 0.09572675991696154 0.017597877650005242 317.7216623090265 98.3508445140514
92.44398193566516 0.39734408747669764 0.0973769302123309 0.017597877650005228 317.8133748030682 99.04250101043964
94.04536693114535 0.4255250646977123 0.09905554670190979 0.01759787765000531 317.90666826813106 99.74608051566989
95.67435714332068 0.45419183514462985 0.10076309975082554 0.017892055534992374 318.00156995752883 100.46178856260559
97.33169327479138 0.4843410207312542 0.10250008817728433 0.018775745774211428 318.10048622561175 101.18570399772256
99.01814146064449 0.5170082040359527 0.10426701939828847 0.020025246310001077 318.2058447860128 101.91428658825437
100.73429318912723 0.5525181669555139 0.1060644095778678 0.02129999675038627 318.31828524079526 102.64750316311726
102.48063871606901 0.5907964457966746 0.10789278377786223 0.022549781036994038 318.43751805132047 103.38670836290729
104.25774423592242 0.6320103592916358 0.10975267611130558 0.023887708108000116 318.5638120290785 104.13237516689382
106.06623539667063 0.676492214395437 0.11164462989845152 0.025339806313660923 318.697770868173 104.88465247088972
107.90674784282342 0.7245234535359056 0.11356919782549418 0.026726883379044414 318.8398212612412 105.64215664334085
109.77980899298537 0.7757858510810522 0.11552694210601787 0.028008654354195556 318.9889635986241 106.39548846211913
111.68603200563659 0.8304189676497289 0.11751843464523576 0.02941848660514751 319.1453310518051 107.14305877628786
113.62612253642692 0.8889903796251314 0.1195442572070575 0.0310000273545607 319.31003653378224 107.89037199216354
115.60075117782822 0.9518318179215621 0.1216050015840337 0.03259969837934959 319.4836179784206 108.6399435927219
117.61049319554543 1.0189345897359714 0.12370126977023699 0.03419210470702347 319.6659546827271 109.3941654142798
119.65602415051524 1.0905481505064962 0.12583367413711752 0.03592218882239359 319.8573917239201 110.15411877028433
121.73815641876267 1.1672766767204164 0.12800283761239192 0.03778190969818496 320.0588603075681 110.92020174565145
123.85759205422588 1.2493614886182018 0.1302093938620144 0.0396255479711905 320.27062777688235 111.69348487044105
126.01496433860267 1.3368161240061027 0.13245398747528928 0.041461386350795104 320.4925793312381 112.47517112638602
128.2110155783424 1.429932568241939 0.13473727415316794 0.04346252473119688 320.7250671173629 113.26594974297757
130.4466887956552 1.52951487508801 0.1370599208997976 0.045590760196347446 320.969220213987 114.06610244230104
132.72270298041246 1.6357091714792171 0.13942260621736857 0.04767926014436641 321.22510082538804 114.87651716166351
135.03976205186157 1.748593799706529 0.14182602030432198 0.04977029748745049 321.49267975935425 115.69799950047124
137.3986835249372 1.8685229353243933 0.14427086525697244 0.05206400529136951 321.77234677231564 116.53110782929468
139.80057355445675 1.9965668028217445 0.14675785527460983 0.05448295484632937 322.0654823434704 117.37614392238619
142.24614757531495 2.1327305435734982 0.1492877168681315 0.05683638595368079 322.37191652081754 118.23384218287305
144.73619757503982 2.2771938463603174 0.15186118907227755 0.059208520968313694 322.69174413674494 119.10477732777403
147.27162660197732 2.430390920319256 0.15447902366151722 0.0618292055008095 323.0254080857181 119.98940983187808
149.85374556019306 2.5937403356179334 0.15714198536966398 0.06457197399617759 323.3745941649684 120.88804723823948
152.4832372283129 2.7670401807274834 0.15985085211327107 0.06721882453614525 323.7388555425644 121.80124809303793
155.16100474728017 2.9506159576823916 0.1626064152188807 0.06990575565196155 324.1184454344821 122.72942464238325
157.8880490867394 3.1450019316856195 0.16540947965419006 0.07289593855263288 324.5138717435153 123.67293532678868
160.66593902373984 3.3520690822739376 0.16826086426320178 0.07600220080988451 324.92718571735776 124.63202719571277
163.4952840125817 3.5713158744339593 0.17116140200542868 0.07897532922519734 325.3576004812541 125.6070903482084
166.37712853614147 3.8032695276021222 0.17411194019922174 0.08202037368123771 325.8055622707938 126.59840218489457
169.31260061973967 4.048620249866702 0.17711334076929286 0.08542133552471287 326.2716886567447 127.60620334892384
172.303551331823 4.309718566586897 0.18016648049850292 0.0889270452590527 326.7583492276527 128.63058410314463
175.35050383107742 4.585737524453315 0.1832722512839939 0.09226446929582366 327.26444376458807 129.67181814230588
178.45466868853612 4.877441713994387 0.18643156039773165 0.09572802473872655 327.7906096931573 130.73004905217363
181.61738960046912 5.18586172672753 0.18964533075154347 0.09956214286511778 328.3377308078966 131.80536363429957
184.84067158507494 5.5134958934314255 0.19291450116672415 0.10348029397253222 328.90808973361146 132.89762523650757
188.12508868773136 5.859506730761704 0.19624002664828616 0.10723125726635341 329.50063467169656 134.00704679883177
191.47199658539387 6.224818666062787 0.19962287866394354 0.11114950466071183 330.116072530961 135.1336328978941
194.88301649425165 6.610906017540677 0.2030640454278977 0.11544544815415358 330.7555888744374 136.2772622126371
198.3602890613904 7.020342674256472 0.2065645321895225 0.11979382346787826 331.42129567013734 137.43754067535426
201.9044613376726 7.452308308070558 0.2101253615270204 0.12397650239191993 332.11220306471756 372.2687090832095
205.5170562570145 7.907903230714149 0.21374757364614289 0.1283699626450635 332.8290718474655 364.9065347286372
209.2000509218192 8.389163756231573 0.21743222668406043 0.1331367755092301 333.57341318817043 357.26221981150616
212.95568685700158 8.89862029273525 0.22118039701847075 0.1379109881763032 334.34705688852574 349.3169724421074
216.7847142491265 9.435507109353031 0.224993179582034 0.1425209986125906 335.149090910276 341.0801591667545
220.6888478651131 10.001107919216421 0.22887168818223044 0.1473848211915132 335.9803024130194 332.54369593109095
224.67051841244387 10.598148441577159 0.23281705582673115 0.15260238957125072 336.84253077264475 323.6886925193289
228.73201076449018 11.228941923303356 0.23683043505437643 0.1577674592771845 337.73719306437926 314.50059570339255
232.87421847820065 11.892825884399452 0.2409129982718618 0.16276966708385543 338.6634726746745 304.987792026912
237.09907459677976 12.591262929879372 0.2450659380962259 0.1680647442175771 339.6221443059857 295.14232536920554
241.4095830266287 13.327795359770137 0.24929046770324403 0.17367604335428166 340.61534675451054 284.94223049633575
245.80798450797525 14.104290408314728 0.25358782118182577 0.17916063314688135 341.6439533067965 274.3785388383502
250.29536865638684 14.920249387540146 0.2579592538945237 0.18448376658109078 342.70726027181 263.4584772353707
254.87391430339358 15.777295306389933 0.26240604284425445 0.19013115054428797 343.8059831368225 252.17469770103293
259.54734193097937 16.679902122692877 0.2669294870473437 0.19603884001981875 344.9424917462097 240.50286215853964
264.3177234138911 17.62921742422393 0.2715309079130002 0.20173455319505607 346.11701155796936 228.44065517565562
269.1864120746621 18.624978432827973 0.2762116496293318 0.20727097595137622 347.328966229596 215.9939957352055
274.15586021544175 19.66893704821644 0.28097307955601647 0.2131521958171756 348.57896372915343 203.15664006288182
279.2306731431928 20.76658998854091 0.28581658862374093 0.2194363373766608 349.86949367684684 189.9030199954886
288.95024276384845 22.950275597921603 0.29506379926082615 0.010326678853128844 351.2000887836266 176.2379345472113
305.7930641971499 23.144763208052638 0.35374120883459576 0.012767742815023943 352.5703075794808 162.1659175731681
387.86824716835565 24.680833368825805 0.6412612069188541 0.021912415195023294 353.98060905644974 148.49039894293455
462.46757461275956 26.53225631326371 0.9039930726397085 0.029022431954327854 355.4334521442952 134.96903822874447
528.7860369113522 28.70484596668029 1.1398422342108108 0.03808527268043643 356.9277197298895 121.66349346036591
586.9583503043337 31.192088379339047 1.349094475769487 0.05113986296210182 358.4631014669581 108.60771018189757
635.6021268096828 34.02072758359101 1.526307722231604 0.0637163394387334 360.03988091456415 96.06772474724823
680.5961555274159 37.119239902933366 1.692749810263886 0.07464228752243385 361.66030746350987 83.73554647545444
722.670605789654 40.48707783698257 1.8511990513842278 0.0854589513142931 363.3227610243933 71.59900984984515
762.8405131338653 44.12759998081328 2.0059190692739493 0.09392448662036368 365.0270429856405 59.633247443372
803.1745011024724 48.04944883274573 2.1666927022718605 0.0946543663405025 366.7732551876847 47.78822299037674
849.3744079992272 52.28594210549308 2.362499291550783 0.09254543788488712 368.5632457970251 35.90731652255576
898.4384785454846 56.870693285905276 2.578858611269603 0.32895800283347 370.39513942729127 23.844080799662212
910.9423964608148 61.73444744258134 2.612771595886356 0.3903767745432374 372.26881070045994 12.011706356828075
923.7993205608359 66.7719781875455 2.647258612690227 0.3918283520986612 374.18425749083553 2.1004634158060917
937.1188501312776 71.9911370879995 2.6827608317061853 0.3915669094260372 376.1425479489815 0.0
950.9236368437327 77.39269046382135 2.719362033257876 0.39100296918468525 378.1420680020603 0.0
965.2270463010233 82.98124278333592 2.757082494678834 0.3904357888741816 380.18264288681297 0.0
980.043099190782 88.76167962954004 2.795943604545099 0.38986769279270694 382.2641765278808 0.0
995.3880308634195 94.73973566115413 2.8359720903445513 0.38929940858553724 384.38684656688184 0.0
1011.2693720579773 100.91774450079538 2.87717162862731 0.3887318791755203 386.54960838431725 0.0
1027.7001958571655 107.30019276235296 2.919560102301556 0.3881657424096505 388.75217980057613 0.0
1044.693695598373 113.89160382680379 2.963155357078175 0.3875921296811602 390.99427615507426 0.0
1062.2715559321018 120.6994395468742 3.007987805875587 0.3869901632671713 393.27543963785325 0.0
1080.468827634074 127.73584240929156 3.0541089553559453 0.3863965950364605 395.59516773161965 0.0
1099.270466517481 134.995352346177 3.101488696618486 0.3858355333086516 397.95311125729603 0.0
1118.6878081240266 142.48173900647706 3.1501388321795605 0.3852787400262465 400.3486982341418 0.0
1138.730357144521 150.19806263787353 3.2000663901535487 0.38468295370528205 402.78113502043635 0.0
1159.4696380408438 158.16936840919928 3.2513831880312156 0.3840828236284608 405.2503908250171 0.0
1180.874373345724 166.38448344885282 3.304032594421889 0.3835312521380274 407.7560864453435 0.0
1202.9467330358602 174.84383006767658 3.3580078889777987 0.38295823173558974 410.2972643916196 0.0
1225.742378240775 183.56661864134497 3.413387643124743 0.382367125696109 412.8731075256692 0.0
1249.2700194143886 192.55590887859216 3.470184133339854 0.38181279473282315 415.48395412590855 0.0
1273.5129949975405 201.80567255322333 3.5283646263707538 0.3812409157677883 418.12942481666244 0.0
1298.5497303577774 211.34286185865568 3.5880360698613316 0.3806613843392812 420.80808286670407 0.0
1324.3401254075661 221.15319071149415 3.6491276724633597 0.3801148301888895 423.519388423576 0.0
1350.9241051208369 231.250699936549 3.7117012923102513 0.37954612819554345 426.263926491692 0.0
1378.3547259045251 241.6537273468974 3.775830615217883 0.3789966113711296 429.04133904117657 0.0
1406.570762885831 252.34019299747175 3.841401642201789 0.37843934171755933 431.84962364736657 0.0
1435.6903146686757 263.35122277671184 3.908587997636587 0.3778903662742765 434.68879187402194 0.0
1465.634126761614 274.65926549270256 3.977271275660117 0.3773452988677324 437.55954505588323 0.0
1496.5463977720399 286.3143955570432 4.047658754973959 0.37680078269503703 440.4615602408136 0.0
1528.29921095013 298.2711124475523 4.119532762924491 0.37626688021289567 443.39219174670734 0.0
1561.050199265661 310.5844531584968 4.193127002289733 0.37572819449084083 446.35224304333093 0.0
1594.7218014480443 323.2275037295936 4.2683277569365 0.375206907553685 449.3424024244641 0.0
1629.4287107792525 336.23996650999146 4.345293834339399 0.3746759377115563 452.3623894048231 0.0
1665.0984412552457 349.595452402593 4.423884062578946 0.3741670667954189 455.4088468583903 0.0
1701.8002168705725 363.31846954252376 4.504208254160034 0.37364611263603553 458.48357591050296 0.0
1739.59515988407 377.43028487665094 4.5863517084452115 0.37314267193064765 461.5871295346198 0.0
1778.4451840331403 391.91747301301353 4.670251846281625 0.3726382157800998 464.7192724425523 0.0
1818.417094600983 406.80175330059234 4.755957513153342 0.372129266805052 467.87587687666405 0.0
1859.5143503956485 422.0851364379589 4.843493899923327 0.37165131046765154 471.0599151315838 0.0
1901.7548217355788 437.77379099416 4.932882339733088 0.3711563474559032 474.2716930347005 0.0
1945.2631713878036 453.91069540320586 5.024285496363882 0.3706616582471298 477.5110201023164 0.0
1989.9200958137208 470.4527412710653 5.117482916076771 0.3701980584597129 480.77294680996494 0.0
2035.8120166748188 487.43113356921907 5.212627887642816 0.3697243838477231 484.06176219100337 0.0
2083.0348854780127 504.87890044200185 5.30984197355381 0.3692466640825165 487.37742484726095 0.0
2131.5873996228033 522.7952529004331 5.409109389636689 0.3687882188537248 490.71942709513365 0.0
2181.4069443614185 541.1567880527978 5.510289581120638 0.36834133331594465 494.0830324628434 0.0
2232.5988871642244 560.001347996059 5.613562896906521 0.3678848711933975 497.47289006040484 0.0
2285.2632199968534 579.3632510005007 5.719050974292754 0.3674291959102831 500.8888825459008 0.0
2339.37449934427 599.2331853015862 5.826699929657053 0.3669918688887899 504.3299917615031 0.0
2394.8933411591624 619.5960061543329 5.936406393857156 0.36656223311446645 507.7922253856572 0.0
2451.931705207973 640.4917562588386 6.048355918420863 0.36613656922831783 511.2801267663313 0.0
2510.5306265384684 661.9343839635801 6.162591076062307 0.3657059367315787 514.7936148893198 0.0
2570.7581713080535 683.9465871836686 6.279170657585079 0.3652787235733346 518.3310928584808 0.0
2632.554732396525 706.5065410814663 6.397973357424703 0.36486649699584817 521.8894715714698 0.0
2696.0300542815858 729.653414174171 6.5191772446884135 0.36445989613394847 525.4730848306887 0.0
2761.2286240028716 753.4023173123409 6.642827213702554 0.3640576128212425 529.0818842067226 0.0
2828.154998899639 777.7538150755499 6.768892053672944 0.3636599840955297 532.7136335653959 0.0
2896.8147555878822 802.708882853711 6.897343446509054 0.36326724182975756 536.3662857953279 0.0
2967.3293285511972 828.3105656255811 7.028368211144928 0.36287893748926425 540.0438741161018 0.0
3039.747083778708 854.5752795378992 7.162013814036892 0.3624928971849828 543.7463790946406 0.0
3114.076351802179 881.5045815298926 7.298242271087815 0.3621109586734921 547.4708712870953 0.0
3190.334012081008 909.1037280415978 7.437050735412901 0.3617368699354895 551.216467733508 0.0
3268.633231755496 937.4127471653244 7.5786089244001715 0.36136862206657394 554.9868210458568 0.0
3349.026311348791 966.4493792997555 7.722966873763217 0.3610048711823062 558.781937487146 0.0
3431.4865475685956 996.2028405916901 7.870032769245982 0.36064597646935326 562.5981454122898 0.0
3516.0719655254575 1026.6929648768155 8.019867119217812 0.36029193948973415 566.4358348263322 0.0
3602.9058345127537 1057.9630371299506 8.172643397898657 0.35994244852824053 570.2982070044372 0.0
3692.044862080825 1090.0322797896374 8.328414461519996 0.3595974418261614 574.1852909518561 0.0
3783.4411716338236 1122.8823092868188 8.487050735562422 0.35925730410798895 578.0926279967849 0.0
3877.189041432091 1156.5458843364718 8.648670710959355 0.3589219049293284 582.021979385741 0.0
3973.409618793774 1191.0653225288297 8.81343575732561 0.35859098943519374 585.9760320290837 0.0
4072.1643048014575 1226.4614240975507 8.981401674972124 0.35826285743537056 589.9548350790684 0.0
4173.40028252184 1262.7137368012154 9.152418489697173 0.35793801737817876 593.9531011119569 0.0
4277.255137393243 1299.8703859449702 9.326671331792324 0.3576189563798211 597.9740527294582 0.0
4383.832645433114 1337.9674791159923 9.504291123112585 0.35730535796135854 602.019805726412 0.0
4493.199461362735 1377.027581397218 9.68533688014694 0.3569961289208159 606.0904271513187 0.0
4605.251251211707 1417.0122405530471 9.869586027649753 0.35669166891494264 610.1797613821134 0.0
4720.1801379712215 1457.9888281431083 10.057304395645275 0.3563915704480092 614.2925763096104 0.0
4838.095068071369 1499.994924463921 10.24861666628278 0.3560957228104735 618.4303648993331 0.0
4959.068014889019 1543.054881210042 10.443585053838872 0.3558024477734687 622.5932101621104 0.0
5082.986710143199 1587.1271081917737 10.641960999572017 0.35550997968026543 626.7740504200112 0.0
5210.146129770291 1632.3147085549447 10.844141762192427 0.35522286776418976 630.9792782513232 0.0
5340.585191869549 1678.631056548162 11.05016420198241 0.3549434375864111 635.2097160524316 0.0
5474.381811761033 1726.1024986295622 11.260094017833145 0.35466256172660593 639.4654611461091 0.0
