e[MeV/fm^3], P[MeV/fm^3], rho[fm^-3], v2[1], mu_q[MeV], mu_e[MeV]
70.21755168181654 0.006206087273093519 0.07407856508846018 0.017597877650005332 316.5185077347417 89.2771661002368
71.43578994790998 0.027644495228360377 0.07535555647246353 0.0175978776500052 316.5894798429086 89.8124074562691
72.67502861766434 0.04945246571785267 0.07665456106626496 0.017597877650005228 316.6616753923034 90.35687548400062
73.93562970314778 0.07163636938565421 0.07797595834102777 0.01759787765000538 316.7351154730202 90.91072923592193
75.21796145691394 0.09420268669514797 0.07932013430936638 0.01759787765000533 316.8098215387112 91.47413050632369
76.5223984795798 0.11715800982215896 0.0806874816381126 0.01759787765000522 316.8858154128541 92.04724387856187
77.84932182925448 0.14050904458066893 0.08207839976302188 0.017597877650005325 316.96311929512683 92.630236773136
79.19911913285509 0.16426261238173973 0.08349329500545777 0.017597877650005436 317.0417557678931 93.22327949659658
80.57218469934486 0.18842565222626206 0.08493258069109116 0.017597877650005332 317.12174780279906 93.82654529129692
81.96891963491473 0.21300522273190858 0.08639667727063695 0.017597877650005284 317.20311876748366 94.44021038599915
83.38973196016327 0.23800850419525207 0.0878860124426853 0.017597877650005242 317.2858924324053 95.06445404735784
84.83503672928572 0.26344280068923775 0.08940102127863886 0.01759787765000527 317.37009297778565 95.69945863228664
86.3052561513196 0.28931554219685157 0.0909421463498059 0.01759787765000538 317.45574500067295 96.34540964122833
87.80081971348744 0.3156342867816875 0.09250983785669148 0.017597877650005325 317.54287352212793 97.00249577234631
89.32216430665855 0.3424067227958098 0.09410455376051008 0.01759787765000531 317.63150399453286 97.67090897664707
90.86973435297011 0.3696406711256137 0.09572675991696154 0.017597877650005242 317.7216623090265 98.3508445140514
92.44398193566516 0.39734408747669764 0.0973769302123309 0.017597877650005228 317.8133748030682 99.04250101043964
94.04536693114535 0.4255250646977123 0.09905554670190979 0.01759787765000531 317.90666826813106 99.74608051566989
95.67435714332068 0.45419183514462985 0.10076309975082554 0.017892055534992374 318.00156995752883 100.46178856260559
97.33169327479138 0.4843410207312542 0.10250008817728433 0.018775745774211428 318.10048622561175 101.18570399772256
99.01814146064449 0.5170082040359527 0.10426701939828847 0.020025246310001077 318.2058447860128 101.91428658825437
100.73429318912723 0.5525181669555139 0.1060644095778678 0.02129999675038627 318.31828524079526 102.64750316311726
102.48063871606901 0.5907964457966746 0.10789278377786223 0.022549781036994038 318.43751805132047 103.38670836290729
104.25774423592242 0.6320103592916358 0.10975267611130558 0.023887708108000116 318.5638120290785 104.13237516689382
106.06623539667063 0.676492214395437 0.11164462989845152 0.025339806313660923 318.697770868173 104.88465247088972
107.90674784282342 0.7245234535359056 0.11356919782549418 0.026726883379044414 318.8398212612412 105.64215664334085
109.77980899298537 0.7757858510810522 0.11552694210601787 0.028008654354195556 318.9889635986241 106.39548846211913
111.68603200563659 0.8304189676497289 0.11751843464523576 0.02941848660514751 319.1453310518051 107.14305877628786
113.62612253642692 0.8889903796251314 0.1195442572070575 0.0310000273545607 319.31003653378224 107.89037199216354
115.60075117782822 0.9518318179215621 0.1216050015840337 0.03259969837934959 319.4836179784206 108.6399435927219
117.61049319554543 1.0189345897359714 0.12370126977023699 0.03419210470702347 319.6659546827271 109.3941654142798
119.65602415051524 1.0905481505064962 0.12583367413711752 0.03592218882239359 319.8573917239201 110.15411877028433
121.73815641876267 1.1672766767204164 0.12800283761239192 0.03778190969818496 320.0588603075681 110.92020174565145
123.85759205422588 1.2493614886182018 0.1302093938620144 0.0396255479711905 320.27062777688235 111.69348487044105
126.01496433860267 1.3368161240061027 0.13245398747528928 0.041461386350795104 320.4925793312381 112.47517112638602
128.2110155783424 1.429932568241939 0.13473727415316794 0.04346252473119688 320.7250671173629 113.26594974297757
130.4466887956552 1.52951487508801 0.1370599208997976 0.045590760196347446 320.969220213987 114.06610244230104
132.72270298041246 1.6357091714792171 0.13942260621736857 0.04767926014436641 321.22510082538804 114.87651716166351
135.03976205186157 1.748593799706529 0.14182602030432198 0.04977029748745049 321.49267975935425 115.69799950047124
137.3986835249372 1.8685229353243933 0.14427086525697244 0.05206400529136951 321.77234677231564 116.53110782929468
139.80057355445675 1.9965668028217445 0.14675785527460983 0.05448295484632937 322.0654823434704 117.37614392238619
142.24614757531495 2.1327305435734982 0.1492877168681315 0.05683638595368079 322.37191652081754 118.23384218287305
144.73619757503982 2.2771938463603174 0.15186118907227755 0.059208520968313694 322.69174413674494 119.10477732777403
147.27162660197732 2.430390920319256 0.15447902366151722 0.0618292055008095 323.0254080857181 119.98940983187808
149.85374556019306 2.5937403356179334 0.15714198536966398 0.06457197399617759 323.3745941649684 120.88804723823948
152.4832372283129 2.7670401807274834 0.15985085211327107 0.06721882453614525 323.7388555425644 121.80124809303793
155.16100474728017 2.9506159576823916 0.1626064152188807 0.06990575565196155 324.1184454344821 122.72942464238325
157.8880490867394 3.1450019316856195 0.16540947965419006 0.07289593855263288 324.5138717435153 123.67293532678868
160.66593902373984 3.3520690822739376 0.16826086426320178 0.07600220080988451 324.92718571735776 124.63202719571277
163.4952840125817 3.5713158744339593 0.17116140200542868 0.07897532922519734 325.3576004812541 125.6070903482084
166.37712853614147 3.8032695276021222 0.17411194019922174 0.08202037368123771 325.8055622707938 126.59840218489457
169.31260061973967 4.048620249866702 0.17711334076929286 0.08542133552471287 326.2716886567447 127.60620334892384
172.303551331823 4.309718566586897 0.18016648049850292 0.0889270452590527 326.7583492276527 128.63058410314463
175.35050383107742 4.585737524453315 0.1832722512839939 0.09226446929582366 327.26444376458807 129.67181814230588
178.45466868853612 4.877441713994387 0.18643156039773165 0.09572802473872655 327.7906096931573 130.73004905217363
181.61738960046912 5.18586172672753 0.18964533075154347 0.09956214286511778 328.3377308078966 131.80536363429957
184.84067158507494 5.5134958934314255 0.19291450116672415 0.10348029397253222 328.90808973361146 132.89762523650757
188.12508868773136 5.859506730761704 0.19624002664828616 0.10723125726635341 329.50063467169656 134.00704679883177
191.47199658539387 6.224818666062787 0.19962287866394354 0.11114950466071183 330.116072530961 135.1336328978941
194.88301649425165 6.610906017540677 0.2030640454278977 0.11544544815415358 330.7555888744374 136.2772622126371
198.3602890613904 7.020342674256472 0.2065645321895225 0.11979382346787826 331.42129567013734 137.43754067535426
201.9044613376726 7.452308308070558 0.2101253615270204 0.12397650239191993 332.11220306471756 138.61467605675114
205.5170562570145 7.907903230714149 0.21374757364614289 0.1283699626450635 332.8290718474655 139.80852765902867
209.2000509218192 8.389163756231573 0.21743222668406043 0.1331367755092301 333.57341318817043 141.01869117551004
212.95568685700158 8.89862029273525 0.22118039701847075 0.1379109881763032 334.34705688852574 142.2445530860434
216.7847142491265 9.435507109353031 0.224993179582034 0.1425209986125906 335.149090910276 143.4863497980139
220.6888478651131 10.001107919216421 0.22887168818223044 0.1473848211915132 335.9803024130194 144.74379875149575
224.67051841244387 10.598148441577159 0.23281705582673115 0.15260238957125072 336.84253077264475 146.0161250814302
228.73201076449018 11.228941923303356 0.23683043505437643 0.1577674592771845 337.73719306437926 147.30260528428684
232.87421847820065 11.892825884399452 0.2409129982718618 0.16276966708385543 338.6634726746745 148.60351662363965
237.09907459677976 12.591262929879372 0.2450659380962259 0.1680647442175771 339.6221443059857 149.91845083271977
241.4095830266287 13.327795359770137 0.24929046770324403 0.17367604335428166 340.61534675451054 151.2461733723472
245.80798450797525 14.104290408314728 0.25358782118182577 0.17916063314688135 341.6439533067965 152.5860269646372
250.29536865638684 14.920249387540146 0.2579592538945237 0.18448376658109078 342.70726027181 153.9383214680799
254.87391430339358 15.777295306389933 0.26240604284425445 0.19013115054428797 343.8059831368225 155.30255316107613
259.54734193097937 16.679902122692877 0.2669294870473437 0.19603884001981875 344.9424917462097 156.67695034502995
264.3177234138911 17.62921742422393 0.2715309079130002 0.20173455319505607 346.11701155796936 158.06114921462316
269.1864120746621 18.624978432827973 0.2762116496293318 0.20727097595137622 347.328966229596 159.45546560193614
274.15586021544175 19.66893704821644 0.28097307955601647 0.2131521958171756 348.57896372915343 160.8593430130801
279.2306731431928 20.76658998854091 0.28581658862374093 0.21922189252154145 349.86949367684684 162.27041922778363
284.412585417037 21.918069468750467 0.29074359174052566 0.2249894143101847 351.2000887836266 163.68887481305947
289.7032992122702 23.123430865940225 0.29575552820505524 0.2306016920899494 352.5703075794808 165.1149897852477
295.1055673860831 24.38451504681977 0.300853862127132 0.23656661428271297 353.98060905644974 166.5482047162215
300.6250734626658 25.70790002720107 0.3060400828553784 0.24263779812409947 355.4334521442952 167.985546141962
306.2629978571605 27.092417065261266 0.3113157054123131 0.24831998114039466 356.9277197298895 169.42797804232237
312.0214966673664 28.538529352055203 0.3166822709369256 0.2538541104542591 358.4631014669581 170.8756920374787
317.9036494111742 30.048126085066315 0.3221413471348811 0.2597359108053192 360.03988091456415 172.3281747479247
323.9164360611114 31.628890065835524 0.32769452873648597 0.2656390932017807 361.66030746350987 173.78185544558517
330.06021547034334 33.278110584552124 0.3333434379625472 0.2710787578055842 363.3227610243933 175.23867305073648
336.3377248306841 34.996751726455315 0.3390897249982634 0.27638164452897485 365.0270429856405 176.69867300893014
342.75239563416363 36.78671837750218 0.3449350684752844 0.2820159576097043 366.7732551876847 178.16142771359964
349.3127469329602 38.65679115669434 0.35088117596208035 0.28759239956345484 368.5632457970251 179.62281308437977
356.0179982424811 40.60254779373834 0.3569297844627652 0.2926507180164095 370.39513942729127 181.08586093941702
362.87161894726887 42.62554485678177 0.3630826609245175 0.2976058496429581 372.26881070045994 182.55041400308298
369.8776838050342 44.72802159039085 0.3693416027537498 0.3028324596598386 374.18425749083553 184.01597196044224
377.04571989459646 46.91882012835673 0.3757084383411748 0.30793255850782497 376.1425479489815 185.47847044374714
384.37423920137996 49.19272886637786 0.3821850275959231 0.31263174454758946 378.1420680020603 186.9415202760738
392.45558099487454 51.73765065620302 0.3892755108147833 0.02482859341389404 380.18264288681297 189.19534964080898
476.87113734087836 54.24817185161225 0.6789209058499014 0.03465146699390703 382.2641765278808 174.02356218759823
557.4953723683302 57.42011617958672 0.956304988475805 0.0453292154837765 384.38684656688184 159.14092658105167
629.5066001617855 61.0693959190517 1.206215035013337 0.057482415614063365 386.54960838431725 144.57035440116255
693.8852070143234 65.16174591370694 1.4320986419839419 0.07114458775648969 388.75217980057613 130.31599926983085
751.6903924828467 69.66757510157991 1.637547652961216 0.08673026542926987 390.99427615507426 116.37244169603049
803.4847713967116 74.567263409545 1.824312867391915 0.10327463118134439 393.27543963785325 102.76856757798716
850.9493608662281 79.84651999732478 1.9994372236594544 0.11633975315373335 395.59516773161965 89.58171724137861
897.3935447866895 85.48226120598129 2.1769171924799102 0.12291762687199703 397.95311125729603 76.62405183750975
945.5816653530331 91.48408855856877 2.371038923323609 0.11866130992226653 400.3486982341418 63.81111630589213
1002.9547328565474 97.8898073595409 2.622263325998862 0.12247630084023187 402.78113502043635 50.95569509270881
1055.4389644954908 104.83766080883245 2.862031103626414 0.4685840047912233 405.2503908250171 37.75183728508513
1068.5083613958266 112.05594254622328 2.894922409609751 0.556167590801584 407.7560864453435 25.192010943318895
1081.7147139706808 119.45244488455567 2.927490271313774 0.5610811347603981 410.2972643916196 13.494506719908765
1095.2085866417297 127.0375220978627 2.960323654319551 0.5615519687306465 412.8731075256692 3.33238398325608
1109.069215070181 134.8130019375923 2.9937868319070535 0.5601124381702345 415.48395412590855 0.0
1123.3062193259236 142.77469677697215 3.027956314868481 0.5582064353649443 418.12942481666244 0.0
1137.9556551792707 150.93674599469355 3.0628733966669524 0.5562563368603923 420.80808286670407 0.0
1152.9974997082788 159.28994258379495 3.0985064117390086 0.5544038686990431 423.519388423576 0.0
1168.4510447476318 167.8427344322983 3.134883445407453 0.5524631815425662 426.263926491692 0.0
1184.3408097185606 176.60509269551 3.1720340500534885 0.5505765561118672 429.04133904117657 0.0
1200.6352934367048 185.56191394973652 3.2099030423984516 0.5486485650245854 431.84962364736657 0.0
1217.390147508854 194.73659736975972 3.2485632219277383 0.5467389531561899 434.68879187402194 0.0
1234.5681860789707 204.11362423396545 3.2879675632567005 0.5448276663290201 437.55954505588323 0.0
1252.2368697206614 213.72101532057553 3.3282017302303677 0.5429083426508523 440.4615602408136 0.0
1270.3325865049494 223.52968590727463 3.3691647153340822 0.5410113988366847 443.39219174670734 0.0
1288.930116088852 233.57142938345353 3.410957422588837 0.5390872618039264 446.35224304333093 0.0
1307.9932380673094 243.83124963684605 3.4535347446342795 0.5372111522184664 449.3424024244641 0.0
1327.5751667289865 254.33093891327655 3.4969621891123652 0.5352892072266631 452.3623894048231 0.0
1347.6377450114117 265.0516470405143 3.5411681740036287 0.5334346320206063 455.4088468583903 0.0
1368.2149891733052 276.0086593412664 3.586205378540934 0.5315238184172886 458.48357591050296 0.0
1389.335633864013 287.2140130313323 3.632111590705762 0.5296661522585673 461.5871295346198 0.0
1410.9811628844534 298.6595249359929 3.678859715010056 0.5277917692146037 464.7192724425523 0.0
1433.1776681789163 310.35238592010836 3.7264549419857937 0.5258898389875615 467.87587687666405 0.0
1455.9295849466646 322.2964327734791 3.7749188250188004 0.5240922530075434 471.0599151315838 0.0
1479.2451399834767 334.49499063774726 3.824261433465857 0.522218472527948 474.2716930347005 0.0
1503.181557387206 346.9710582149882 3.8745502213108525 0.5203352019697487 477.5110201023164 0.0
1527.6771720049653 359.6948840881627 3.9256744927107308 0.5185589935489183 480.77294680996494 0.0
1552.776569116827 372.68792939093163 3.9777143513197504 0.5167329240485623 484.06176219100337 0.0
1578.5236103558266 385.96769175409383 4.030720579712943 0.5148805967717687 487.37742484726095 0.0
1604.9165083220855 399.53259842753266 4.084684682985982 0.513092289941361 490.71942709513365 0.0
1631.9201849661367 413.36398967275517 4.139530233929661 0.5113387397649962 494.0830324628434 0.0
1659.5882892100576 427.4872340137437 4.195350007417757 0.5095368358210131 497.47289006040484 0.0
1687.9661768330313 441.920170958844 4.252194535549788 0.5077279742540339 500.8888825459008 0.0
1717.0402814033037 456.6559913100013 4.310037469789187 0.5059816916987643 504.3299917615031 0.0
1746.787056981194 471.68129595225116 4.368820718575659 0.5042563517232086 507.7922253856572 0.0
1777.262926133589 487.0223868237796 4.428638845098174 0.5025373961945627 511.2801267663313 0.0
1808.486027306968 502.68605382954416 4.489509386291618 0.5007883985096395 514.7936148893198 0.0
1840.484919451585 518.6818440536438 4.551451063702707 0.49904391112517477 518.3310928584808 0.0
1873.227791518464 534.9937698693184 4.614401613129882 0.49735113495772953 521.8894715714698 0.0
1906.7696632767215 551.6472918975464 4.678451686756986 0.49567238477707853 525.4730848306887 0.0
1941.130160628036 568.6497284033209 4.743619914718946 0.49400255168469265 529.0818842067226 0.0
1976.3078599454998 585.9979781300489 4.809884940700175 0.49234326200782963 532.7136335653959 0.0
2012.302012502027 603.6893602553439 4.877227320076963 0.49069572316952925 536.3662857953279 0.0
2049.172466768933 621.7508897080476 4.945740258540974 0.4890582926200011 540.0438741161018 0.0
2086.940516678027 640.1904746195898 5.015443571120613 0.48742191050263006 543.7463790946406 0.0
2125.6053934058104 659.0045018728055 5.086310496887824 0.48579464575110975 547.4708712870953 0.0
2165.1728761884724 678.1938794429271 5.158336572840881 0.48419269581093083 551.216467733508 0.0
2205.698436802951 697.7834445612693 5.231606430077192 0.4826078197905517 554.9868210458568 0.0
2247.205062048311 717.781704693825 5.306141055145511 0.48103453767603277 558.781937487146 0.0
2289.6749861988355 738.1775560406857 5.381888384658606 0.4794746449614493 562.5981454122898 0.0
2333.1342413914567 758.9810309572932 5.45887521367387 0.4779283969762673 566.4358348263322 0.0
2377.6421472220154 780.2179454688049 5.537186076581761 0.47639467426227533 570.2982070044372 0.0
2423.22358235269 801.8974735115614 5.616843225794451 0.4748734398033516 574.1852909518561 0.0
2469.8500153211958 824.0034307943982 5.697775862892996 0.4733666309449571 578.0926279967849 0.0
2517.5656047375755 846.5542053680294 5.780040153545821 0.4718739140471193 582.021979385741 0.0
2566.427872680891 869.5742983496659 5.863713656134611 0.4703943909167059 585.9760320290837 0.0
2616.4637106280065 893.0735911676687 5.948819931114285 0.4689206047140342 589.9548350790684 0.0
2667.641043421161 917.0335571571937 6.035276564554305 0.4674550499909369 593.9531011119569 0.0
2720.02542770871 941.4822794038927 6.123173053453846 0.46600915489815087 597.9740527294582 0.0
2773.665640417724 966.4401889075633 6.212572084408498 0.4645817434291821 602.019805726412 0.0
2828.5908217543347 991.9179541997343 6.303498631590549 0.46316811527536395 606.0904271513187 0.0
2884.744417123278 1017.8866099910375 6.395836647563722 0.46177032489771364 610.1797613821134 0.0
2942.218563248636 1044.3860368551902 6.489715162648414 0.4603867289648722 614.2925763096104 0.0
3001.0633280006055 1071.436406121244 6.585191943230413 0.45901703150019557 618.4303648993331 0.0
3061.3101278954796 1099.0491828712911 6.682293362353118 0.45765359425493557 622.5932101621104 0.0
3122.897360852623 1127.1923618887154 6.780889131262184 0.4562882907647072 626.7740504200112 0.0
3185.96531790803 1155.9258598297083 6.881169362271199 0.45494261562981286 630.9792782513232 0.0
3250.5317061009036 1185.2566839258661 6.983152542735103 0.4536276340316352 635.2097160524316 0.0
3316.6304807681413 1215.1971843879903 7.086866558632023 0.4523044536009735 639.4654611461091 0.0
