e[MeV/fm^3], P[MeV/fm^3], rho[fm^-3], v2[1], mu_q[MeV], mu_e[MeV]
70.21755168181654 0.006206087273093519 0.07407856508846018 0.017597877650005332 316.5185077347417 89.2771661002368
71.43578994790998 0.027644495228360377 0.07535555647246353 0.0175978776500052 316.5894798429086 89.8124074562691
72.67502861766434 0.04945246571785267 0.07665456106626496 0.017597877650005228 316.6616753923034 90.35687548400062
73.93562970314778 0.07163636938565421 0.07797595834102777 0.01759787765000538 316.7351154730202 90.91072923592193
75.21796145691394 0.09420268669514797 0.07932013430936638 0.01759787765000533 316.8098215387112 91.47413050632369
76.5223984795798 0.11715800982215896 0.0806874816381126 0.01759787765000522 316.8858154128541 92.04724387856187
77.84932182925448 0.14050904458066893 0.08207839976302188 0.017597877650005325 316.96311929512683 92.630236773136
79.19911913285509 0.16426261238173973 0.08349329500545777 0.017597877650005436 317.0417557678931 93.22327949659658
80.57218469934486 0.18842565222626206 0.08493258069109116 0.017597877650005332 317.12174780279906 93.82654529129692
81.96891963491473 0.21300522273190858 0.08639667727063695 0.017597877650005284 317.20311876748366 94.44021038599915
83.38973196016327 0.23800850419525207 0.0878860124426853 0.017597877650005242 317.2858924324053 95.06445404735784
84.83503672928572 0.26344280068923775 0.08940102127863886 0.01759787765000527 317.37009297778565 95.69945863228664
86.3052561513196 0.28931554219685157 0.0909421463498059 0.01759787765000538 317.45574500067295 96.34540964122833
87.80081971348744 0.3156342867816875 0.09250983785669148 0.017597877650005325 317.54287352212793 97.00249577234631
89.32216430665855 0.3424067227958098 0.09410455376051008 0.01759787765000531 317.63150399453286 97.67090897664707
90.86973435297011 0.3696406711256137 0.09572675991696154 0.017597877650005242 317.7216623090265 98.3508445140514
92.44398193566516 0.39734408747669764 0.0973769302123309 0.017597877650005228 317.8133748030682 99.04250101043964
94.04536693114535 0.4255250646977123 0.09905554670190979 0.01759787765000531 317.90666826813106 99.74608051566989
95.67435714332068 0.45419183514462985 0.10076309975082554 0.017892055534992374 318.00156995752883 100.46178856260559
97.33169327479138 0.4843410207312542 0.10250008817728433 0.018775745774211428 318.10048622561175 101.18570399772256
99.01814146064449 0.5170082040359527 0.10426701939828847 0.020025246310001077 318.2058447860128 101.91428658825437
100.73429318912723 0.5525181669555139 0.1060644095778678 0.02129999675038627 318.31828524079526 102.64750316311726
102.48063871606901 0.5907964457966746 0.10789278377786223 0.022549781036994038 318.43751805132047 103.38670836290729
104.25774423592242 0.6320103592916358 0.10975267611130558 0.023887708108000116 318.5638120290785 104.13237516689382
106.06623539667063 0.676492214395437 0.11164462989845152 0.025339806313660923 318.697770868173 104.88465247088972
107.90674784282342 0.7245234535359056 0.11356919782549418 0.026726883379044414 318.8398212612412 105.64215664334085
109.77980899298537 0.7757858510810522 0.11552694210601787 0.028008654354195556 318.9889635986241 106.39548846211913
111.68603200563659 0.8304189676497289 0.11751843464523576 0.02941848660514751 319.1453310518051 107.14305877628786
113.62612253642692 0.8889903796251314 0.1195442572070575 0.0310000273545607 319.31003653378224 107.89037199216354
115.60075117782822 0.9518318179215621 0.1216050015840337 0.03259969837934959 319.4836179784206 108.6399435927219
117.61049319554543 1.0189345897359714 0.12370126977023699 0.03419210470702347 319.6659546827271 109.3941654142798
119.65602415051524 1.0905481505064962 0.12583367413711752 0.03592218882239359 319.8573917239201 110.15411877028433
121.73815641876267 1.1672766767204164 0.12800283761239192 0.03778190969818496 320.0588603075681 110.92020174565145
123.85759205422588 1.2493614886182018 0.1302093938620144 0.0396255479711905 320.27062777688235 111.69348487044105
126.01496433860267 1.3368161240061027 0.13245398747528928 0.041461386350795104 320.4925793312381 112.47517112638602
128.2110155783424 1.429932568241939 0.13473727415316794 0.04346252473119688 320.7250671173629 113.26594974297757
130.4466887956552 1.52951487508801 0.1370599208997976 0.045590760196347446 320.969220213987 114.06610244230104
132.72270298041246 1.6357091714792171 0.13942260621736857 0.04767926014436641 321.22510082538804 114.87651716166351
135.03976205186157 1.748593799706529 0.14182602030432198 0.04977029748745049 321.49267975935425 115.69799950047124
137.3986835249372 1.8685229353243933 0.14427086525697244 0.05206400529136951 321.77234677231564 116.53110782929468
139.80057355445675 1.9965668028217445 0.14675785527460983 0.05448295484632937 322.0654823434704 117.37614392238619
142.24614757531495 2.1327305435734982 0.1492877168681315 0.05683638595368079 322.37191652081754 118.23384218287305
144.73619757503982 2.2771938463603174 0.15186118907227755 0.059208520968313694 322.69174413674494 119.10477732777403
147.27162660197732 2.430390920319256 0.15447902366151722 0.0618292055008095 323.0254080857181 119.98940983187808
149.85374556019306 2.5937403356179334 0.15714198536966398 0.06457197399617759 323.3745941649684 120.88804723823948
152.4832372283129 2.7670401807274834 0.15985085211327107 0.06721882453614525 323.7388555425644 121.80124809303793
155.16100474728017 2.9506159576823916 0.1626064152188807 0.06990575565196155 324.1184454344821 122.72942464238325
157.8880490867394 3.1450019316856195 0.16540947965419006 0.07289593855263288 324.5138717435153 123.67293532678868
160.66593902373984 3.3520690822739376 0.16826086426320178 0.07600220080988451 324.92718571735776 124.63202719571277
163.4952840125817 3.5713158744339593 0.17116140200542868 0.07897532922519734 325.3576004812541 125.6070903482084
166.37712853614147 3.8032695276021222 0.17411194019922174 0.08202037368123771 325.8055622707938 126.59840218489457
169.31260061973967 4.048620249866702 0.17711334076929286 0.08542133552471287 326.2716886567447 127.60620334892384
172.303551331823 4.309718566586897 0.18016648049850292 0.0889270452590527 326.7583492276527 128.63058410314463
175.35050383107742 4.585737524453315 0.1832722512839939 0.09226446929582366 327.26444376458807 129.67181814230588
178.45466868853612 4.877441713994387 0.18643156039773165 0.09572802473872655 327.7906096931573 130.73004905217363
181.61738960046912 5.18586172672753 0.18964533075154347 0.09956214286511778 328.3377308078966 131.80536363429957
184.84067158507494 5.5134958934314255 0.19291450116672415 0.10348029397253222 328.90808973361146 132.89762523650757
188.12508868773136 5.859506730761704 0.19624002664828616 0.10723125726635341 329.50063467169656 134.00704679883177
191.47199658539387 6.224818666062787 0.19962287866394354 0.11114950466071183 330.116072530961 135.1336328978941
194.88301649425165 6.610906017540677 0.2030640454278977 0.11544544815415358 330.7555888744374 136.2772622126371
198.3602890613904 7.020342674256472 0.2065645321895225 0.11979382346787826 331.42129567013734 137.43754067535426
201.9044613376726 7.452308308070558 0.2101253615270204 0.12397650239191993 332.11220306471756 138.61467605675114
205.5170562570145 7.907903230714149 0.21374757364614289 0.1283699626450635 332.8290718474655 139.80852765902867
209.2000509218192 8.389163756231573 0.21743222668406043 0.1331367755092301 333.57341318817043 141.01869117551004
212.95568685700158 8.89862029273525 0.22118039701847075 0.1379109881763032 334.34705688852574 142.2445530860434
216.7847142491265 9.435507109353031 0.224993179582034 0.1425209986125906 335.149090910276 143.4863497980139
220.6888478651131 10.001107919216421 0.22887168818223044 0.1473848211915132 335.9803024130194 144.74379875149575
224.67051841244387 10.598148441577159 0.23281705582673115 0.15260238957125072 336.84253077264475 146.0161250814302
228.73201076449018 11.228941923303356 0.23683043505437643 0.1577674592771845 337.73719306437926 147.30260528428684
232.87421847820065 11.892825884399452 0.2409129982718618 0.16276966708385543 338.6634726746745 148.60351662363965
237.09907459677976 12.591262929879372 0.2450659380962259 0.1680647442175771 339.6221443059857 149.91845083271977
241.4095830266287 13.327795359770137 0.24929046770324403 0.17367604335428166 340.61534675451054 151.2461733723472
245.80798450797525 14.104290408314728 0.25358782118182577 0.17916063314688135 341.6439533067965 152.5860269646372
250.29536865638684 14.920249387540146 0.2579592538945237 0.18448376658109078 342.70726027181 153.9383214680799
254.87391430339358 15.777295306389933 0.26240604284425445 0.19013115054428797 343.8059831368225 155.30255316107613
259.54734193097937 16.679902122692877 0.2669294870473437 0.19603884001981875 344.9424917462097 156.67695034502995
264.3177234138911 17.62921742422393 0.2715309079130002 0.20173455319505607 346.11701155796936 158.06114921462316
269.1864120746621 18.624978432827973 0.2762116496293318 0.20727097595137622 347.328966229596 159.45546560193614
274.15586021544175 19.66893704821644 0.28097307955601647 0.2131521958171756 348.57896372915343 160.8593430130801
279.2306731431928 20.76658998854091 0.28581658862374093 0.21922189252154145 349.86949367684684 162.27041922778363
284.412585417037 21.918069468750467 0.29074359174052566 0.2249894143101847 351.2000887836266 163.68887481305947
289.7032992122702 23.123430865940225 0.29575552820505524 0.2306016920899494 352.5703075794808 165.1149897852477
295.1055673860831 24.38451504681977 0.300853862127132 0.23656661428271297 353.98060905644974 166.5482047162215
300.6250734626658 25.70790002720107 0.3060400828553784 0.24263779812409947 355.4334521442952 167.985546141962
306.2629978571605 27.092417065261266 0.3113157054123131 0.24831998114039466 356.9277197298895 169.42797804232237
312.0214966673664 28.538529352055203 0.3166822709369256 0.2538541104542591 358.4631014669581 170.8756920374787
317.9036494111742 30.048126085066315 0.3221413471348811 0.2597359108053192 360.03988091456415 172.3281747479247
323.9164360611114 31.628890065835524 0.32769452873648597 0.2656390932017807 361.66030746350987 173.78185544558517
330.06021547034334 33.278110584552124 0.3333434379625472 0.2710787578055842 363.3227610243933 175.23867305073648
336.3377248306841 34.996751726455315 0.3390897249982634 0.27638164452897485 365.0270429856405 1287.6861312624253
342.75239563416363 36.78671837750218 0.3449350684752844 0.2820159576097043 366.7732551876847 1262.6414851398076
349.3127469329602 38.65679115669434 0.35088117596208035 0.28759239956345484 368.5632457970251 1236.9689572985412
356.0179982424811 40.60254779373834 0.3569297844627652 0.2926507180164095 370.39513942729127 1210.6954450354926
362.87161894726887 42.62554485678177 0.3630826609245175 0.2976058496429581 372.26881070045994 1183.8227465560694
369.8776838050342 44.72802159039085 0.3693416027537498 0.3028324596598386 374.18425749083553 1156.3508923475706
377.04571989459646 46.91882012835673 0.3757084383411748 0.30793255850782497 376.1425479489815 1128.2645627066772
384.37423920137996 49.19272886637786 0.3821850275959231 0.3125215544923945 378.1420680020603 1099.5869071011252
391.8673537720589 51.551645656583794 0.38877326248886857 0.31704011341831206 380.18264288681297 1070.3204320326854
399.53022857376277 53.998550771733285 0.3954750676053199 0.32173794710659864 382.2641765278808 1040.4665154400514
407.3724291860139 56.54109433027862 0.4022924007072386 0.3262560177033471 384.38684656688184 1010.0226095392507
415.3926093188036 59.174483419942426 0.40922725330514964 0.33032373141907057 386.54960838431725 979.0036965447302
423.5953061809909 61.90062597545923 0.41628165123991057 0.3343330679737635 388.75217980057613 947.4138235525361
431.9870027817532 64.72329723895402 0.4234576552745099 0.33844367777413575 390.99427615507426 915.257073241502
440.5770251421459 67.64881573370899 0.43075736169606577 0.34234063934627335 393.27543963785325 882.5400116454616
449.3643086509324 70.67296114055506 0.4381829029282034 0.34585294088734964 395.59516773161965 849.2698460028996
458.3538473549931 73.79767867736162 0.4457364481539887 0.3493186232354084 397.95311125729603 815.4515843342716
467.5536981515388 77.027587172091 0.45342020394959914 0.35282403402270646 400.3486982341418 781.093430141546
476.9726258790827 80.36760327959247 0.4612364149289199 0.35610018974828783 402.78113502043635 746.2067660482196
486.6100156532322 83.81420550185936 0.4691873643992499 0.3590573204431635 405.2503908250171 710.7920336694459
496.47135452575156 87.36941208352289 0.4772753750283123 0.36197834849888366 407.7560864453435 674.8546716302828
506.56655900314644 91.03873246762508 0.4855028095227629 0.36489385448832223 410.2972643916196 638.4084125074907
516.9034684719422 94.82566064673001 0.4938720713183944 0.36757989436499905 412.8731075256692 601.4649759170658
527.4821139822687 98.72747146381049 0.5023856052822402 0.3700084324005575 415.48395412590855 564.0195101787735
538.3085169951437 102.74629564781578 0.5110458984267782 0.3724093515593818 418.12942481666244 526.0774564008157
549.3947716703991 106.88858307175066 0.5198554806364498 0.37477404613277354 420.80808286670407 487.6594205697413
560.7473841545874 111.15641113021425 0.5288169254067018 0.3769207954870195 423.519388423576 448.77314539502163
572.3672561543884 115.54792410382744 0.5379328505957653 0.37886474183026664 426.263926491692 409.4102405856564
584.2609906842314 120.06540490899816 0.5472059191893986 0.3807870372087292 429.04133904117657 369.5758411026338
596.4432130423701 124.71630099334256 0.5566388400788104 0.38265444483646505 431.84962364736657 329.29866626025887
608.9186419826651 129.50128533081002 0.5662343688519925 0.3844509365283635 434.68879187402194 288.57855020796967
629.7176759979958 137.52143119021338 0.5821012127858057 0.00914745481880637 437.55954505588323 247.40543421386081
862.9775111780555 139.98988808398803 1.2111853662686523 0.012017413893967918 440.4615602408136 205.81190052913632
1404.552998939605 148.3025871684819 2.6754146394352842 0.020895823201036168 443.39219174670734 164.06476370011305
1873.738456298129 160.36118628152545 3.9685372544621647 0.027526460226459076 446.35224304333093 122.47541894815024
2385.477230896484 175.46635094909152 5.438058730999651 0.04418802790056642 449.3424024244641 80.15220227012232
2735.771007132316 194.4629097812013 6.476341219668741 0.6545458098574022 452.3623894048231 35.861617118569896
2763.9888382172544 214.2973382829942 6.5397779385919845 0.7261476755580629 455.4088468583903 2.5327812608670945
2790.9782827599183 234.49568334279905 6.5988498926298265 0.7473044927841079 458.48357591050296 0.0
2818.555445763513 255.0739319830548 6.658789541818472 0.7452096904715244 461.5871295346198 0.0
2846.7017156680504 276.02017964496554 6.719577420082845 0.7430672027948271 464.7192724425523 0.0
2875.430974635968 297.3349462729453 6.781180612987087 0.7408758654213079 467.87587687666405 0.0
2904.7535092244616 319.0281026094378 6.843640688221203 0.7387861119103611 471.0599151315838 0.0
2934.6769023112497 341.10376964257335 6.906967469174363 0.736587545771008 474.2716930347005 0.0
2965.2535310260655 363.5901438542654 6.971206926174418 0.7343601719688939 477.5110201023164 0.0
2996.4118680639226 386.43823610097144 7.03623698083955 0.7322401622700774 480.77294680996494 0.0
3028.2034684561195 409.6832732873082 7.102152239641699 0.7300410967323891 484.06176219100337 0.0
3060.6680791421336 433.3463764644763 7.168988214353742 0.7277916141103713 487.37742484726095 0.0
3093.801465132993 457.4234620120939 7.236734401832228 0.7256006989378552 490.71942709513365 0.0
3127.557669297458 481.8801635343592 7.305294824738645 0.7234335613875791 494.0830324628434 0.0
3161.9973449819986 506.75716416038074 7.374776233252875 0.7211867285130165 497.47289006040484 0.0
3197.1608191192704 532.075351004304 7.445213288458 0.7189123145095531 500.8888825459008 0.0
3233.03155036849 557.8229554197254 7.516578348958701 0.7166970163023176 504.3299917615031 0.0
3269.576035737262 583.9736358643304 7.588794987245419 0.7144893418865044 507.7922253856572 0.0
3306.8569157277725 610.5687624063926 7.661970279469097 0.7122709939019325 511.2801267663313 0.0
3344.889268219716 637.6153957714054 7.736115896332611 0.7099939024527737 514.7936148893198 0.0
3383.6933641402247 665.1203727776096 7.811230910423875 0.7077036244832282 518.3310928584808 0.0
3423.230360842559 693.0560245529166 7.887243951033167 0.7054616583419762 521.8894715714698 0.0
3463.560771441616 721.4619901471584 7.964257473784879 0.7032192364196064 525.4730848306887 0.0
3504.700823259427 750.3458023043025 8.042284210372227 0.7009697524246015 529.0818842067226 0.0
3546.6415294134217 779.6972853045683 8.121289252023413 0.6987154906405149 532.7136335653959 0.0
3589.3749733809373 809.507154397696 8.201240715863417 0.6964582209308467 536.3662857953279 0.0
3632.96491359017 839.8159801485924 8.282240197434595 0.6941958303780993 540.0438741161018 0.0
3677.428858411887 870.6318148007746 8.36430152240527 0.6919156477736728 543.7463790946406 0.0
3722.756065848758 901.9419020980455 8.447379818575703 0.689629163580145 547.4708712870953 0.0
3768.9475231814604 933.7437869310476 8.531464105484362 0.6873592837338993 551.216467733508 0.0
3816.06171129771 966.0743152174415 8.616646547225464 0.6850947956034101 554.9868210458568 0.0
3864.1174408532393 998.9420690588173 8.702942024785772 0.6828282167904174 558.781937487146 0.0
3913.0864114894557 1032.3234484052587 8.790281211419197 0.6805623498207574 562.5981454122898 0.0
3962.991134247799 1066.229662340532 8.878686492950072 0.6782978099294397 566.4358348263322 0.0
4013.891886726154 1100.6973258381477 8.96824596477045 0.6760331984325312 570.2982070044372 0.0
4065.80892491539 1135.7356007504484 9.058975603657293 0.6737686944891639 574.1852909518561 0.0
4118.701806772049 1171.312760400903 9.15078587094561 0.6715074468291871 578.0926279967849 0.0
4172.612881744332 1207.4529521339316 9.243732056242033 0.6692492414043745 582.021979385741 0.0
4227.5989823160135 1244.1896858838081 9.337892767365476 0.6669929982479541 585.9760320290837 0.0
4283.681897438173 1281.5327344032303 9.43328508369292 0.6647273896790793 589.9548350790684 0.0
4340.815152656219 1319.44518588091 9.529803914635378 0.6624564844077927 593.9531011119569 0.0
4399.064003806972 1357.9658290406064 9.62754105046317 0.6601982294073032 597.9740527294582 0.0
4458.4755930595475 1397.121785259252 9.726559530166423 0.6579511781094016 602.019805726412 0.0
4519.073411963803 1436.9234974054568 9.826877590429156 0.6557083873746485 606.0904271513187 0.0
4580.786761502298 1477.3197468452163 9.92835868385048 0.653473453591495 610.1797613821134 0.0
4643.708606125741 1518.3665904372526 10.031136226962918 0.6512441006294605 614.2925763096104 0.0
4707.884903885865 1560.0888689474466 10.13526426217384 0.6490201791282928 618.4303648993331 0.0
4773.340869222767 1602.4977028316584 10.240762155861008 0.6467893765454047 622.5932101621104 0.0
4839.998111309408 1645.535598380579 10.347475268389502 0.6445383408482659 626.7740504200112 0.0
4907.9957312299575 1689.284887837826 10.45559456972515 0.6423030116879822 630.9792782513232 0.0
4977.34959416025 1733.753879512998 10.565140408938936 0.6401019942651818 635.2097160524316 0.0
5048.086826158463 1778.9544373028891 10.676133348053341 0.6378829229572673 639.4654611461091 0.0
