e[MeV/fm^3], P[MeV/fm^3], rho[fm^-3], v2[1], mu_q[MeV], mu_e[MeV]
70.21755168181654 0.006206087273093519 0.07407856508846018 0.017597877650005332 316.5185077347417 89.2771661002368
71.43578994790998 0.027644495228360377 0.07535555647246353 0.0175978776500052 316.5894798429086 89.8124074562691
72.67502861766434 0.04945246571785267 0.07665456106626496 0.017597877650005228 316.6616753923034 90.35687548400062
73.93562970314778 0.07163636938565421 0.07797595834102777 0.01759787765000538 316.7351154730202 90.91072923592193
75.21796145691394 0.09420268669514797 0.07932013430936638 0.01759787765000533 316.8098215387112 91.47413050632369
76.5223984795798 0.11715800982215896 0.0806874816381126 0.01759787765000522 316.8858154128541 92.04724387856187
77.84932182925448 0.14050904458066893 0.08207839976302188 0.017597877650005325 316.96311929512683 92.630236773136
79.19911913285509 0.16426261238173973 0.08349329500545777 0.017597877650005436 317.0417557678931 93.22327949659658
80.57218469934486 0.18842565222626206 0.08493258069109116 0.017597877650005332 317.12174780279906 93.82654529129692
81.96891963491473 0.21300522273190858 0.08639667727063695 0.017597877650005284 317.20311876748366 94.44021038599915
83.38973196016327 0.23800850419525207 0.0878860124426853 0.017597877650005242 317.2858924324053 95.06445404735784
84.83503672928572 0.26344280068923775 0.08940102127863886 0.01759787765000527 317.37009297778565 95.69945863228664
86.3052561513196 0.28931554219685157 0.0909421463498059 0.01759787765000538 317.45574500067295 96.34540964122833
87.80081971348744 0.3156342867816875 0.09250983785669148 0.017597877650005325 317.54287352212793 97.00249577234631
89.32216430665855 0.3424067227958098 0.09410455376051008 0.01759787765000531 317.63150399453286 97.67090897664707
90.86973435297011 0.3696406711256137 0.09572675991696154 0.017597877650005242 317.7216623090265 98.3508445140514
92.44398193566516 0.39734408747669764 0.0973769302123309 0.017597877650005228 317.8133748030682 99.04250101043964
94.04536693114535 0.4255250646977123 0.09905554670190979 0.01759787765000531 317.90666826813106 99.74608051566989
95.67435714332068 0.45419183514462985 0.10076309975082554 0.017892055534992374 318.00156995752883 100.46178856260559
97.33169327479138 0.4843410207312542 0.10250008817728433 0.018775745774211428 318.10048622561175 101.18570399772256
99.01814146064449 0.5170082040359527 0.10426701939828847 0.020025246310001077 318.2058447860128 101.91428658825437
100.73429318912723 0.5525181669555139 0.1060644095778678 0.02129999675038627 318.31828524079526 102.64750316311726
102.48063871606901 0.5907964457966746 0.10789278377786223 0.022549781036994038 318.43751805132047 103.38670836290729
104.25774423592242 0.6320103592916358 0.10975267611130558 0.023887708108000116 318.5638120290785 104.13237516689382
106.06623539667063 0.676492214395437 0.11164462989845152 0.025339806313660923 318.697770868173 104.88465247088972
107.90674784282342 0.7245234535359056 0.11356919782549418 0.026726883379044414 318.8398212612412 105.64215664334085
109.77980899298537 0.7757858510810522 0.11552694210601787 0.028008654354195556 318.9889635986241 106.39548846211913
111.68603200563659 0.8304189676497289 0.11751843464523576 0.02941848660514751 319.1453310518051 107.14305877628786
113.62612253642692 0.8889903796251314 0.1195442572070575 0.0310000273545607 319.31003653378224 107.89037199216354
115.60075117782822 0.9518318179215621 0.1216050015840337 0.03259969837934959 319.4836179784206 108.6399435927219
117.61049319554543 1.0189345897359714 0.12370126977023699 0.03419210470702347 319.6659546827271 109.3941654142798
119.65602415051524 1.0905481505064962 0.12583367413711752 0.03592218882239359 319.8573917239201 110.15411877028433
121.73815641876267 1.1672766767204164 0.12800283761239192 0.03778190969818496 320.0588603075681 110.92020174565145
123.85759205422588 1.2493614886182018 0.1302093938620144 0.0396255479711905 320.27062777688235 111.69348487044105
126.01496433860267 1.3368161240061027 0.13245398747528928 0.041461386350795104 320.4925793312381 112.47517112638602
128.2110155783424 1.429932568241939 0.13473727415316794 0.04346252473119688 320.7250671173629 113.26594974297757
130.4466887956552 1.52951487508801 0.1370599208997976 0.045590760196347446 320.969220213987 114.06610244230104
132.72270298041246 1.6357091714792171 0.13942260621736857 0.04767926014436641 321.22510082538804 114.87651716166351
135.03976205186157 1.748593799706529 0.14182602030432198 0.04977029748745049 321.49267975935425 115.69799950047124
137.3986835249372 1.8685229353243933 0.14427086525697244 0.05206400529136951 321.77234677231564 116.53110782929468
139.80057355445675 1.9965668028217445 0.14675785527460983 0.05448295484632937 322.0654823434704 117.37614392238619
142.24614757531495 2.1327305435734982 0.1492877168681315 0.05683638595368079 322.37191652081754 118.23384218287305
144.73619757503982 2.2771938463603174 0.15186118907227755 0.059208520968313694 322.69174413674494 119.10477732777403
147.27162660197732 2.430390920319256 0.15447902366151722 0.0618292055008095 323.0254080857181 119.98940983187808
149.85374556019306 2.5937403356179334 0.15714198536966398 0.06457197399617759 323.3745941649684 120.88804723823948
152.4832372283129 2.7670401807274834 0.15985085211327107 0.06721882453614525 323.7388555425644 121.80124809303793
155.16100474728017 2.9506159576823916 0.1626064152188807 0.06990575565196155 324.1184454344821 122.72942464238325
157.8880490867394 3.1450019316856195 0.16540947965419006 0.07289593855263288 324.5138717435153 123.67293532678868
160.66593902373984 3.3520690822739376 0.16826086426320178 0.07600220080988451 324.92718571735776 124.63202719571277
163.4952840125817 3.5713158744339593 0.17116140200542868 0.07897532922519734 325.3576004812541 125.6070903482084
166.37712853614147 3.8032695276021222 0.17411194019922174 0.08202037368123771 325.8055622707938 126.59840218489457
169.31260061973967 4.048620249866702 0.17711334076929286 0.08542133552471287 326.2716886567447 127.60620334892384
172.303551331823 4.309718566586897 0.18016648049850292 0.0889270452590527 326.7583492276527 128.63058410314463
175.35050383107742 4.585737524453315 0.1832722512839939 0.09226446929582366 327.26444376458807 129.67181814230588
178.45466868853612 4.877441713994387 0.18643156039773165 0.09572802473872655 327.7906096931573 130.73004905217363
181.61738960046912 5.18586172672753 0.18964533075154347 0.09956214286511778 328.3377308078966 131.80536363429957
184.84067158507494 5.5134958934314255 0.19291450116672415 0.10348029397253222 328.90808973361146 132.89762523650757
188.12508868773136 5.859506730761704 0.19624002664828616 0.10723125726635341 329.50063467169656 134.00704679883177
191.47199658539387 6.224818666062787 0.19962287866394354 0.11114950466071183 330.116072530961 135.1336328978941
194.88301649425165 6.610906017540677 0.2030640454278977 0.11544544815415358 330.7555888744374 136.2772622126371
198.3602890613904 7.020342674256472 0.2065645321895225 0.11979382346787826 331.42129567013734 137.43754067535426
201.9044613376726 7.452308308070558 0.2101253615270204 0.12397650239191993 332.11220306471756 138.61467605675114
205.5170562570145 7.907903230714149 0.21374757364614289 0.1283699626450635 332.8290718474655 139.80852765902867
209.2000509218192 8.389163756231573 0.21743222668406043 0.1331367755092301 333.57341318817043 141.01869117551004
212.95568685700158 8.89862029273525 0.22118039701847075 0.13816563254962722 334.34705688852574 142.2445530860434
232.60681903974427 11.849402496096985 0.2404297545033126 0.002566363767748284 335.149090910276 184.1387105077003
442.64251692403207 12.388430501080947 0.9600676994803237 0.0025663637677482832 335.9803024130194 129.5375897625198
1571.710271644713 15.286029078129003 4.584558829112423 0.00686725561240311 336.84253077264475 72.8990150815359
2080.6875356810724 19.768120006770708 6.2174053779751315 0.4683606058989156 337.73719306437926 35.06742044421539
2092.7625786597278 25.5552429908974 6.254259255396584 0.5220187558246137 338.6634726746745 12.169802369886021
2103.5009699104867 31.569187989794457 6.286549935505655 0.62465794444365 339.6221443059857 0.0
2112.702519707393 37.826487406516236 6.313603713348461 0.6795211413692868 340.61534675451054 0.0
2122.2899140449053 44.336274450238875 6.341705139391307 0.6785730040188294 341.6439533067965 0.0
2132.2510675595477 51.09128310720727 6.37082703222695 0.6774697548024724 342.70726027181 0.0
2142.6265928084663 58.11319628657946 6.401037489930038 0.6765200186380649 343.8059831368225 0.0
2153.3921884513093 65.39347063800184 6.432334646264312 0.6753403289556164 344.9424917462097 0.0
2164.6412845978098 72.97970237433496 6.464855320404061 0.6740389245828236 346.11701155796936 0.0
2176.2974250939105 80.83220413943984 6.498481786076353 0.673111181681703 347.328966229596 0.0
2188.4023823244634 88.97304306938402 6.533282217142288 0.6717711239212454 348.57896372915343 0.0
2201.0139160475164 97.43525332605543 6.569373541645352 0.6705136413092512 349.86949367684684 0.0
2214.0921656386495 106.19794055570928 6.606692227899531 0.6694351589972101 351.2000887836266 0.0
2227.655924938197 115.26977246885085 6.645258659041955 0.6679896730045671 352.5703075794808 0.0
2241.759817034802 124.67872151236323 6.685156331979545 0.6665391112710619 353.98060905644974 0.0
2256.3917971762453 134.42273321495753 6.726402557818888 0.6653218141013895 355.4334521442952 0.0
2271.554890844203 144.50136617559917 6.7689855764919 0.6640290529774928 356.9277197298895 0.0
2287.260196925935 154.9195269152734 6.81291635169737 0.6624756321839458 358.4631014669581 0.0
2303.5635634131168 165.70526244223916 6.858276917295279 0.6608696114358619 360.03988091456415 0.0
2320.461959487094 176.86072026623748 6.905094493887233 0.6594302617207655 361.66030746350987 0.0
2337.9526970129746 188.3816315150706 6.953341734840284 0.6579421931841285 363.3227610243933 0.0
2356.048980403265 200.27400592985893 7.00303374900716 0.6564048083493077 365.0270429856405 0.0
2374.767402188566 212.5460097458397 7.054194564651298 0.6548223020673509 366.7732551876847 0.0
2394.1438936110667 225.21834836830928 7.106900115151149 0.6531973517999017 368.5632457970251 0.0
2414.1744274964312 238.285498894122 7.161117056476533 0.6515359260529037 370.39513942729127 0.0
2434.873849544037 251.75425495681165 7.216863350873953 0.6498416649511753 372.26881070045994 0.0
2456.258578057613 265.63236153136324 7.274160794337623 0.6481177638327695 374.18425749083553 0.0
2478.3574604162154 279.9355139901636 7.3330637319525245 0.6463666333794844 376.1425479489815 0.0
2501.1692466001236 294.65986222356344 7.393545936768411 0.64459278602504 378.1420680020603 0.0
2524.708891177394 309.81201293813416 7.455624293479884 0.6427987490299101 380.18264288681297 0.0
2548.992435627337 325.399206685197 7.519318195378581 0.640987003509295 382.2641765278808 0.0
2574.039373106146 341.43082127306377 7.584655631599719 0.6391596427632695 384.38684656688184 0.0
2599.8548704489026 357.9070126927243 7.651626967033926 0.6373195322775498 386.54960838431725 0.0
2626.4530670500108 374.83364739055867 7.720245869746501 0.6354686345986309 388.75217980057613 0.0
2653.8481784096366 392.21658753699506 7.790525940529842 0.6335772373173141 390.99427615507426 0.0
2682.063894905277 410.0658198207472 7.862490703588876 0.631574677729696 393.27543963785325 0.0
2711.1394754231274 428.3985316965144 7.936183440891657 0.6295839271352053 395.59516773161965 0.0
2741.0551112676453 447.20414741641537 8.011570738431663 0.6276851550910161 397.95311125729603 0.0
2771.8216274136785 466.486201362665 8.088656750314737 0.6257849950878844 400.3486982341418 0.0
2803.4469056684475 486.24636430039345 8.167438234974133 0.6237326724859775 402.78113502043635 0.0
2836.014228490594 506.52314143146873 8.248022526746533 0.6216492204160922 405.2503908250171 0.0
2869.4845449019795 527.2968499979828 8.3303502812875 0.6197165991726079 407.7560864453435 0.0
2903.856367752529 548.5643161841878 8.414402944702266 0.6176903746681033 410.2972643916196 0.0
2939.1911781696463 570.3519026539562 8.500245902329457 0.6155828618169386 412.8731075256692 0.0
2975.4992232602303 592.6644151621589 8.587895245334957 0.613589337444453 415.48395412590855 0.0
3012.7587906805647 615.4903848125862 8.67731465123131 0.6115125634353085 418.12942481666244 0.0
3051.0551395751686 638.865478182964 8.768589025576212 0.6093917762572287 420.80808286670407 0.0
3090.3386655719646 662.7649584420378 8.861643357278165 0.6073726824776813 423.519388423576 0.0
3130.65656447113 687.2110888301113 8.956544615257846 0.605252982478353 426.263926491692 0.0
3172.0677439395413 712.2293301598482 9.053359266910483 0.6031884478735652 429.04133904117657 0.0
3214.4932950132306 737.778477571475 9.151952228035176 0.6010735925183219 431.84962364736657 0.0
3258.0680007510687 763.9191631996072 9.252490904277602 0.5989753403319078 434.68879187402194 0.0
3302.701961991798 790.611300375062 9.354870072640464 0.5968699498610164 437.55954505588323 0.0
3348.558078305831 817.927114155592 9.459285338760228 0.5947522243769825 440.4615602408136 0.0
3395.4789962139253 845.7886377277132 9.565493630890614 0.5926539118559351 443.39219174670734 0.0
3443.6463186067676 874.2786431407804 9.673730218113175 0.5905219126545038 446.35224304333093 0.0
3492.972649347043 903.3585287843886 9.78389423238241 0.5884381081893668 449.3424024244641 0.0
3543.5860478971977 933.0841128058281 9.896135118046946 0.5862994604695189 452.3623894048231 0.0
3595.390152004319 963.4034286619581 10.010274526264821 0.584231235264923 455.4088468583903 0.0
3648.4687266536585 994.3571730478127 10.126440961340691 0.5820958709990034 458.48357591050296 0.0
3702.8912996709587 1025.9764835496478 10.2447235672247 0.5800158579253587 461.5871295346198 0.0
3758.612465766148 1058.2397117612409 10.36505908867595 0.5779123702208793 464.7192724425523 0.0
3815.6900974045852 1091.1612843584064 10.487442504330595 0.575773961863927 467.87587687666405 0.0
3874.137708733988 1124.753332681975 10.611935574025157 0.573748614335285 471.0599151315838 0.0
3933.9750342202665 1159.0243210517674 10.73856270378777 0.5716328484991386 474.2716930347005 0.0
3995.339167631059 1194.032656403574 10.867478183994805 0.5695024108800819 477.5110201023164 0.0
4058.0753826043006 1229.6969960977679 10.998407204841484 0.5674888201720538 480.77294680996494 0.0
4122.2954769109765 1266.0759635092609 11.131551536766462 0.5654144230649898 484.06176219100337 0.0
4188.104346693012 1303.2138416215084 11.26702775659765 0.5633061183524894 487.37742484726095 0.0
4255.496505824303 1341.1056388779268 11.404814251324622 0.561266560388086 490.71942709513365 0.0
4324.381495804718 1379.6986547287318 11.544715867020978 0.5592626447853348 494.0830324628434 0.0
4394.8932006620435 1419.061743319607 11.686964983501955 0.5571992776137247 497.47289006040484 0.0
4467.1397314017295 1459.2397535074924 11.831677290349134 0.5551240038004561 500.8888825459008 0.0
4541.086675412428 1500.2138104451435 11.978788033438395 0.5531164894492715 504.3299917615031 0.0
4616.6720825508155 1541.9453015613583 12.128147267765 0.5511291841961388 507.7922253856572 0.0
4694.03622623425 1584.50523980836 12.279991050135928 0.5491454255485628 511.2801267663313 0.0
4773.221855805492 1627.9102833812876 12.43435936550601 0.5471230023857832 514.7936148893198 0.0
4854.2946712191215 1672.1824259004698 12.591288696528927 0.545102019848061 518.3310928584808 0.0
4937.173953157067 1717.2773345933203 12.750623215167474 0.543137106287519 521.8894715714698 0.0
5021.996223439351 1763.2635622277257 12.912589126521658 0.5411847807205863 525.4730848306887 0.0
5108.807696855303 1810.1590273659501 13.07722906269922 0.5392391806822374 529.0818842067226 0.0
5197.601401488692 1857.9529062285171 13.244484744020072 0.5373022551839401 532.7136335653959 0.0
5288.372192193569 1906.6356163453872 13.41430306202258 0.5353754740827181 536.3662857953279 0.0
5381.267614857953 1956.279207161632 13.586914857821052 0.5334569777042262 540.0438741161018 0.0
5476.3377667278355 2006.9030008833226 13.76236560673297 0.5315361581955322 543.7463790946406 0.0
5573.576153338841 2058.493970561842 13.940581756915327 0.529622567023635 547.4708712870953 0.0
5672.9946268446565 2111.0527710048186 14.121549423123215 0.5277353126582103 551.216467733508 0.0
5774.729658307285 2164.645433447304 14.30547817078212 0.5258648043166563 554.9868210458568 0.0
5878.835286226456 2219.2927072167886 14.492416274089788 0.5240046694195151 558.781937487146 0.0
5985.263368126604 2274.9617747553025 14.682228963749772 0.5221571012107358 562.5981454122898 0.0
6094.075661709493 2331.677608094615 14.874979443477251 0.5203224765838979 566.4358348263322 0.0
6205.417056883694 2389.5080622705377 15.070875202915003 0.5184995402115788 570.2982070044372 0.0
6319.345992038648 2448.475469223896 15.269967519903204 0.5166883188401883 574.1852909518561 0.0
6435.787472141958 2508.5332315907863 15.472075321872182 0.5148911941636811 578.0926279967849 0.0
6554.848187059006 2569.728786598285 15.677334965960194 0.5131078459767515 582.021979385741 0.0
6676.667886091167 2632.1259594859557 15.885935791919447 0.5113372765877102 585.9760320290837 0.0
6801.309686591094 2695.7487601280664 16.097932167534914 0.509570598221929 589.9548350790684 0.0
6928.688811075988 2760.5435726422406 16.31311291323721 0.5078108674049755 593.9531011119569 0.0
7058.964753598406 2826.5837289257274 16.53169701526458 0.5060718722784365 597.9740527294582 0.0
7192.255530756677 2893.922071212123 16.753837278220978 0.5043522881959337 602.019805726412 0.0
7328.629482615738 2962.5844717171094 16.979591393537724 0.5026465516226839 606.0904271513187 0.0
7467.942341727369 3032.49010769828 17.208667293708142 0.5009572201438797 610.1797613821134 0.0
7610.418848676486 3103.7435676455266 17.441381196951582 0.4992823874481953 614.2925763096104 0.0
7756.179016431307 3176.396126688906 17.677872038826116 0.49762177023795573 618.4303648993331 0.0
7905.296471545902 3250.4755414798315 17.918200792325297 0.4959661457364106 622.5932101621104 0.0
8057.613430265946 3325.892090711735 18.162038928850485 0.4943056614453436 626.7740504200112 0.0
8213.470955571045 3402.8020354444147 18.409849764827385 0.4926665570794242 630.9792782513232 0.0
8372.9113119582 3481.223038845545 18.66167918031889 0.491062366919234 635.2097160524316 0.0
8536.014017505106 3561.184947164706 18.917591685337133 0.4894475277638435 639.4654611461091 0.0
