e[MeV/fm^3], P[MeV/fm^3], rho[fm^-3], v2[1], mu_q[MeV], mu_e[MeV]
70.21755168181654 0.006206087273093519 0.07407856508846018 0.017597877650005332 316.5185077347417 89.2771661002368
71.43578994790998 0.027644495228360377 0.07535555647246353 0.0175978776500052 316.5894798429086 89.8124074562691
72.67502861766434 0.04945246571785267 0.07665456106626496 0.017597877650005228 316.6616753923034 90.35687548400062
73.93562970314778 0.07163636938565421 0.07797595834102777 0.01759787765000538 316.7351154730202 90.91072923592193
75.21796145691394 0.09420268669514797 0.07932013430936638 0.01759787765000533 316.8098215387112 91.47413050632369
76.5223984795798 0.11715800982215896 0.0806874816381126 0.01759787765000522 316.8858154128541 92.04724387856187
77.84932182925448 0.14050904458066893 0.08207839976302188 0.017597877650005325 316.96311929512683 92.630236773136
79.19911913285509 0.16426261238173973 0.08349329500545777 0.017597877650005436 317.0417557678931 93.22327949659658
80.57218469934486 0.18842565222626206 0.08493258069109116 0.017597877650005332 317.12174780279906 93.82654529129692
81.96891963491473 0.21300522273190858 0.08639667727063695 0.017597877650005284 317.20311876748366 94.44021038599915
83.38973196016327 0.23800850419525207 0.0878860124426853 0.017597877650005242 317.2858924324053 95.06445404735784
84.83503672928572 0.26344280068923775 0.08940102127863886 0.01759787765000527 317.37009297778565 95.69945863228664
86.3052561513196 0.28931554219685157 0.0909421463498059 0.01759787765000538 317.45574500067295 96.34540964122833
87.80081971348744 0.3156342867816875 0.09250983785669148 0.017597877650005325 317.54287352212793 97.00249577234631
89.32216430665855 0.3424067227958098 0.09410455376051008 0.01759787765000531 317.63150399453286 97.67090897664707
90.86973435297011 0.3696406711256137 0.09572675991696154 0.017597877650005242 317.7216623090265 98.3508445140514
92.44398193566516 0.39734408747669764 0.0973769302123309 0.017597877650005228 317.8133748030682 99.04250101043964
94.04536693114535 0.4255250646977123 0.09905554670190979 0.01759787765000531 317.90666826813106 99.74608051566989
95.67435714332068 0.45419183514462985 0.10076309975082554 0.017892055534992374 318.00156995752883 100.46178856260559
97.33169327479138 0.4843410207312542 0.10250008817728433 0.018775745774211428 318.10048622561175 101.18570399772256
99.01814146064449 0.5170082040359527 0.10426701939828847 0.020025246310001077 318.2058447860128 101.91428658825437
100.73429318912723 0.5525181669555139 0.1060644095778678 0.02129999675038627 318.31828524079526 102.64750316311726
102.48063871606901 0.5907964457966746 0.10789278377786223 0.022549781036994038 318.43751805132047 103.38670836290729
104.25774423592242 0.6320103592916358 0.10975267611130558 0.023887708108000116 318.5638120290785 104.13237516689382
106.06623539667063 0.676492214395437 0.11164462989845152 0.025339806313660923 318.697770868173 104.88465247088972
107.90674784282342 0.7245234535359056 0.11356919782549418 0.026726883379044414 318.8398212612412 105.64215664334085
109.77980899298537 0.7757858510810522 0.11552694210601787 0.028008654354195556 318.9889635986241 106.39548846211913
111.68603200563659 0.8304189676497289 0.11751843464523576 0.02941848660514751 319.1453310518051 107.14305877628786
113.62612253642692 0.8889903796251314 0.1195442572070575 0.0310000273545607 319.31003653378224 107.89037199216354
115.60075117782822 0.9518318179215621 0.1216050015840337 0.03259969837934959 319.4836179784206 108.6399435927219
117.61049319554543 1.0189345897359714 0.12370126977023699 0.03419210470702347 319.6659546827271 109.3941654142798
119.65602415051524 1.0905481505064962 0.12583367413711752 0.03592218882239359 319.8573917239201 110.15411877028433
121.73815641876267 1.1672766767204164 0.12800283761239192 0.03778190969818496 320.0588603075681 110.92020174565145
123.85759205422588 1.2493614886182018 0.1302093938620144 0.0396255479711905 320.27062777688235 111.69348487044105
126.01496433860267 1.3368161240061027 0.13245398747528928 0.041461386350795104 320.4925793312381 112.47517112638602
128.2110155783424 1.429932568241939 0.13473727415316794 0.04346252473119688 320.7250671173629 113.26594974297757
130.4466887956552 1.52951487508801 0.1370599208997976 0.045590760196347446 320.969220213987 114.06610244230104
132.72270298041246 1.6357091714792171 0.13942260621736857 0.04767926014436641 321.22510082538804 114.87651716166351
135.03976205186157 1.748593799706529 0.14182602030432198 0.04977029748745049 321.49267975935425 115.69799950047124
137.3986835249372 1.8685229353243933 0.14427086525697244 0.05206400529136951 321.77234677231564 116.53110782929468
139.80057355445675 1.9965668028217445 0.14675785527460983 0.05448295484632937 322.0654823434704 117.37614392238619
142.24614757531495 2.1327305435734982 0.1492877168681315 0.05683638595368079 322.37191652081754 118.23384218287305
144.73619757503982 2.2771938463603174 0.15186118907227755 0.059208520968313694 322.69174413674494 119.10477732777403
147.27162660197732 2.430390920319256 0.15447902366151722 0.0618292055008095 323.0254080857181 119.98940983187808
149.85374556019306 2.5937403356179334 0.15714198536966398 0.06457197399617759 323.3745941649684 120.88804723823948
152.4832372283129 2.7670401807274834 0.15985085211327107 0.06721882453614525 323.7388555425644 121.80124809303793
155.16100474728017 2.9506159576823916 0.1626064152188807 0.06990575565196155 324.1184454344821 122.72942464238325
157.8880490867394 3.1450019316856195 0.16540947965419006 0.07289593855263288 324.5138717435153 123.67293532678868
160.66593902373984 3.3520690822739376 0.16826086426320178 0.07600220080988451 324.92718571735776 124.63202719571277
163.4952840125817 3.5713158744339593 0.17116140200542868 0.07897532922519734 325.3576004812541 125.6070903482084
166.37712853614147 3.8032695276021222 0.17411194019922174 0.08202037368123771 325.8055622707938 126.59840218489457
169.31260061973967 4.048620249866702 0.17711334076929286 0.08542133552471287 326.2716886567447 127.60620334892384
172.303551331823 4.309718566586897 0.18016648049850292 0.0889270452590527 326.7583492276527 128.63058410314463
175.35050383107742 4.585737524453315 0.1832722512839939 0.09226446929582366 327.26444376458807 129.67181814230588
178.45466868853612 4.877441713994387 0.18643156039773165 0.09572802473872655 327.7906096931573 130.73004905217363
181.61738960046912 5.18586172672753 0.18964533075154347 0.09956214286511778 328.3377308078966 131.80536363429957
184.84067158507494 5.5134958934314255 0.19291450116672415 0.10348029397253222 328.90808973361146 132.89762523650757
188.12508868773136 5.859506730761704 0.19624002664828616 0.10723125726635341 329.50063467169656 134.00704679883177
191.47199658539387 6.224818666062787 0.19962287866394354 0.11114950466071183 330.116072530961 135.1336328978941
194.88301649425165 6.610906017540677 0.2030640454278977 0.11544544815415358 330.7555888744374 136.2772622126371
198.3602890613904 7.020342674256472 0.2065645321895225 0.12004754171675414 331.42129567013734 137.43754067535426
199.61216584611745 7.170953393980063 0.20775496394604648 0.03430651431650067 332.11220306471756 135.74179266713438
221.11628204211343 7.958094359672399 0.284026926454119 0.038901885277145665 332.8290718474655 132.71078586858854
233.91282679170075 8.473400706002016 0.32922378625364934 0.046619063097420366 333.57341318817043 129.6870388209855
245.1707721090582 9.061126985216275 0.3697760235805423 0.052205465797395934 334.34705688852574 126.87818073428437
256.8418490600862 9.670420993801944 0.4118164020898254 0.060391568099673054 335.149090910276 123.96624627819297
266.9408550521413 10.35185161124652 0.4487364090816195 0.06954082521164195 335.9803024130194 121.28190527413305
276.97028657015005 11.069882683832335 0.4855473097323292 0.07754505538682255 336.84253077264475 118.57196902656891
286.29640516771775 11.84469924153578 0.5199654955449525 0.08849760541865126 337.73719306437926 115.96004865396236
295.1123659440291 12.670037064850387 0.552664522447621 0.09895199393855303 338.6634726746745 113.41121114434428
303.53646665701973 13.546550701993766 0.5839412730503235 0.1107686382285904 339.6221443059857 110.92025162545875
311.49827746152283 14.479039199478633 0.6135385585008829 0.12339516898464287 340.61534675451054 108.50034706618985
319.1304142757221 15.466716743125822 0.6417750918301398 0.13551400989562268 341.6439533067965 106.1482423268403
326.48626990978187 16.506810551604087 0.6688623676360568 0.14949715333413072 342.70726027181 103.85082710284715
333.4954080989169 17.60875768080639 0.6945609250995507 0.1606666942476611 343.8059831368225 101.65180845405345
340.5073815940247 18.759555788340784 0.7202209993319921 0.174992339549761 344.9424917462097 99.44758185911355
347.12697524488976 19.985883298038882 0.7442915224943397 0.18879958461138435 346.11701155796936 97.3741930226628
353.77434262085455 21.26454970143833 0.7683849892058794 0.19873346732150066 347.328966229596 95.30239519956648
360.3176748088023 22.60600034845482 0.7919641635401147 0.21244857219380542 348.57896372915343 93.28116050663498
366.75078565625597 24.01975059922584 0.8149406461634388 0.22418549732299842 349.86949367684684 91.32949105895703
373.2060132907955 25.495574945196545 0.8378552372503176 0.2340291925405278 351.2000887836266 89.39779069324321
379.6485759536646 27.038073286357303 0.8605412700544393 0.2462862135146895 352.5703075794808 87.50613099945718
386.0481129328982 28.657818431596738 0.8828053516975233 0.25732537872992367 353.98060905644974 85.68497827181805
392.51125850679693 30.348507711868116 0.9051002839213601 0.26592858295447197 355.4334521442952 83.88848330752779
399.0332085331757 32.11143917221762 0.9273890921911405 0.2745883127417845 356.9277197298895 82.12350850462211
405.62023193663583 33.948638532014186 0.9496762380085803 0.2840026010486878 358.4631014669581 80.39344743792337
412.2661561369873 35.87023308250694 0.9718655827530036 0.29268690838958245 360.03988091456415 78.71943685242621
419.0253460591966 37.87295054837106 0.994201266927543 0.29966815007599124 361.66030746350987 77.07379312663134
425.90130001841993 39.95704584006089 1.016684396313825 0.3062760728209333 363.3227610243933 75.45882065892955
432.9046883526084 42.12467821992297 1.0393400909581614 0.31246700856402 365.0270429856405 73.87495812604303
440.0484012973101 44.378385899970866 1.0622021437202995 0.3182048032153104 366.7732551876847 72.32168138225607
447.3528893100538 46.72305076746597 1.085329114967407 0.32348228636876675 368.5632457970251 70.79656416679349
454.8235658328184 49.1587278336467 1.1087326286511185 0.3282973883752054 370.39513942729127 69.30002701390337
462.47295220390953 51.68774742963559 1.1324477634747097 0.33266678118909576 372.26881070045994 67.83064554063901
470.3139103403062 54.312645952335394 1.1565110514432426 0.3366142202079567 374.18425749083553 66.38671899009752
478.36351233910943 57.03751677397802 1.180971939249081 0.34016835588584815 376.1425479489815 64.9656761613643
486.62757614852404 59.86275960967725 1.205845898534894 0.3433549626471839 378.1420680020603 63.56679522267713
495.11755821810726 62.790781295607495 1.2311658824118863 0.34620420674799535 380.18264288681297 62.188207607902456
503.8450085077423 65.8241450202671 1.2569651987033181 0.34874528574361063 382.2641765278808 60.82796387801296
512.8224317381098 68.96587056622089 1.2832799682231215 0.35100642847238284 384.38684656688184 59.483938239192995
522.0569472786545 72.21719914915603 1.3101306357534093 0.3530131700495671 386.54960838431725 58.15477114444211
531.5586644070052 75.58051099037101 1.3375466066747237 0.354790304408267 388.75217980057613 56.838611234484304
541.3375034990095 79.0582154877568 1.3655568449297262 0.3563822948003055 390.99427615507426 55.533628973980015
551.4066461741601 82.65442017955586 1.3941933236771495 0.3578473384116858 393.27543963785325 54.23910469749247
561.7854019614887 86.37587932920965 1.4234984546402714 0.3591146353367147 395.59516773161965 52.955218394907114
572.4711876836856 90.21934778860432 1.453486013941644 0.36016150440250483 397.95311125729603 51.677065662999965
583.4720296932168 94.18687537094311 1.4841807565434701 0.36107671726877033 400.3486982341418 50.40307687977708
594.794760251626 98.28014443037995 1.5156045636422326 0.36192617999104737 402.78113502043635 49.131838703252996
606.4765688770499 102.51312470745232 1.5478394516408094 0.3626703810070868 405.2503908250171 47.864483104660906
618.5052331954938 106.87945160256743 1.5808786101520134 0.36325966379851593 407.7560864453435 46.5964345293568
630.8835108918752 111.37937107548765 1.614737837551201 0.36378718592260295 410.2972643916196 45.32615040494852
643.640828209136 116.02365418421071 1.649489977554062 0.3642559956538136 412.8731075256692 44.05384589480785
656.7839287827663 120.81391604581465 1.6851685232027176 0.36463320431475754 415.48395412590855 42.77689754246731
670.305959168717 125.746772032671 1.7217750301251307 0.36496367804908836 418.12942481666244 41.49291427642639
684.2478996544756 130.83740624602913 1.759420897780995 0.36525322651724945 420.80808286670407 40.20230780205154
698.5904189064378 136.0778615683245 1.7980839903055288 0.3654879185531952 423.519388423576 38.90256542825465
713.3554164258486 141.4759453531127 1.8378458242796814 0.3657027400124404 426.263926491692 37.591959878237695
728.5711134681061 147.04197769732968 1.8788135308794154 0.36589131632785943 429.04133904117657 36.269264469703266
744.2056036353805 152.7638312229588 1.920940414004282 0.3660716919781386 431.84962364736657 34.933487373198666
760.3204798425108 158.664614981916 1.9644593805621433 0.36625029016030286 434.68879187402194 33.58313205532064
776.8745651934843 164.72891938783235 2.009306339605681 0.3664440067805552 437.55954505588323 32.21638541730118
793.9416840165966 170.9850196280233 2.055824859559181 0.36666592111467455 440.4615602408136 30.831243237370636
811.4531267076736 177.40779605253067 2.103894215778022 0.3669423714027813 443.39219174670734 29.428128055455574
829.4873076271492 184.02839161126016 2.1540086225581088 0.3672993198180299 446.35224304333093 28.003780028507265
848.0006820112753 190.83186847928744 2.2061975643252203 0.36777927353686657 449.3424024244641 26.557267517133308
867.043614041163 197.8411336357068 2.261106045997212 0.3684562905708262 452.3623894048231 25.085451844296145
886.5669647202608 205.0422269878761 2.3190644687042634 0.36939895625587216 455.4088468583903 23.58854003625324
906.5887355074273 212.4496193261822 2.381000722761107 0.3708485152098824 458.48357591050296 22.06259107920626
927.1052607570027 220.0766770334228 2.448536411703111 0.37280110604187566 461.5871295346198 20.502857967765493
948.0763458556554 227.91721075080739 2.52237098278312 0.37018150222977386 464.7192724425523 18.906701556238964
970.0965108621322 235.9833023464506 2.5776630772195017 0.3647339014433735 467.87587687666405 17.27721134057678
992.9174510502846 244.26972041499332 2.6262966051023073 0.36292156211031745 471.0599151315838 15.629683519065543
1016.3775911928401 252.77946535595004 2.675963617340573 0.3625284098746917 474.2716930347005 13.964594205359534
1040.546894137764 261.5364534741858 2.726755792919165 0.36213580747987884 477.5110201023164 12.280983728726463
1065.3588261547716 270.5170863653172 2.7785508158664 0.3617682322085951 480.77294680996494 10.581260519722182
1090.8615730111605 279.7384538641331 2.8314345125798654 0.36139303693271874 484.06176219100337 8.862751464333158
1117.1089865953263 289.21894649869023 2.8854756628811975 0.3610150202018083 487.37742484726095 7.124668803375171
1144.1003967115312 298.95819393399375 2.9406660625430585 0.36065264578397915 490.71942709513365 5.3670310035199496
1171.8010458078497 308.9435308372181 2.9969280870575083 0.36029978873352864 494.0830324628434 3.5921569501933712
1200.2697217499003 319.1957200822227 3.0543627916070655 0.3599397822834671 497.47289006040484 1.7972827954951625
1229.562553924178 329.7338912208846 3.1130392574724395 0.3595807930870336 500.8888825459008 0.15154718038219006
1259.6653650330413 340.55297051035 3.172927836584226 0.35923657269225284 504.3299917615031 0.0
1290.5563883627058 351.64483941354115 3.233971255522991 0.35889861888147134 507.7922253856572 0.0
1322.2981374354779 363.0314999499233 3.296273056360107 0.3585639816939352 511.2801267663313 0.0
1354.9136802275195 374.7207552981867 3.3598572488584537 0.358225637413665 514.7936148893198 0.0
1388.4413755790836 386.72538985760036 3.424757328612851 0.3578901687414895 518.3310928584808 0.0
1422.8480479307752 399.0335106629023 3.4909056260249973 0.3575666542748559 521.8894715714698 0.0
1458.194991210043 411.66665531357944 3.558401512581238 0.357247730518667 525.4730848306887 0.0
1494.5072160935454 424.6332797349275 3.6272702987313505 0.35693236430428854 529.0818842067226 0.0
1531.7874947670264 437.93389816849583 3.6974948992712218 0.35662081407808977 532.7136335653959 0.0
1570.03915852783 451.5692418818102 3.7690598162518687 0.3563132555364632 536.3662857953279 0.0
1609.3300938578461 465.56303636242916 3.8420694207525816 0.35600933155126224 540.0438741161018 0.0
1649.6874946486946 479.92447063560945 3.9165504659343933 0.3557073372648043 543.7463790946406 0.0
1691.1163163197095 494.6546723950422 3.9924822063410326 0.35540870459639695 547.4708712870953 0.0
1733.6261497595121 509.7566801056727 4.069863234649252 0.35511635792438945 551.216467733508 0.0
1777.2802778944053 525.2525734002926 4.148788369793774 0.3548287190008983 554.9868210458568 0.0
1822.1081090847283 541.1522849704701 4.229285806871091 0.35454473145405885 558.781937487146 0.0
1868.0949961845179 557.4501264471496 4.311304630344213 0.3542646702472858 562.5981454122898 0.0
1915.2735339666006 574.1571721283623 4.394878850381828 0.35398853107295647 566.4358348263322 0.0
1963.712722278248 591.297359100307 4.4801055055367405 0.3537160654665126 570.2982070044372 0.0
2013.4444501583228 608.8814525676269 4.567014375118518 0.3534472201687606 574.1852909518561 0.0
2064.4422535818403 626.899594053539 4.655533440692685 0.35318228981009625 578.0926279967849 0.0
2116.758978421083 645.3699673591104 4.745729079433246 0.3529211676211146 582.021979385741 0.0
2170.4624841471696 664.3160180481113 4.837691624356608 0.35266365023412316 585.9760320290837 0.0
2225.587301888331 683.7493977320817 4.9314525092409776 0.352408411206663 589.9548350790684 0.0
2282.104273490813 703.6591691940808 5.026928406291687 0.35215584206426165 593.9531011119569 0.0
2340.090451991181 724.0719828436836 5.124222918014592 0.3519078722089617 597.9740527294582 0.0
2399.6039964981023 745.007871965146 5.223409346889004 0.35166425031486437 602.019805726412 0.0
2460.6823957965253 766.4794799054212 5.324520935019424 0.3514241218295906 606.0904271513187 0.0
2523.267635186371 788.4658986987953 5.427433634751026 0.35118779265703903 610.1797613821134 0.0
2587.4672748833023 811.0044030507795 5.532296179157284 0.35095494211020917 614.2925763096104 0.0
2653.3424413748326 834.1159075177538 5.639178495044598 0.35072548017941774 618.4303648993331 0.0
2720.933617732591 857.8140594140984 5.748115622954893 0.3504981024602376 622.5932101621104 0.0
2790.1784229881823 882.0762843473698 5.858969076376079 0.35027143840171693 626.7740504200112 0.0
2861.2420719274505 906.9596911400806 5.971961289989916 0.35004900951126316 630.9792782513232 0.0
2934.146409945042 932.4717343144885 6.087112848397981 0.34983261345113803 635.2097160524316 0.0
3008.9352655607113 958.6271823652105 6.204460752592618 0.34961512740296996 639.4654611461091 0.0
