e[MeV/fm^3], P[MeV/fm^3], rho[fm^-3], v2[1], mu_q[MeV], mu_e[MeV]
70.21755168181654 0.006206087273093519 0.07407856508846018 0.017597877650005332 316.5185077347417 89.2771661002368
71.43578994790998 0.027644495228360377 0.07535555647246353 0.0175978776500052 316.5894798429086 89.8124074562691
72.67502861766434 0.04945246571785267 0.07665456106626496 0.017597877650005228 316.6616753923034 90.35687548400062
73.93562970314778 0.07163636938565421 0.07797595834102777 0.01759787765000538 316.7351154730202 90.91072923592193
75.21796145691394 0.09420268669514797 0.07932013430936638 0.01759787765000533 316.8098215387112 91.47413050632369
76.5223984795798 0.11715800982215896 0.0806874816381126 0.01759787765000522 316.8858154128541 92.04724387856187
77.84932182925448 0.14050904458066893 0.08207839976302188 0.017597877650005325 316.96311929512683 92.630236773136
79.19911913285509 0.16426261238173973 0.08349329500545777 0.017597877650005436 317.0417557678931 93.22327949659658
80.57218469934486 0.18842565222626206 0.08493258069109116 0.017597877650005332 317.12174780279906 93.82654529129692
81.96891963491473 0.21300522273190858 0.08639667727063695 0.017597877650005284 317.20311876748366 94.44021038599915
83.38973196016327 0.23800850419525207 0.0878860124426853 0.017597877650005242 317.2858924324053 95.06445404735784
84.83503672928572 0.26344280068923775 0.08940102127863886 0.01759787765000527 317.37009297778565 95.69945863228664
86.3052561513196 0.28931554219685157 0.0909421463498059 0.01759787765000538 317.45574500067295 96.34540964122833
87.80081971348744 0.3156342867816875 0.09250983785669148 0.017597877650005325 317.54287352212793 97.00249577234631
89.32216430665855 0.3424067227958098 0.09410455376051008 0.01759787765000531 317.63150399453286 97.67090897664707
90.86973435297011 0.3696406711256137 0.09572675991696154 0.017597877650005242 317.7216623090265 98.3508445140514
92.44398193566516 0.39734408747669764 0.0973769302123309 0.017597877650005228 317.8133748030682 99.04250101043964
94.04536693114535 0.4255250646977123 0.09905554670190979 0.01759787765000531 317.90666826813106 99.74608051566989
95.67435714332068 0.45419183514462985 0.10076309975082554 0.017892055534992374 318.00156995752883 100.46178856260559
97.33169327479138 0.4843410207312542 0.10250008817728433 0.018775745774211428 318.10048622561175 101.18570399772256
99.01814146064449 0.5170082040359527 0.10426701939828847 0.020025246310001077 318.2058447860128 101.91428658825437
100.73429318912723 0.5525181669555139 0.1060644095778678 0.02129999675038627 318.31828524079526 102.64750316311726
102.48063871606901 0.5907964457966746 0.10789278377786223 0.022549781036994038 318.43751805132047 103.38670836290729
104.25774423592242 0.6320103592916358 0.10975267611130558 0.023887708108000116 318.5638120290785 104.13237516689382
106.06623539667063 0.676492214395437 0.11164462989845152 0.025339806313660923 318.697770868173 104.88465247088972
107.90674784282342 0.7245234535359056 0.11356919782549418 0.026726883379044414 318.8398212612412 105.64215664334085
109.77980899298537 0.7757858510810522 0.11552694210601787 0.028008654354195556 318.9889635986241 106.39548846211913
111.68603200563659 0.8304189676497289 0.11751843464523576 0.02941848660514751 319.1453310518051 107.14305877628786
113.62612253642692 0.8889903796251314 0.1195442572070575 0.0310000273545607 319.31003653378224 107.89037199216354
115.60075117782822 0.9518318179215621 0.1216050015840337 0.03259969837934959 319.4836179784206 108.6399435927219
117.61049319554543 1.0189345897359714 0.12370126977023699 0.03419210470702347 319.6659546827271 109.3941654142798
119.65602415051524 1.0905481505064962 0.12583367413711752 0.03592218882239359 319.8573917239201 110.15411877028433
121.73815641876267 1.1672766767204164 0.12800283761239192 0.03778190969818496 320.0588603075681 110.92020174565145
123.85759205422588 1.2493614886182018 0.1302093938620144 0.0396255479711905 320.27062777688235 111.69348487044105
126.01496433860267 1.3368161240061027 0.13245398747528928 0.041461386350795104 320.4925793312381 112.47517112638602
128.2110155783424 1.429932568241939 0.13473727415316794 0.04346252473119688 320.7250671173629 113.26594974297757
130.4466887956552 1.52951487508801 0.1370599208997976 0.045590760196347446 320.969220213987 114.06610244230104
132.72270298041246 1.6357091714792171 0.13942260621736857 0.04767926014436641 321.22510082538804 114.87651716166351
135.03976205186157 1.748593799706529 0.14182602030432198 0.04977029748745049 321.49267975935425 115.69799950047124
137.3986835249372 1.8685229353243933 0.14427086525697244 0.05206400529136951 321.77234677231564 116.53110782929468
139.80057355445675 1.9965668028217445 0.14675785527460983 0.05448295484632937 322.0654823434704 117.37614392238619
142.24614757531495 2.1327305435734982 0.1492877168681315 0.05683638595368079 322.37191652081754 118.23384218287305
144.73619757503982 2.2771938463603174 0.15186118907227755 0.059208520968313694 322.69174413674494 119.10477732777403
147.27162660197732 2.430390920319256 0.15447902366151722 0.0618292055008095 323.0254080857181 119.98940983187808
149.85374556019306 2.5937403356179334 0.15714198536966398 0.06457197399617759 323.3745941649684 120.88804723823948
152.4832372283129 2.7670401807274834 0.15985085211327107 0.06721882453614525 323.7388555425644 121.80124809303793
155.16100474728017 2.9506159576823916 0.1626064152188807 0.06990575565196155 324.1184454344821 122.72942464238325
157.8880490867394 3.1450019316856195 0.16540947965419006 0.07289593855263288 324.5138717435153 123.67293532678868
160.66593902373984 3.3520690822739376 0.16826086426320178 0.07600220080988451 324.92718571735776 124.63202719571277
163.4952840125817 3.5713158744339593 0.17116140200542868 0.07897532922519734 325.3576004812541 125.6070903482084
166.37712853614147 3.8032695276021222 0.17411194019922174 0.08202037368123771 325.8055622707938 126.59840218489457
169.31260061973967 4.048620249866702 0.17711334076929286 0.08542133552471287 326.2716886567447 127.60620334892384
172.303551331823 4.309718566586897 0.18016648049850292 0.0889270452590527 326.7583492276527 128.63058410314463
175.35050383107742 4.585737524453315 0.1832722512839939 0.09226446929582366 327.26444376458807 129.67181814230588
178.45466868853612 4.877441713994387 0.18643156039773165 0.09572802473872655 327.7906096931573 130.73004905217363
181.61738960046912 5.18586172672753 0.18964533075154347 0.09956214286511778 328.3377308078966 131.80536363429957
184.84067158507494 5.5134958934314255 0.19291450116672415 0.10348029397253222 328.90808973361146 132.89762523650757
188.12508868773136 5.859506730761704 0.19624002664828616 0.10723125726635341 329.50063467169656 134.00704679883177
191.47199658539387 6.224818666062787 0.19962287866394354 0.11114950466071183 330.116072530961 135.1336328978941
194.88301649425165 6.610906017540677 0.2030640454278977 0.11544544815415358 330.7555888744374 136.2772622126371
198.3602890613904 7.020342674256472 0.2065645321895225 0.11979382346787826 331.42129567013734 137.43754067535426
201.9044613376726 7.452308308070558 0.2101253615270204 0.12397650239191993 332.11220306471756 138.61467605675114
205.5170562570145 7.907903230714149 0.21374757364614289 0.1283699626450635 332.8290718474655 139.80852765902867
209.2000509218192 8.389163756231573 0.21743222668406043 0.1331367755092301 333.57341318817043 141.01869117551004
212.95568685700158 8.89862029273525 0.22118039701847075 0.1379109881763032 334.34705688852574 142.2445530860434
216.7847142491265 9.435507109353031 0.224993179582034 0.1425209986125906 335.149090910276 143.4863497980139
220.6888478651131 10.001107919216421 0.22887168818223044 0.1473848211915132 335.9803024130194 144.74379875149575
224.67051841244387 10.598148441577159 0.23281705582673115 0.15260238957125072 336.84253077264475 146.0161250814302
228.73201076449018 11.228941923303356 0.23683043505437643 0.1577674592771845 337.73719306437926 147.30260528428684
232.87421847820065 11.892825884399452 0.2409129982718618 0.16276966708385543 338.6634726746745 148.60351662363965
237.09907459677976 12.591262929879372 0.2450659380962259 0.1680647442175771 339.6221443059857 149.91845083271977
241.4095830266287 13.327795359770137 0.24929046770324403 0.17367604335428166 340.61534675451054 151.2461733723472
245.80798450797525 14.104290408314728 0.25358782118182577 0.17916063314688135 341.6439533067965 152.5860269646372
250.29536865638684 14.920249387540146 0.2579592538945237 0.18448376658109078 342.70726027181 153.9383214680799
254.87391430339358 15.777295306389933 0.26240604284425445 0.19013115054428797 343.8059831368225 155.30255316107613
259.54734193097937 16.679902122692877 0.2669294870473437 0.19603884001981875 344.9424917462097 156.67695034502995
264.3177234138911 17.62921742422393 0.2715309079130002 0.20173455319505607 346.11701155796936 158.06114921462316
269.1864120746621 18.624978432827973 0.2762116496293318 0.20727097595137622 347.328966229596 159.45546560193614
274.15586021544175 19.66893704821644 0.28097307955601647 0.2131521958171756 348.57896372915343 160.8593430130801
279.2306731431928 20.76658998854091 0.28581658862374093 0.21922189252154145 349.86949367684684 162.27041922778363
284.412585417037 21.918069468750467 0.29074359174052566 0.2249894143101847 351.2000887836266 163.68887481305947
289.7032992122702 23.123430865940225 0.29575552820505524 0.2306016920899494 352.5703075794808 165.1149897852477
295.1055673860831 24.38451504681977 0.300853862127132 0.23656661428271297 353.98060905644974 166.5482047162215
300.6250734626658 25.70790002720107 0.3060400828553784 0.24263779812409947 355.4334521442952 167.985546141962
306.2629978571605 27.092417065261266 0.3113157054123131 0.24831998114039466 356.9277197298895 169.42797804232237
312.0214966673664 28.538529352055203 0.3166822709369256 0.2538541104542591 358.4631014669581 170.8756920374787
317.9036494111742 30.048126085066315 0.3221413471348811 0.2597359108053192 360.03988091456415 172.3281747479247
323.9164360611114 31.628890065835524 0.32769452873648597 0.2656390932017807 361.66030746350987 173.78185544558517
330.06021547034334 33.278110584552124 0.3333434379625472 0.2710787578055842 363.3227610243933 175.23867305073648
336.3377248306841 34.996751726455315 0.3390897249982634 0.27638164452897485 365.0270429856405 176.69867300893014
342.75239563416363 36.78671837750218 0.3449350684752844 0.2820159576097043 366.7732551876847 178.16142771359964
349.3127469329602 38.65679115669434 0.35088117596208035 0.28759239956345484 368.5632457970251 179.62281308437977
356.0179982424811 40.60254779373834 0.3569297844627652 0.2926507180164095 370.39513942729127 181.08586093941702
362.87161894726887 42.62554485678177 0.3630826609245175 0.2976058496429581 372.26881070045994 182.55041400308298
369.8776838050342 44.72802159039085 0.3693416027537498 0.3028324596598386 374.18425749083553 184.01597196044224
377.04571989459646 46.91882012835673 0.3757084383411748 0.30793255850782497 376.1425479489815 185.47847044374714
384.37423920137996 49.19272886637786 0.3821850275959231 0.3125215544923945 378.1420680020603 186.9415202760738
391.8673537720589 51.551645656583794 0.38877326248886857 0.31704011341831206 380.18264288681297 188.40489537630313
399.53022857376277 53.998550771733285 0.3954750676053199 0.32173794710659864 382.2641765278808 189.86781153455445
407.3724291860139 56.54109433027862 0.4022924007072386 0.3262560177033471 384.38684656688184 191.32699317636136
415.3926093188036 59.174483419942426 0.40922725330514964 0.33032373141907057 386.54960838431725 192.78593445174437
423.5953061809909 61.90062597545923 0.41628165123991057 0.3343704786239048 388.75217980057613 210.4637562380311
439.83653435350584 67.39496353128845 0.4301294200147312 0.09479320877856212 390.99427615507426 203.49726494148095
442.5032267817079 67.64898473444094 0.4396701970211483 0.09572085311027534 393.27543963785325 196.4146096827396
473.2385423776478 70.7553015540423 0.5487648481013002 0.10573450770510373 395.59516773161965 189.36877072739512
503.4149887332315 74.08428994054783 0.65499793377762 0.11505183877988423 397.95311125729603 182.35767122290122
533.0755186442564 77.63481235427648 0.7586475783727827 0.12444355396220619 400.3486982341418 175.37926592491667
562.2823145827012 81.40568224966427 0.8599999489628711 0.13454423503977275 402.78113502043635 168.4317587931894
591.0008899472949 85.42307461681725 0.9588715792253021 0.14455660187021158 405.2503908250171 161.5310388428693
619.434276086089 89.66472611065215 1.0560844058291716 0.15363947148557644 407.7560864453435 154.65504180599194
647.6665455322976 94.12736800912616 1.1519524132323533 0.16288866081956033 410.2972643916196 147.79985597260628
675.7137691726269 98.8302394392647 1.2464640429584426 0.1721418787633502 412.8731075256692 140.976299964284
703.6869116830956 103.77015841921626 1.3400268143389016 0.18054563035713578 415.48395412590855 134.17430382849184
731.6863981099181 108.93606125811932 1.4330326001250158 0.18892822962346023 418.12942481666244 127.38231598691858
759.7169038520573 114.35608052432774 1.5253805270600147 0.19711329676871836 420.80808286670407 120.6163103958847
787.8682301371916 120.01115594144588 1.617431512743484 0.20466837695384 423.519388423576 113.86099104955643
816.1678177558098 125.91092335760986 1.7091425577648338 0.21247830067174656 426.263926491692 107.11630176050267
844.595841069852 132.06557288145925 1.8001637717311367 0.21914662938074292 429.04133904117657 100.41340482453779
873.4005981282993 138.45530209648183 1.892069087611398 0.22467368810682586 431.84962364736657 93.7255869544044
902.6945497611489 145.12163092558475 1.9853468801341196 0.2297784901102249 434.68879187402194 87.0522661604376
932.4886302801212 152.03469212182802 2.0800745944315664 0.23464753299831775 437.55954505588323 80.37310457222698
962.8629526342588 159.243067739783 2.176485209147629 0.2393428385823233 440.4615602408136 73.70216787521338
993.7734196966446 166.70495788015532 2.2744806328244223 0.24378530923468444 443.39219174670734 67.0277343935056
1025.319270418089 174.4720585169669 2.3743647505426293 0.24813140309313653 446.35224304333093 60.35933587028764
1057.4863794148835 182.51654702861092 2.476127963405798 0.25221487669925935 449.3424024244641 53.68138628170796
1090.350225137966 190.87683381702598 2.5800136306149493 0.2562708892299228 452.3623894048231 47.001252812404616
1123.8719807229804 199.53174164567952 2.6859259562898075 0.260072002698323 455.4088468583903 40.31857756437119
1158.1111448472946 208.50228434730053 2.7940712920482595 0.2638921151502114 458.48357591050296 33.62946313257153
1193.1181793380508 217.80821121191818 2.9046339639390903 0.267526511751623 461.5871295346198 26.932557330795856
1228.8784445888434 227.43699611864767 3.0175932374884487 0.2711221197995073 464.7192724425523 20.222271465360755
1265.4269213920575 237.4156795524335 3.1331027062090473 0.2745522296770937 467.87587687666405 13.511580831450077
1302.8277932519863 247.7425869666262 3.2516787478000007 0.27804988154281896 471.0599151315838 6.788104970944042
1340.983751516727 258.42720011977497 3.3723481854981783 0.3053683369113429 474.2716930347005 0.12232366508661924
1374.687724824234 269.4738410957311 3.443154846618427 0.3277905110384518 477.5110201023164 0.0
1409.311004235314 280.8242916528864 3.515413107953486 0.32786222276314536 480.77294680996494 0.0
1444.9217393426172 292.50099148900534 3.5892434354415728 0.32793541076182375 484.06176219100337 0.0
1481.5978875890296 304.5298006774803 3.6647465396761794 0.3280091506794185 487.37742484726095 0.0
1519.3388741358572 316.91056943111676 3.741910114090682 0.32807984099598064 490.71942709513365 0.0
1558.0964493174872 329.6275069733324 3.8206249066759517 0.32814867613780185 494.0830324628434 0.0
1597.953991679379 342.7080915580276 3.9010332464852366 0.32821891182660146 497.47289006040484 0.0
1638.9928843896332 356.17933196147504 3.983236019753298 0.3282889604751178 500.8888825459008 0.0
1681.1932410190984 370.0346971264219 4.0671901427782995 0.3283561197696354 504.3299917615031 0.0
1724.5253150691522 384.2645040336324 4.1528160326823444 0.32842203240984613 507.7922253856572 0.0
1769.0779384272057 398.8980480988365 4.24026048498387 0.3284872723325387 511.2801267663313 0.0
1814.8847016724542 413.9464938617178 4.329558868756641 0.32855320860832915 514.7936148893198 0.0
1862.0019440450073 429.4286161261381 4.42076226038507 0.3286185624709619 518.3310928584808 0.0
1910.3830902380544 445.3291173980543 4.513774868032615 0.3286815631576019 521.8894715714698 0.0
1960.115330668676 461.6767617608147 4.608737607073448 0.32874364640673104 525.4730848306887 0.0
2011.2350971501255 478.48365954030976 4.705687719644012 0.32880501444313204 529.0818842067226 0.0
2063.747516519898 495.751629054833 4.80460272585076 0.3288656178698224 532.7136335653959 0.0
2117.6584587785965 513.482728302356 4.905462256572035 0.32892542338162567 536.3662857953279 0.0
2173.0648212208603 531.7089586711934 5.008414923523403 0.32898450127735845 540.0438741161018 0.0
2230.0062297044237 550.443493807838 5.1135000547220715 0.3290431834682028 543.7463790946406 0.0
2288.4913112419663 569.6893489245971 5.2206906046094 0.3291011931062702 547.4708712870953 0.0
2348.534565683803 589.4513999558545 5.329985542491255 0.32915796246394713 551.216467733508 0.0
2410.226416060462 609.759520632188 5.441519893018063 0.3292137987541235 554.9868210458568 0.0
2473.609727678344 630.6279629831035 5.555335072703501 0.32926890794795227 558.781937487146 0.0
2538.6650628487873 652.0504650839101 5.671360583118263 0.329323237434469 562.5981454122898 0.0
2605.439763698444 674.0427499698669 5.789645934614364 0.32937678878122334 566.4358348263322 0.0
2674.03277361781 696.6375436572623 5.910329940828605 0.3294296108765984 570.2982070044372 0.0
2744.4905881364184 719.8503067739082 6.033456319242748 0.32948171472693666 574.1852909518561 0.0
2816.7770085919674 743.6692535251698 6.158924491059556 0.3295330439132389 578.0926279967849 0.0
2890.968199653772 768.119617003217 6.286829911546187 0.3295836197882114 582.021979385741 0.0
2967.161716747303 793.2336905397727 6.417302145592221 0.32963348238348544 585.9760320290837 0.0
3045.40792246597 819.028222266393 6.55038731786183 0.32968288896722164 589.9548350790684 0.0
3125.6671263396506 845.4903110877043 6.6859692055286715 0.3297317646086766 593.9531011119569 0.0
3208.0500275431837 872.6565935309877 6.824196240637577 0.3297797364310293 597.9740527294582 0.0
3292.6403946979794 900.5548162789052 6.965173637510938 0.3298268535167992 602.019805726412 0.0
3379.4929206862353 929.2031693268975 7.108950156661149 0.3298732818205723 606.0904271513187 0.0
3468.526437340948 958.5750228139857 7.2553507707382705 0.32991896276032406 610.1797613821134 0.0
3559.895282900817 988.7214354170167 7.4045884036409495 0.32996395888538466 614.2925763096104 0.0
3653.6878622830955 1019.6717278559529 7.556764039799742 0.3300082881208777 618.4303648993331 0.0
3749.9632523558967 1051.4455498677967 7.711929063269201 0.3300522028119177 622.5932101621104 0.0
3848.6344155345305 1084.0143721239835 7.869888295762187 0.3300959681164848 626.7740504200112 0.0
3949.9387908819945 1117.4567841071776 8.030961034188536 0.3301389049956658 630.9792782513232 0.0
4053.9080303625083 1151.7832906741714 8.195176559547868 0.3301806663033995 635.2097160524316 0.0
4160.60611031228 1187.0151730808132 8.362589119391261 0.33022264035829707 639.4654611461091 0.0
