e[MeV/fm^3], P[MeV/fm^3], rho[fm^-3], v2[1], mu_q[MeV], mu_e[MeV]
70.21755168181654 0.006206087273093519 0.07407856508846018 0.017597877650005332 316.5185077347417 89.2771661002368
71.43578994790998 0.027644495228360377 0.07535555647246353 0.0175978776500052 316.5894798429086 89.8124074562691
72.67502861766434 0.04945246571785267 0.07665456106626496 0.017597877650005228 316.6616753923034 90.35687548400062
73.93562970314778 0.07163636938565421 0.07797595834102777 0.01759787765000538 316.7351154730202 90.91072923592193
75.21796145691394 0.09420268669514797 0.07932013430936638 0.01759787765000533 316.8098215387112 91.47413050632369
76.5223984795798 0.11715800982215896 0.0806874816381126 0.01759787765000522 316.8858154128541 92.04724387856187
77.84932182925448 0.14050904458066893 0.08207839976302188 0.017597877650005325 316.96311929512683 92.630236773136
79.19911913285509 0.16426261238173973 0.08349329500545777 0.017597877650005436 317.0417557678931 93.22327949659658
80.57218469934486 0.18842565222626206 0.08493258069109116 0.017597877650005332 317.12174780279906 93.82654529129692
81.96891963491473 0.21300522273190858 0.08639667727063695 0.017597877650005284 317.20311876748366 94.44021038599915
83.38973196016327 0.23800850419525207 0.0878860124426853 0.017597877650005242 317.2858924324053 95.06445404735784
84.83503672928572 0.26344280068923775 0.08940102127863886 0.01759787765000527 317.37009297778565 95.69945863228664
86.3052561513196 0.28931554219685157 0.0909421463498059 0.01759787765000538 317.45574500067295 96.34540964122833
87.80081971348744 0.3156342867816875 0.09250983785669148 0.017597877650005325 317.54287352212793 97.00249577234631
89.32216430665855 0.3424067227958098 0.09410455376051008 0.01759787765000531 317.63150399453286 97.67090897664707
90.86973435297011 0.3696406711256137 0.09572675991696154 0.017597877650005242 317.7216623090265 98.3508445140514
92.44398193566516 0.39734408747669764 0.0973769302123309 0.017597877650005228 317.8133748030682 99.04250101043964
94.04536693114535 0.4255250646977123 0.09905554670190979 0.01759787765000531 317.90666826813106 99.74608051566989
95.67435714332068 0.45419183514462985 0.10076309975082554 0.017892055534992374 318.00156995752883 100.46178856260559
97.33169327479138 0.4843410207312542 0.10250008817728433 0.018775745774211428 318.10048622561175 101.18570399772256
99.01814146064449 0.5170082040359527 0.10426701939828847 0.020025246310001077 318.2058447860128 101.91428658825437
100.73429318912723 0.5525181669555139 0.1060644095778678 0.02129999675038627 318.31828524079526 102.64750316311726
102.48063871606901 0.5907964457966746 0.10789278377786223 0.022549781036994038 318.43751805132047 103.38670836290729
104.25774423592242 0.6320103592916358 0.10975267611130558 0.023887708108000116 318.5638120290785 104.13237516689382
106.06623539667063 0.676492214395437 0.11164462989845152 0.025339806313660923 318.697770868173 104.88465247088972
107.90674784282342 0.7245234535359056 0.11356919782549418 0.026726883379044414 318.8398212612412 105.64215664334085
109.77980899298537 0.7757858510810522 0.11552694210601787 0.028008654354195556 318.9889635986241 106.39548846211913
111.68603200563659 0.8304189676497289 0.11751843464523576 0.02941848660514751 319.1453310518051 107.14305877628786
113.62612253642692 0.8889903796251314 0.1195442572070575 0.0310000273545607 319.31003653378224 107.89037199216354
115.60075117782822 0.9518318179215621 0.1216050015840337 0.03259969837934959 319.4836179784206 108.6399435927219
117.61049319554543 1.0189345897359714 0.12370126977023699 0.03419210470702347 319.6659546827271 109.3941654142798
119.65602415051524 1.0905481505064962 0.12583367413711752 0.03592218882239359 319.8573917239201 110.15411877028433
121.73815641876267 1.1672766767204164 0.12800283761239192 0.03778190969818496 320.0588603075681 110.92020174565145
123.85759205422588 1.2493614886182018 0.1302093938620144 0.0396255479711905 320.27062777688235 111.69348487044105
126.01496433860267 1.3368161240061027 0.13245398747528928 0.041461386350795104 320.4925793312381 112.47517112638602
128.2110155783424 1.429932568241939 0.13473727415316794 0.04346252473119688 320.7250671173629 113.26594974297757
130.4466887956552 1.52951487508801 0.1370599208997976 0.045590760196347446 320.969220213987 114.06610244230104
132.72270298041246 1.6357091714792171 0.13942260621736857 0.04767926014436641 321.22510082538804 114.87651716166351
135.03976205186157 1.748593799706529 0.14182602030432198 0.04977029748745049 321.49267975935425 115.69799950047124
137.3986835249372 1.8685229353243933 0.14427086525697244 0.05206400529136951 321.77234677231564 116.53110782929468
139.80057355445675 1.9965668028217445 0.14675785527460983 0.05448295484632937 322.0654823434704 117.37614392238619
142.24614757531495 2.1327305435734982 0.1492877168681315 0.05683638595368079 322.37191652081754 118.23384218287305
144.73619757503982 2.2771938463603174 0.15186118907227755 0.059208520968313694 322.69174413674494 119.10477732777403
147.27162660197732 2.430390920319256 0.15447902366151722 0.0618292055008095 323.0254080857181 119.98940983187808
149.85374556019306 2.5937403356179334 0.15714198536966398 0.06457197399617759 323.3745941649684 120.88804723823948
152.4832372283129 2.7670401807274834 0.15985085211327107 0.06721882453614525 323.7388555425644 121.80124809303793
155.16100474728017 2.9506159576823916 0.1626064152188807 0.06990575565196155 324.1184454344821 122.72942464238325
157.8880490867394 3.1450019316856195 0.16540947965419006 0.07289593855263288 324.5138717435153 123.67293532678868
160.66593902373984 3.3520690822739376 0.16826086426320178 0.07600220080988451 324.92718571735776 124.63202719571277
163.4952840125817 3.5713158744339593 0.17116140200542868 0.07897532922519734 325.3576004812541 125.6070903482084
166.37712853614147 3.8032695276021222 0.17411194019922174 0.08202037368123771 325.8055622707938 126.59840218489457
169.31260061973967 4.048620249866702 0.17711334076929286 0.08542133552471287 326.2716886567447 127.60620334892384
172.303551331823 4.309718566586897 0.18016648049850292 0.0889270452590527 326.7583492276527 128.63058410314463
175.35050383107742 4.585737524453315 0.1832722512839939 0.09226446929582366 327.26444376458807 129.67181814230588
178.45466868853612 4.877441713994387 0.18643156039773165 0.09572802473872655 327.7906096931573 130.73004905217363
181.61738960046912 5.18586172672753 0.18964533075154347 0.09956214286511778 328.3377308078966 131.80536363429957
184.84067158507494 5.5134958934314255 0.19291450116672415 0.10348029397253222 328.90808973361146 132.89762523650757
188.12508868773136 5.859506730761704 0.19624002664828616 0.10723125726635341 329.50063467169656 134.00704679883177
191.47199658539387 6.224818666062787 0.19962287866394354 0.11114950466071183 330.116072530961 135.1336328978941
194.88301649425165 6.610906017540677 0.2030640454278977 0.11544544815415358 330.7555888744374 136.2772622126371
198.3602890613904 7.020342674256472 0.2065645321895225 0.11979382346787826 331.42129567013734 137.43754067535426
201.9044613376726 7.452308308070558 0.2101253615270204 0.12397650239191993 332.11220306471756 138.61467605675114
205.5170562570145 7.907903230714149 0.21374757364614289 0.1283699626450635 332.8290718474655 139.80852765902867
209.2000509218192 8.389163756231573 0.21743222668406043 0.1331367755092301 333.57341318817043 141.01869117551004
212.95568685700158 8.89862029273525 0.22118039701847075 0.1379109881763032 334.34705688852574 142.2445530860434
216.7847142491265 9.435507109353031 0.224993179582034 0.1425209986125906 335.149090910276 143.4863497980139
220.6888478651131 10.001107919216421 0.22887168818223044 0.1473848211915132 335.9803024130194 144.74379875149575
224.67051841244387 10.598148441577159 0.23281705582673115 0.15260238957125072 336.84253077264475 146.0161250814302
228.73201076449018 11.228941923303356 0.23683043505437643 0.1577674592771845 337.73719306437926 147.30260528428684
232.87421847820065 11.892825884399452 0.2409129982718618 0.16276966708385543 338.6634726746745 148.60351662363965
237.09907459677976 12.591262929879372 0.2450659380962259 0.1680647442175771 339.6221443059857 149.91845083271977
241.4095830266287 13.327795359770137 0.24929046770324403 0.17367604335428166 340.61534675451054 151.2461733723472
245.80798450797525 14.104290408314728 0.25358782118182577 0.17916063314688135 341.6439533067965 152.5860269646372
250.29536865638684 14.920249387540146 0.2579592538945237 0.18448376658109078 342.70726027181 153.9383214680799
254.87391430339358 15.777295306389933 0.26240604284425445 0.19013115054428797 343.8059831368225 155.30255316107613
259.54734193097937 16.679902122692877 0.2669294870473437 0.19603884001981875 344.9424917462097 156.67695034502995
264.3177234138911 17.62921742422393 0.2715309079130002 0.20173455319505607 346.11701155796936 158.06114921462316
269.1864120746621 18.624978432827973 0.2762116496293318 0.20727097595137622 347.328966229596 159.45546560193614
274.15586021544175 19.66893704821644 0.28097307955601647 0.2131521958171756 348.57896372915343 160.8593430130801
279.2306731431928 20.76658998854091 0.28581658862374093 0.21922189252154145 349.86949367684684 162.27041922778363
284.412585417037 21.918069468750467 0.29074359174052566 0.2249894143101847 351.2000887836266 163.68887481305947
289.7032992122702 23.123430865940225 0.29575552820505524 0.2306016920899494 352.5703075794808 165.1149897852477
295.1055673860831 24.38451504681977 0.300853862127132 0.23656661428271297 353.98060905644974 166.5482047162215
300.6250734626658 25.70790002720107 0.3060400828553784 0.24263779812409947 355.4334521442952 167.985546141962
306.2629978571605 27.092417065261266 0.3113157054123131 0.24831998114039466 356.9277197298895 169.42797804232237
312.0214966673664 28.538529352055203 0.3166822709369256 0.2538541104542591 358.4631014669581 170.8756920374787
317.9036494111742 30.048126085066315 0.3221413471348811 0.2597359108053192 360.03988091456415 172.3281747479247
323.9164360611114 31.628890065835524 0.32769452873648597 0.2656390932017807 361.66030746350987 173.78185544558517
330.06021547034334 33.278110584552124 0.3333434379625472 0.2710787578055842 363.3227610243933 175.23867305073648
336.3377248306841 34.996751726455315 0.3390897249982634 0.27638164452897485 365.0270429856405 176.69867300893014
342.75239563416363 36.78671837750218 0.3449350684752844 0.2820159576097043 366.7732551876847 178.16142771359964
349.3127469329602 38.65679115669434 0.35088117596208035 0.28759239956345484 368.5632457970251 179.62281308437977
356.0179982424811 40.60254779373834 0.3569297844627652 0.2926507180164095 370.39513942729127 181.08586093941702
362.87161894726887 42.62554485678177 0.3630826609245175 0.2976058496429581 372.26881070045994 182.55041400308298
369.8776838050342 44.72802159039085 0.3693416027537498 0.3028324596598386 374.18425749083553 184.01597196044224
377.04571989459646 46.91882012835673 0.3757084383411748 0.30793255850782497 376.1425479489815 185.47847044374714
384.37423920137996 49.19272886637786 0.3821850275959231 0.3125215544923945 378.1420680020603 186.9415202760738
391.8673537720589 51.551645656583794 0.38877326248886857 0.31704011341831206 380.18264288681297 188.40489537630313
399.53022857376277 53.998550771733285 0.3954750676053199 0.32173794710659864 382.2641765278808 189.86781153455445
407.3724291860139 56.54109433027862 0.4022924007072386 0.3262560177033471 384.38684656688184 191.32699317636136
415.3926093188036 59.174483419942426 0.40922725330514964 0.33032373141907057 386.54960838431725 192.78593445174437
423.5953061809909 61.90062597545923 0.41628165123991057 0.3343704786239048 388.75217980057613 194.2445223409546
427.6086623399464 63.24781954048451 0.41970636642125486 0.05966447487554416 390.99427615507426 189.85742489459855
494.81714464127526 67.89050037259413 0.6582281635196143 0.07849311098673417 393.27543963785325 180.3988026282375
535.6695224387433 71.33090634624212 0.8025905006402808 0.090252051935793 395.59516773161965 171.10468524561736
574.433048207935 75.05142510639958 0.939409263629665 0.10227874445688634 397.95311125729603 161.94473560094792
611.3103998897361 79.04417693093004 1.069441706307165 0.11476868065552392 400.3486982341418 152.9179435316757
646.5061101180776 83.30180042883053 1.1934116417018807 0.12867561588220555 402.78113502043635 144.0232164467179
679.9437972784318 87.84920481045692 1.3110047833994452 0.14281163115464968 405.2503908250171 135.29656165995746
712.11219574009 92.65413985783537 1.423930372295241 0.1560825407646118 407.7560864453435 126.69743836208966
743.2005471878956 97.70821887914511 1.532815485154705 0.17014748309813954 410.2972643916196 118.21937489671379
773.1771913405044 103.02765172692982 1.6374040855156597 0.18496988354285482 412.8731075256692 109.88769070096399
802.1595990610797 108.59916777369052 1.7378290217376664 0.19824733320220655 415.48395412590855 101.71180025064542
830.6006122703405 114.40524557398587 1.8361631965326337 0.2102206061981431 418.12942481666244 93.67427480212822
858.6829061877892 120.47719995468869 1.933542316151303 0.2213819878590204 420.80808286670407 85.77840882389299
886.5708555018763 126.79404982618044 2.0305402129166907 0.23156299852787754 423.519388423576 77.9921285254046
914.3437515414573 133.36503146796144 2.1275216679168563 0.24164553273762346 426.263926491692 70.31359100759714
942.0723541721787 140.2052921561392 2.2249315520535426 0.2506753034535554 429.04133904117657 62.75050946604749
969.8960845627851 147.2913896765509 2.323480133651813 0.25853532668396406 431.84962364736657 55.276283053171056
997.9829902693089 154.66220652818362 2.4246775952944244 0.2642249888445227 434.68879187402194 47.91228890865008
1026.64865030044 162.28893608842725 2.5306824827181624 0.26426543562945914 437.55954505588323 40.60782759442843
1056.9044077422775 170.22724161254945 2.6506241103527652 0.25338018172607724 440.4615602408136 33.36469212381695
1090.6983012990806 178.45048897247554 2.8019329888757514 0.2611774634178241 443.39219174670734 26.10250714668233
1121.6603471263359 187.04321502622614 2.9318428940405648 0.3503750628724056 446.35224304333093 18.753409162065317
1143.6367165671506 195.87954492503223 2.9810190564472023 0.40178092136227583 449.3424024244641 11.587166201530827
1166.2613292374015 204.9626409754654 3.0312177407755363 0.40111557694851374 452.3623894048231 4.696420859926288
1189.4974195783493 214.27454836606447 3.082417669118954 0.4003572537860931 455.4088468583903 0.0
1213.3927478469104 223.83151858208734 3.1347157506422367 0.39954210375315835 458.48357591050296 0.0
1237.9865565531295 233.6474200214883 3.1881695297565056 0.3987493204326631 461.5871295346198 0.0
1263.2545897970142 243.71338634137678 3.2427397861205534 0.3979540268130215 464.7192724425523 0.0
1289.2381766986969 254.04260835892876 3.2984540899204644 0.39715089253078517 467.87587687666405 0.0
1315.9400449562015 264.63691160764404 3.3553302593977885 0.39639587115758523 471.0599151315838 0.0
1343.3714878086082 275.5002869206691 3.413381823656082 0.3956131452773066 474.2716930347005 0.0
1371.6112545773676 286.6605079918628 3.4727101623709413 0.3948301345283234 477.5110201023164 0.0
1400.582666254245 298.08844304449775 3.5331742029449624 0.39409556947547664 480.77294680996494 0.0
1430.341252056263 309.805165308629 3.5948726355183545 0.393344285990751 484.06176219100337 0.0
1460.9475895819287 321.831984680288 3.6578812946543873 0.39258587631900976 487.37742484726095 0.0
1492.4006293703487 334.16817188574936 3.7221899713634916 0.3918573578334259 490.71942709513365 0.0
1524.6596103370478 346.7974335901087 3.787707606322905 0.391146531156771 494.0830324628434 0.0
1557.792099684187 359.7451998893027 3.854550031274659 0.3904197704419321 497.47289006040484 0.0
1591.861158685421 373.0335479180546 3.9227930737912966 0.38969361177974715 500.8888825459008 0.0
1626.8503551492483 386.6561119662396 3.9924023877902393 0.3889960345250989 504.3299917615031 0.0
1662.7337683210533 400.60209571695856 4.063310645670434 0.388310103393362 507.7922253856572 0.0
1699.583081658438 414.89830478418673 4.135636851330335 0.38762990867209 511.2801267663313 0.0
1737.4240840307727 429.5536243156653 4.2094075158751965 0.38694114791706014 514.7936148893198 0.0
1776.2992610565025 444.58222667143565 4.284658201829068 0.38625727119116515 518.3310928584808 0.0
1816.1701110850556 459.96918668254466 4.361311025386128 0.3855967974328296 521.8894715714698 0.0
1857.1068446476445 475.7406738253568 4.439480172966656 0.384944779286819 525.4730848306887 0.0
1899.137412741249 491.9063066007006 4.519193627507458 0.3842991406820877 529.0818842067226 0.0
1942.2640243414053 508.4658009643211 4.600430332855824 0.38366044001807964 532.7136335653959 0.0
1986.4895717555694 525.4191765846672 4.683171171515981 0.3830290677839656 536.3662857953279 0.0
2031.891547689081 542.7950088356793 4.767535578277734 0.3824043207042527 540.0438741161018 0.0
2078.500332039147 560.6037390055641 4.853553161718828 0.3817827109560765 543.7463790946406 0.0
2126.320312039333 578.8455255011576 4.941198149317112 0.3811672174472509 547.4708712870953 0.0
2175.3617752985656 597.5234019158777 5.0304681410506085 0.3805638966977085 551.216467733508 0.0
2225.6968811986408 616.6638866477998 5.121471630482692 0.3799695330566335 554.9868210458568 0.0
2277.358473519692 636.2782558943111 5.214239847715073 0.3793819780304588 558.781937487146 0.0
2330.3286342294173 656.3585240971321 5.308712902511868 0.3788018285701611 562.5981454122898 0.0
2384.64390290947 676.9173974127575 5.40492883149509 0.3782291041671906 566.4358348263322 0.0
2440.382670051268 697.9833532356406 5.502998154201768 0.37766331697088784 570.2982070044372 0.0
2497.580538382756 719.5686013391478 5.6029538769771925 0.3771043827833225 574.1852909518561 0.0
2556.206015280214 741.6600517998834 5.704711989002723 0.37655294088965086 578.0926279967849 0.0
2616.318824460913 764.2790374825146 5.808347679956106 0.37600879583010194 582.021979385741 0.0
2677.995859055248 787.4532586350928 5.913963552191 0.37547154953248896 585.9760320290837 0.0
2741.2756597114494 811.1959185375708 6.021594463577309 0.3749384519214036 589.9548350790684 0.0
2806.1233698672536 835.4923549111503 6.131143087493176 0.3744103427347669 593.9531011119569 0.0
2872.6263598004266 860.3741114479405 6.242727232724262 0.3738912787791113 597.9740527294582 0.0
2940.850402244344 885.8647329398211 6.356430096959157 0.37338076123705477 602.019805726412 0.0
3010.837325549449 911.9785331449214 6.472288557812376 0.3728770272548667 606.0904271513187 0.0
3082.519571393581 938.6890640743871 6.5901593676889565 0.3723807419153369 610.1797613821134 0.0
3156.019255976261 966.0405923919333 6.710211788397324 0.37189125488728525 614.2925763096104 0.0
3231.405211924659 994.0574148179181 6.832524683995676 0.3714083986715 618.4303648993331 0.0
3308.722595930861 1022.7549692332159 6.957136939003159 0.37092944279397067 622.5932101621104 0.0
3387.898569774916 1052.1045203986553 7.0838884507604005 0.3704515095942469 626.7740504200112 0.0
3469.120401333233 1082.1735999138934 7.213031648549504 0.36998204810442825 630.9792782513232 0.0
3552.4126452318283 1112.9708218654764 7.344590116106614 0.36952487102159637 635.2097160524316 0.0
3637.824175739603 1144.512878419309 7.478604922690305 0.369065255307099 639.4654611461091 0.0
