e[MeV/fm^3], P[MeV/fm^3], rho[fm^-3], v2[1], mu_q[MeV], mu_e[MeV]
70.21755168181654 0.006206087273093519 0.07407856508846018 0.017597877650005332 316.5185077347417 89.2771661002368
71.43578994790998 0.027644495228360377 0.07535555647246353 0.0175978776500052 316.5894798429086 89.8124074562691
72.67502861766434 0.04945246571785267 0.07665456106626496 0.017597877650005228 316.6616753923034 90.35687548400062
73.93562970314778 0.07163636938565421 0.07797595834102777 0.01759787765000538 316.7351154730202 90.91072923592193
75.21796145691394 0.09420268669514797 0.07932013430936638 0.01759787765000533 316.8098215387112 91.47413050632369
76.5223984795798 0.11715800982215896 0.0806874816381126 0.01759787765000522 316.8858154128541 92.04724387856187
77.84932182925448 0.14050904458066893 0.08207839976302188 0.017597877650005325 316.96311929512683 92.630236773136
79.19911913285509 0.16426261238173973 0.08349329500545777 0.017597877650005436 317.0417557678931 93.22327949659658
80.57218469934486 0.18842565222626206 0.08493258069109116 0.017597877650005332 317.12174780279906 93.82654529129692
81.96891963491473 0.21300522273190858 0.08639667727063695 0.017597877650005284 317.20311876748366 94.44021038599915
83.38973196016327 0.23800850419525207 0.0878860124426853 0.017597877650005242 317.2858924324053 95.06445404735784
84.83503672928572 0.26344280068923775 0.08940102127863886 0.01759787765000527 317.37009297778565 95.69945863228664
86.3052561513196 0.28931554219685157 0.0909421463498059 0.01759787765000538 317.45574500067295 96.34540964122833
87.80081971348744 0.3156342867816875 0.09250983785669148 0.017597877650005325 317.54287352212793 97.00249577234631
89.32216430665855 0.3424067227958098 0.09410455376051008 0.01759787765000531 317.63150399453286 97.67090897664707
90.86973435297011 0.3696406711256137 0.09572675991696154 0.017597877650005242 317.7216623090265 98.3508445140514
92.44398193566516 0.39734408747669764 0.0973769302123309 0.017597877650005228 317.8133748030682 99.04250101043964
94.04536693114535 0.4255250646977123 0.09905554670190979 0.01759787765000531 317.90666826813106 99.74608051566989
95.67435714332068 0.45419183514462985 0.10076309975082554 0.017892055534992374 318.00156995752883 100.46178856260559
97.33169327479138 0.4843410207312542 0.10250008817728433 0.018775745774211428 318.10048622561175 101.18570399772256
99.01814146064449 0.5170082040359527 0.10426701939828847 0.020025246310001077 318.2058447860128 101.91428658825437
100.73429318912723 0.5525181669555139 0.1060644095778678 0.02129999675038627 318.31828524079526 102.64750316311726
102.48063871606901 0.5907964457966746 0.10789278377786223 0.022549781036994038 318.43751805132047 103.38670836290729
104.25774423592242 0.6320103592916358 0.10975267611130558 0.023887708108000116 318.5638120290785 104.13237516689382
106.06623539667063 0.676492214395437 0.11164462989845152 0.025339806313660923 318.697770868173 104.88465247088972
107.90674784282342 0.7245234535359056 0.11356919782549418 0.026726883379044414 318.8398212612412 105.64215664334085
109.77980899298537 0.7757858510810522 0.11552694210601787 0.028008654354195556 318.9889635986241 106.39548846211913
111.68603200563659 0.8304189676497289 0.11751843464523576 0.02941848660514751 319.1453310518051 107.14305877628786
113.62612253642692 0.8889903796251314 0.1195442572070575 0.0310000273545607 319.31003653378224 107.89037199216354
115.60075117782822 0.9518318179215621 0.1216050015840337 0.03259969837934959 319.4836179784206 108.6399435927219
117.61049319554543 1.0189345897359714 0.12370126977023699 0.03419210470702347 319.6659546827271 109.3941654142798
119.65602415051524 1.0905481505064962 0.12583367413711752 0.03592218882239359 319.8573917239201 110.15411877028433
121.73815641876267 1.1672766767204164 0.12800283761239192 0.03778190969818496 320.0588603075681 110.92020174565145
123.85759205422588 1.2493614886182018 0.1302093938620144 0.0396255479711905 320.27062777688235 111.69348487044105
126.01496433860267 1.3368161240061027 0.13245398747528928 0.041461386350795104 320.4925793312381 112.47517112638602
128.2110155783424 1.429932568241939 0.13473727415316794 0.04346252473119688 320.7250671173629 113.26594974297757
130.4466887956552 1.52951487508801 0.1370599208997976 0.045590760196347446 320.969220213987 114.06610244230104
132.72270298041246 1.6357091714792171 0.13942260621736857 0.04767926014436641 321.22510082538804 114.87651716166351
135.03976205186157 1.748593799706529 0.14182602030432198 0.04977029748745049 321.49267975935425 115.69799950047124
137.3986835249372 1.8685229353243933 0.14427086525697244 0.05206400529136951 321.77234677231564 116.53110782929468
139.80057355445675 1.9965668028217445 0.14675785527460983 0.05448295484632937 322.0654823434704 117.37614392238619
142.24614757531495 2.1327305435734982 0.1492877168681315 0.05683638595368079 322.37191652081754 118.23384218287305
144.73619757503982 2.2771938463603174 0.15186118907227755 0.059208520968313694 322.69174413674494 119.10477732777403
147.27162660197732 2.430390920319256 0.15447902366151722 0.0618292055008095 323.0254080857181 119.98940983187808
149.85374556019306 2.5937403356179334 0.15714198536966398 0.06457197399617759 323.3745941649684 120.88804723823948
152.4832372283129 2.7670401807274834 0.15985085211327107 0.06721882453614525 323.7388555425644 121.80124809303793
155.16100474728017 2.9506159576823916 0.1626064152188807 0.06990575565196155 324.1184454344821 122.72942464238325
157.8880490867394 3.1450019316856195 0.16540947965419006 0.07289593855263288 324.5138717435153 123.67293532678868
160.66593902373984 3.3520690822739376 0.16826086426320178 0.07600220080988451 324.92718571735776 124.63202719571277
163.4952840125817 3.5713158744339593 0.17116140200542868 0.07897532922519734 325.3576004812541 125.6070903482084
166.37712853614147 3.8032695276021222 0.17411194019922174 0.08202037368123771 325.8055622707938 126.59840218489457
169.31260061973967 4.048620249866702 0.17711334076929286 0.08542133552471287 326.2716886567447 127.60620334892384
172.303551331823 4.309718566586897 0.18016648049850292 0.0889270452590527 326.7583492276527 128.63058410314463
175.35050383107742 4.585737524453315 0.1832722512839939 0.09226446929582366 327.26444376458807 129.67181814230588
178.45466868853612 4.877441713994387 0.18643156039773165 0.09572802473872655 327.7906096931573 130.73004905217363
181.61738960046912 5.18586172672753 0.18964533075154347 0.09956214286511778 328.3377308078966 131.80536363429957
184.84067158507494 5.5134958934314255 0.19291450116672415 0.10348029397253222 328.90808973361146 132.89762523650757
188.12508868773136 5.859506730761704 0.19624002664828616 0.10723125726635341 329.50063467169656 134.00704679883177
191.47199658539387 6.224818666062787 0.19962287866394354 0.11114950466071183 330.116072530961 135.1336328978941
194.88301649425165 6.610906017540677 0.2030640454278977 0.11544544815415358 330.7555888744374 136.2772622126371
198.3602890613904 7.020342674256472 0.2065645321895225 0.11979382346787826 331.42129567013734 137.43754067535426
201.9044613376726 7.452308308070558 0.2101253615270204 0.12397650239191993 332.11220306471756 138.61467605675114
205.5170562570145 7.907903230714149 0.21374757364614289 0.1283699626450635 332.8290718474655 139.80852765902867
209.2000509218192 8.389163756231573 0.21743222668406043 0.1331367755092301 333.57341318817043 141.01869117551004
212.95568685700158 8.89862029273525 0.22118039701847075 0.1379109881763032 334.34705688852574 142.2445530860434
216.7847142491265 9.435507109353031 0.224993179582034 0.1425209986125906 335.149090910276 143.4863497980139
220.6888478651131 10.001107919216421 0.22887168818223044 0.1473848211915132 335.9803024130194 144.74379875149575
224.67051841244387 10.598148441577159 0.23281705582673115 0.15260238957125072 336.84253077264475 146.0161250814302
228.73201076449018 11.228941923303356 0.23683043505437643 0.1577674592771845 337.73719306437926 147.30260528428684
232.87421847820065 11.892825884399452 0.2409129982718618 0.16276966708385543 338.6634726746745 148.60351662363965
237.09907459677976 12.591262929879372 0.2450659380962259 0.1680647442175771 339.6221443059857 149.91845083271977
241.4095830266287 13.327795359770137 0.24929046770324403 0.17367604335428166 340.61534675451054 151.2461733723472
245.80798450797525 14.104290408314728 0.25358782118182577 0.17916063314688135 341.6439533067965 152.5860269646372
250.29536865638684 14.920249387540146 0.2579592538945237 0.18448376658109078 342.70726027181 153.9383214680799
254.87391430339358 15.777295306389933 0.26240604284425445 0.19013115054428797 343.8059831368225 155.30255316107613
259.54734193097937 16.679902122692877 0.2669294870473437 0.19603884001981875 344.9424917462097 156.67695034502995
264.3177234138911 17.62921742422393 0.2715309079130002 0.20173455319505607 346.11701155796936 158.06114921462316
269.1864120746621 18.624978432827973 0.2762116496293318 0.20727097595137622 347.328966229596 159.45546560193614
274.15586021544175 19.66893704821644 0.28097307955601647 0.2131521958171756 348.57896372915343 160.8593430130801
279.2306731431928 20.76658998854091 0.28581658862374093 0.21922189252154145 349.86949367684684 162.27041922778363
284.412585417037 21.918069468750467 0.29074359174052566 0.2249894143101847 351.2000887836266 163.68887481305947
289.7032992122702 23.123430865940225 0.29575552820505524 0.2306016920899494 352.5703075794808 165.1149897852477
295.1055673860831 24.38451504681977 0.300853862127132 0.23656661428271297 353.98060905644974 166.5482047162215
300.6250734626658 25.70790002720107 0.3060400828553784 0.24263779812409947 355.4334521442952 167.985546141962
306.2629978571605 27.092417065261266 0.3113157054123131 0.24831998114039466 356.9277197298895 169.42797804232237
312.0214966673664 28.538529352055203 0.3166822709369256 0.2538541104542591 358.4631014669581 170.8756920374787
317.9036494111742 30.048126085066315 0.3221413471348811 0.2597359108053192 360.03988091456415 172.3281747479247
323.9164360611114 31.628890065835524 0.32769452873648597 0.2656390932017807 361.66030746350987 173.78185544558517
330.06021547034334 33.278110584552124 0.3333434379625472 0.2710787578055842 363.3227610243933 175.23867305073648
336.3377248306841 34.996751726455315 0.3390897249982634 0.27638164452897485 365.0270429856405 176.69867300893014
342.75239563416363 36.78671837750218 0.3449350684752844 0.2820159576097043 366.7732551876847 178.16142771359964
349.3127469329602 38.65679115669434 0.35088117596208035 0.28759239956345484 368.5632457970251 179.62281308437977
356.0179982424811 40.60254779373834 0.3569297844627652 0.2926507180164095 370.39513942729127 181.08586093941702
362.87161894726887 42.62554485678177 0.3630826609245175 0.2976058496429581 372.26881070045994 182.55041400308298
369.8776838050342 44.72802159039085 0.3693416027537498 0.3028324596598386 374.18425749083553 184.01597196044224
377.04571989459646 46.91882012835673 0.3757084383411748 0.30793255850782497 376.1425479489815 185.47847044374714
384.37423920137996 49.19272886637786 0.3821850275959231 0.3125215544923945 378.1420680020603 186.9415202760738
391.8673537720589 51.551645656583794 0.38877326248886857 0.31704011341831206 380.18264288681297 188.40489537630313
399.53022857376277 53.998550771733285 0.3954750676053199 0.32173794710659864 382.2641765278808 189.86781153455445
407.3724291860139 56.54109433027862 0.4022924007072386 0.3262560177033471 384.38684656688184 191.32699317636136
415.3926093188036 59.174483419942426 0.40922725330514964 0.33032373141907057 386.54960838431725 192.78593445174437
423.5953061809909 61.90062597545923 0.41628165123991057 0.3343330679737635 388.75217980057613 194.2445223409546
431.9870027817532 64.72329723895402 0.4234576552745099 0.33844367777413575 390.99427615507426 195.70167441052624
440.5770251421459 67.64881573370899 0.43075736169606577 0.34234063934627335 393.27543963785325 260.32387031242513
449.3643086509324 70.67296114055506 0.4381829029282034 0.3459597674454695 395.59516773161965 230.5809841635452
458.98205470195774 74.01664022530461 0.44625673195793175 0.009212655638611733 397.95311125729603 200.34811074267287
749.1104622214624 78.00237860897309 1.327575524959676 0.01826302947437064 400.3486982341418 169.96344496016272
1005.9279661506163 83.72136028916275 2.112537527225551 0.02848644584824847 402.78113502043635 139.89091456705347
1224.876675512274 91.11906652235777 2.795574095231015 0.036787089749976964 405.2503908250171 110.34102154090797
1445.0812161788303 99.8840861436198 3.5096804531218715 0.04004520733404146 407.7560864453435 80.9790415018448
1703.7613239431196 110.31628502838208 4.391929784362775 0.2106873368330684 410.2972643916196 50.15758673048552
1751.5826691666236 121.89770645949612 4.537411607535244 0.4486414442168325 412.8731075256692 21.087082515356904
1773.5212824318305 133.81821951515346 4.590599523519862 0.5452862098403668 415.48395412590855 2.4704015341254966
1795.8307252678762 146.02700369626277 4.644142383187177 0.5462706623354614 418.12942481666244 0.0
1818.790893709011 158.54639035989933 4.698866006617112 0.5443887940795675 420.80808286670407 0.0
1842.3712468939855 171.36204007238885 4.754723913201686 0.5425877515645996 423.519388423576 0.0
1866.602453027845 184.48716819829863 4.8117609816068345 0.5407018318460532 426.263926491692 0.0
1891.5236343724312 197.93748191015334 4.8700249696978535 0.5388692247389617 429.04133904117657 0.0
1917.084959465875 211.6895416906468 4.929428165527631 0.5369974415305281 431.84962364736657 0.0
1943.3750797290625 225.7800893863831 4.990087725487189 0.5351442081485889 434.68879187402194 0.0
1970.334737428383 240.18474074369615 5.0519275814336675 0.5332903944503329 437.55954505588323 0.0
1998.071459857022 254.94754563631142 5.115085777167783 0.5314294717733876 440.4615602408136 0.0
2026.4843541778027 270.0231819897903 5.179401205093522 0.5295912816099841 443.39219174670734 0.0
2055.692476286572 285.46152072937275 5.245035817360847 0.5277274455633982 446.35224304333093 0.0
2085.638084437598 301.23898066538146 5.311916640073348 0.5259111072814218 449.3424024244641 0.0
2116.4060568554346 317.3898673726931 5.3801492541238565 0.524051156302634 452.3623894048231 0.0
2147.936137442521 333.8849985149389 5.44962030000154 0.5222572783263715 455.4088468583903 0.0
2180.282328683993 350.7482303832585 5.52041356913527 0.5204098521918725 458.48357591050296 0.0
2213.4904125203 367.9984714818298 5.592589572697907 0.5186145846851273 461.5871295346198 0.0
2247.530967927495 385.62293181363935 5.66610483244441 0.5168040682525232 464.7192724425523 0.0
2282.4462683947045 403.63346410423844 5.7409699686876206 0.5149677049597718 467.87587687666405 0.0
2318.2430089028453 422.03580111974543 5.817218036023592 0.5132328943252791 471.0599151315838 0.0
2354.9343197182634 440.8351845586549 5.894865071494848 0.5114254108925733 474.2716930347005 0.0
2392.6115567138318 460.06788644117273 5.974019738305718 0.5096095168358366 477.5110201023164 0.0
2431.177206966814 479.6877574930935 6.054506602684478 0.5078976526893477 480.77294680996494 0.0
2470.7017839639598 499.72809487534573 6.1364522257733904 0.5061385312577356 484.06176219100337 0.0
2511.255335524305 520.2165153089453 6.219938358135465 0.504354872442363 487.37742484726095 0.0
2552.8351686357214 541.1506717273759 6.304951606558841 0.5026336231668358 490.71942709513365 0.0
2595.3861392712834 562.5018445640759 6.391371571532455 0.5009465637322199 494.0830324628434 0.0
2638.99318095221 584.3094524285925 6.479345009145092 0.4992137538039998 497.47289006040484 0.0
2683.7287754271947 606.6016916935839 6.56895330835343 0.49747497407992025 500.8888825459008 0.0
2729.5715192851785 629.3680348018801 6.66015462310532 0.4957970845362816 504.3299917615031 0.0
2776.4845615224635 652.5879617154628 6.7528576541547185 0.4941400193198051 507.7922253856572 0.0
2824.5572977246347 676.3023914662092 6.847212093660547 0.4924897746671064 511.2801267663313 0.0
2873.8187791202854 700.5221110286324 6.9432462090638625 0.490811408741739 514.7936148893198 0.0
2924.314961531271 725.262478353262 7.040991006524108 0.48913804936496597 518.3310928584808 0.0
2975.9956613621844 750.4987770595627 7.140347975509313 0.48751497985025694 521.8894715714698 0.0
3028.948086808399 776.2706425489162 7.241460628920681 0.4859060173396319 525.4730848306887 0.0
3083.203676807818 802.5897060125304 7.344358975612017 0.4843062489685046 529.0818842067226 0.0
3138.760633563058 829.4514701510664 7.449009872609141 0.48271722099789205 532.7136335653959 0.0
3195.6182087133357 856.8520775843059 7.555383149765507 0.48114007684918114 536.3662857953279 0.0
3253.871391836513 884.8336752812293 7.663626594486761 0.4795732312051486 540.0438741161018 0.0
3313.5542999385657 913.408837382106 7.773772106579682 0.4780080113585976 543.7463790946406 0.0
3374.666326132027 942.5723799698765 7.88577822561128 0.4764521193387372 547.4708712870953 0.0
3437.216962445517 972.3259557770662 7.999638253205138 0.47492102943881154 551.216467733508 0.0
3501.2942898665506 1002.7083423966012 8.115486386019631 0.4734068427637963 554.9868210458568 0.0
3566.9351432159892 1033.7330719236452 8.233356395116411 0.4719043053188203 558.781937487146 0.0
3634.1119045946434 1065.3832490489112 8.353166506602902 0.470415117836672 562.5981454122898 0.0
3702.8662140692077 1097.6747641058403 8.474959628874693 0.4689395094260629 566.4358348263322 0.0
3773.2924021160557 1130.6480268218781 8.598870050664823 0.4674763974777214 570.2982070044372 0.0
3845.4303414714773 1164.3176351367874 8.724933567743287 0.4660257328440176 574.1852909518561 0.0
3919.235368706464 1198.658798271857 8.853038686747839 0.4645893485127761 578.0926279967849 0.0
3994.7778610346636 1233.7004184761586 8.983274831292153 0.4631669115813981 582.021979385741 0.0
4072.1493905315288 1269.4809239250212 9.11576534548497 0.4617575517710879 585.9760320290837 0.0
4151.393062368083 1306.016044283787 9.25054811911507 0.46035415821430004 589.9548350790684 0.0
4232.4587281685845 1343.2774374361602 9.387493420104546 0.4589590936747143 593.9531011119569 0.0
4315.450720620026 1381.3091261429972 9.526743512035123 0.45758322405131757 597.9740527294582 0.0
4400.446754812455 1420.1432057834268 9.668398118405868 0.45622541378526815 602.019805726412 0.0
4487.4935478351135 1459.7966656840138 9.812497394327695 0.45488117385302207 606.0904271513187 0.0
4576.50198358466 1500.2247935566556 9.958857955861792 0.45355244344086465 610.1797613821134 0.0
4667.618619423805 1541.4900455444392 10.107684841728355 0.4522376458626596 614.2925763096104 0.0
4760.923377579921 1583.6242287618138 10.259070198838863 0.4509364861855554 618.4303648993331 0.0
4856.466631399485 1626.6456073490358 10.413056424800496 0.4496417008778586 622.5932101621104 0.0
4954.151396590247 1670.5048320436904 10.569437713511608 0.4483455689047453 626.7740504200112 0.0
5054.20097876816 1715.2958536400465 10.728516514657553 0.4470684786926036 630.9792782513232 0.0
5156.643667075005 1761.0297415597424 10.89032212924148 0.4458209210234543 635.2097160524316 0.0
5261.5339133807665 1807.726177104995 11.05489938184039 0.4445656914577434 639.4654611461091 0.0
