e[MeV/fm^3], P[MeV/fm^3], rho[fm^-3], v2[1], mu_q[MeV], mu_e[MeV]
70.21755168181654 0.006206087273093519 0.07407856508846018 0.017597877650005332 316.5185077347417 89.2771661002368
71.43578994790998 0.027644495228360377 0.07535555647246353 0.0175978776500052 316.5894798429086 89.8124074562691
72.67502861766434 0.04945246571785267 0.07665456106626496 0.017597877650005228 316.6616753923034 90.35687548400062
73.93562970314778 0.07163636938565421 0.07797595834102777 0.01759787765000538 316.7351154730202 90.91072923592193
75.21796145691394 0.09420268669514797 0.07932013430936638 0.01759787765000533 316.8098215387112 91.47413050632369
76.5223984795798 0.11715800982215896 0.0806874816381126 0.01759787765000522 316.8858154128541 92.04724387856187
77.84932182925448 0.14050904458066893 0.08207839976302188 0.017597877650005325 316.96311929512683 92.630236773136
79.19911913285509 0.16426261238173973 0.08349329500545777 0.017597877650005436 317.0417557678931 93.22327949659658
80.57218469934486 0.18842565222626206 0.08493258069109116 0.017597877650005332 317.12174780279906 93.82654529129692
81.96891963491473 0.21300522273190858 0.08639667727063695 0.017597877650005284 317.20311876748366 94.44021038599915
83.38973196016327 0.23800850419525207 0.0878860124426853 0.017597877650005242 317.2858924324053 95.06445404735784
84.83503672928572 0.26344280068923775 0.08940102127863886 0.01759787765000527 317.37009297778565 95.69945863228664
86.3052561513196 0.28931554219685157 0.0909421463498059 0.01759787765000538 317.45574500067295 96.34540964122833
87.80081971348744 0.3156342867816875 0.09250983785669148 0.017597877650005325 317.54287352212793 97.00249577234631
89.32216430665855 0.3424067227958098 0.09410455376051008 0.01759787765000531 317.63150399453286 97.67090897664707
90.86973435297011 0.3696406711256137 0.09572675991696154 0.017597877650005242 317.7216623090265 98.3508445140514
92.44398193566516 0.39734408747669764 0.0973769302123309 0.017597877650005228 317.8133748030682 99.04250101043964
94.04536693114535 0.4255250646977123 0.09905554670190979 0.01759787765000531 317.90666826813106 99.74608051566989
95.67435714332068 0.45419183514462985 0.10076309975082554 0.017892055534992374 318.00156995752883 100.46178856260559
97.33169327479138 0.4843410207312542 0.10250008817728433 0.018775745774211428 318.10048622561175 101.18570399772256
99.01814146064449 0.5170082040359527 0.10426701939828847 0.020025246310001077 318.2058447860128 101.91428658825437
100.73429318912723 0.5525181669555139 0.1060644095778678 0.02129999675038627 318.31828524079526 102.64750316311726
102.48063871606901 0.5907964457966746 0.10789278377786223 0.022549781036994038 318.43751805132047 103.38670836290729
104.25774423592242 0.6320103592916358 0.10975267611130558 0.023887708108000116 318.5638120290785 104.13237516689382
106.06623539667063 0.676492214395437 0.11164462989845152 0.025339806313660923 318.697770868173 104.88465247088972
107.90674784282342 0.7245234535359056 0.11356919782549418 0.026726883379044414 318.8398212612412 105.64215664334085
109.77980899298537 0.7757858510810522 0.11552694210601787 0.028008654354195556 318.9889635986241 106.39548846211913
111.68603200563659 0.8304189676497289 0.11751843464523576 0.02941848660514751 319.1453310518051 107.14305877628786
113.62612253642692 0.8889903796251314 0.1195442572070575 0.0310000273545607 319.31003653378224 107.89037199216354
115.60075117782822 0.9518318179215621 0.1216050015840337 0.03259969837934959 319.4836179784206 108.6399435927219
117.61049319554543 1.0189345897359714 0.12370126977023699 0.03419210470702347 319.6659546827271 109.3941654142798
119.65602415051524 1.0905481505064962 0.12583367413711752 0.03592218882239359 319.8573917239201 110.15411877028433
121.73815641876267 1.1672766767204164 0.12800283761239192 0.03778190969818496 320.0588603075681 110.92020174565145
123.85759205422588 1.2493614886182018 0.1302093938620144 0.0396255479711905 320.27062777688235 111.69348487044105
126.01496433860267 1.3368161240061027 0.13245398747528928 0.041461386350795104 320.4925793312381 112.47517112638602
128.2110155783424 1.429932568241939 0.13473727415316794 0.04346252473119688 320.7250671173629 113.26594974297757
130.4466887956552 1.52951487508801 0.1370599208997976 0.045590760196347446 320.969220213987 114.06610244230104
132.72270298041246 1.6357091714792171 0.13942260621736857 0.04767926014436641 321.22510082538804 114.87651716166351
135.03976205186157 1.748593799706529 0.14182602030432198 0.04977029748745049 321.49267975935425 115.69799950047124
137.3986835249372 1.8685229353243933 0.14427086525697244 0.05206400529136951 321.77234677231564 116.53110782929468
139.80057355445675 1.9965668028217445 0.14675785527460983 0.05448295484632937 322.0654823434704 117.37614392238619
142.24614757531495 2.1327305435734982 0.1492877168681315 0.05683638595368079 322.37191652081754 118.23384218287305
144.73619757503982 2.2771938463603174 0.15186118907227755 0.059208520968313694 322.69174413674494 119.10477732777403
147.27162660197732 2.430390920319256 0.15447902366151722 0.0618292055008095 323.0254080857181 119.98940983187808
149.85374556019306 2.5937403356179334 0.15714198536966398 0.06457197399617759 323.3745941649684 120.88804723823948
152.4832372283129 2.7670401807274834 0.15985085211327107 0.06721882453614525 323.7388555425644 121.80124809303793
155.16100474728017 2.9506159576823916 0.1626064152188807 0.06990575565196155 324.1184454344821 122.72942464238325
157.8880490867394 3.1450019316856195 0.16540947965419006 0.07289593855263288 324.5138717435153 123.67293532678868
160.66593902373984 3.3520690822739376 0.16826086426320178 0.07600220080988451 324.92718571735776 124.63202719571277
163.4952840125817 3.5713158744339593 0.17116140200542868 0.07897532922519734 325.3576004812541 125.6070903482084
166.37712853614147 3.8032695276021222 0.17411194019922174 0.08202037368123771 325.8055622707938 126.59840218489457
169.31260061973967 4.048620249866702 0.17711334076929286 0.08542133552471287 326.2716886567447 127.60620334892384
172.303551331823 4.309718566586897 0.18016648049850292 0.0889270452590527 326.7583492276527 128.63058410314463
175.35050383107742 4.585737524453315 0.1832722512839939 0.09226446929582366 327.26444376458807 129.67181814230588
178.45466868853612 4.877441713994387 0.18643156039773165 0.09572802473872655 327.7906096931573 130.73004905217363
181.61738960046912 5.18586172672753 0.18964533075154347 0.09956214286511778 328.3377308078966 131.80536363429957
184.84067158507494 5.5134958934314255 0.19291450116672415 0.10348029397253222 328.90808973361146 132.89762523650757
188.12508868773136 5.859506730761704 0.19624002664828616 0.10723125726635341 329.50063467169656 134.00704679883177
191.47199658539387 6.224818666062787 0.19962287866394354 0.11114950466071183 330.116072530961 135.1336328978941
194.88301649425165 6.610906017540677 0.2030640454278977 0.11522698201724202 330.7555888744374 136.2772622126371
219.96217386792404 9.894911397807252 0.22763920802303006 0.004002168853610617 331.42129567013734 158.49366892909848
540.186031236062 11.176501345949063 1.3121666842333082 0.00400216885361062 332.11220306471756 104.46887629809281
1582.7013472601434 15.348823673152665 4.647182695055748 0.005076045384748918 332.8290718474655 48.41405963900911
2366.60145646396 19.960921114957884 7.154501608827011 0.7931109498587663 333.57341318817043 5.682957623840187
2373.539425311674 25.51183990339552 7.175255560250467 0.8000783673547549 334.34705688852574 3.1313570821366175
2380.7319960715154 31.266460174012508 7.196771117243589 0.7997085346431643 335.149090910276 0.48612072407822815
2388.2375959151 37.26585580343087 7.219115297067059 0.7992433730126036 335.9803024130194 0.0
2396.0347540991547 43.49704101674621 7.242303518012317 0.7987069764004846 336.84253077264475 0.0
2404.1678999939472 49.98918909888958 7.2664117970166116 0.7978950018152418 337.73719306437926 0.0
2412.6216434371972 56.7314159091564 7.291409208031432 0.7971561869971087 338.6634726746745 0.0
2421.410220827055 63.7337474284759 7.3173246480221295 0.7963489910762656 339.6221443059857 0.0
2430.5582357267517 71.01490620060385 7.344221524751175 0.7954966608252199 340.61534675451054 0.0
2440.079603364595 78.58485044340756 7.372130014830821 0.7946879997143808 341.6439533067965 0.0
2449.9632947245636 86.43560788728452 7.4010259773552365 0.7937443640112694 342.70726027181 0.0
2460.243540733699 94.58940099194625 7.43095962837701 0.7929314176806277 343.8059831368225 0.0
2470.9044463529644 103.0403342384601 7.461953006281371 0.7919170658991002 344.9424917462097 0.0
2482.0223937513956 111.83571244271984 7.494095125374066 0.7907980908184724 346.11701155796936 0.0
2493.534112476415 120.93559118926463 7.527305646268157 0.7899971889883872 347.328966229596 0.0
2505.474567523271 130.36243485861016 7.56163377944907 0.7888376811793618 348.57896372915343 0.0
2517.8947158479605 140.15151681441128 7.597178105931257 0.78774771686302 349.86949367684684 0.0
2530.7613611839993 150.28167274095128 7.63389373896747 0.7868098376579802 351.2000887836266 0.0
2544.088928756096 160.7609033288938 7.671789284384226 0.7855490508271652 352.5703075794808 0.0
2557.9222233064115 171.61710647378607 7.7109222139295275 0.7842813733716616 353.98060905644974 0.0
2572.25562456483 182.8510023373405 7.751327606314431 0.783213858943383 355.4334521442952 0.0
2587.0895519303094 194.46080982215585 7.792987053260746 0.7820771594456639 356.9277197298895 0.0
2602.432303754653 206.45089854233646 7.835904469208691 0.7807065716778192 358.4631014669581 0.0
2618.329115681333 218.84886743708455 7.880134678165459 0.7792860661723822 360.03988091456415 0.0
2634.7813327001704 231.6593489577782 7.925716992597887 0.7780082829167645 361.66030746350987 0.0
2651.7837530907054 244.8761370199148 7.97261818637415 0.7766831150103108 363.3227610243933 0.0
2669.3464273942423 258.5047177232865 8.020845898539523 0.7753096084959017 365.0270429856405 0.0
2687.482621561901 272.5530115427942 8.070416371197414 0.7738910710901772 366.7732551876847 0.0
2706.2241940142467 287.04321951455796 8.121395890198647 0.7724294831005274 368.5632457970251 0.0
2725.564255192612 301.96750144900403 8.17374492243462 0.7709298155517628 370.39513942729127 0.0
2745.5141424144754 317.3320864162517 8.227473634709549 0.7693949894525858 372.26881070045994 0.0
2766.0866339469944 333.1442504400088 8.282595833875403 0.7678275578626277 374.18425749083553 0.0
2787.30634494732 349.42026622035485 8.339156465346388 0.7662293948703649 376.1425479489815 0.0
2809.1689225877117 366.15412999638886 8.397123071945334 0.7646043244054663 378.1420680020603 0.0
2831.685541290097 383.35172028977246 8.456504652712715 0.7629543987682084 380.18264288681297 0.0
2854.868346806029 401.0195996146538 8.517312569305403 0.7612816583892315 382.2641765278808 0.0
2878.7326987750057 419.1667107844593 8.57956631917329 0.7595878159235347 384.38684656688184 0.0
2903.280252798279 437.79152968419606 8.643249551880274 0.7578753299390222 386.54960838431725 0.0
2928.5211795044434 456.89897850405674 8.708368172942373 0.7561458528378129 388.75217980057613 0.0
2954.4656669578308 476.493945882997 8.77492802085139 0.7543711597098017 390.99427615507426 0.0
2981.1309198127856 496.58494268740145 8.842939532777592 0.7524839577246425 393.27543963785325 0.0
3008.5461108078057 517.187139448897 8.9124252423428 0.750600324587074 395.59516773161965 0.0
3036.6945440817613 538.2896974018752 8.983360528546811 0.7487956450319739 397.95311125729603 0.0
3065.5830131906905 559.8947846329133 9.055742420824645 0.7469820611111668 400.3486982341418 0.0
3095.215528273736 582.0024704666431 9.129561084326939 0.7450139872622152 402.78113502043635 0.0
3125.6560944801845 604.6483540850621 9.204884311204607 0.743008148511791 405.2503908250171 0.0
3156.8730089757223 627.8130193901643 9.281670735686848 0.7411387406079886 407.7560864453435 0.0
3188.862549166038 651.4916730461061 9.359899202731963 0.7391695445044224 410.2972643916196 0.0
3221.6698249015176 675.7071456898827 9.43960318476213 0.7371125674430008 412.8731075256692 0.0
3255.302779341361 700.4639290386311 9.520796204843991 0.7351580847203749 415.48395412590855 0.0
3289.7432404447495 725.7503491241478 9.603451501039736 0.7331115399855612 418.12942481666244 0.0
3325.0528387154814 751.5965746285412 9.687608856997775 0.7310131289875912 420.80808286670407 0.0
3361.1915802885305 777.9783868915991 9.773215393630384 0.7290052841281867 423.519388423576 0.0
3398.196192164371 804.9166968196741 9.860319329290716 0.7268873181151321 426.263926491692 0.0
3436.11010238064 832.4337142240574 9.948959321837398 0.7248156246514608 429.04133904117657 0.0
3474.867769681162 860.4878149814294 10.039030047578976 0.7226818039069265 431.84962364736657 0.0
3514.571025911441 889.1337912082753 10.130637822203798 0.7205564975227787 434.68879187402194 0.0
3555.1523132058023 918.3356858623833 10.223722764708288 0.7184115626187815 437.55954505588323 0.0
3596.7336106881517 948.1579558823755 10.318405802220457 0.7162458619473959 440.4615602408136 0.0
3639.188581972467 978.524623952708 10.414506799277301 0.7140874488494973 443.39219174670734 0.0
3682.655547990796 1009.5113156810374 10.512182885004421 0.711885744445425 446.35224304333093 0.0
3727.069215812785 1041.0836930864984 10.611376813729946 0.7097216628114733 449.3424024244641 0.0
3772.5244778302363 1073.29082016486 10.712180643479975 0.707491035904102 452.3623894048231 0.0
3818.9395888507584 1106.0791126066829 10.814448326665655 0.7053226869418872 455.4088468583903 0.0
3866.3809586163356 1139.4876603107966 10.918279038231354 0.7030729775748998 458.48357591050296 0.0
3914.900967724223 1173.5444906308699 11.023734749915478 0.7008714798566249 461.5871295346198 0.0
3964.4640408280584 1208.229098966151 11.13077302611707 0.6986331294216992 464.7192724425523 0.0
4015.101856644264 1243.5455996519636 11.239350225054364 0.6963474309521391 467.87587687666405 0.0
4066.8308996637393 1279.5096026626077 11.349534657468059 0.6941716616604445 471.0599151315838 0.0
4119.665647532836 1316.128436524261 11.461344803305238 0.6918869252656155 474.2716930347005 0.0
4173.70628276505 1353.4523667442647 11.574876676164095 0.6895760274014915 477.5110201023164 0.0
4228.82372968081 1391.398866383979 11.68990742730099 0.6873806483108389 480.77294680996494 0.0
4285.111089885323 1430.0273083105214 11.80660709500224 0.6851076027478129 484.06176219100337 0.0
4342.644593470437 1469.3754712626887 11.92504922858381 0.6827864859368233 487.37742484726095 0.0
4401.4174738688 1509.436902125319 12.045215140440087 0.680529935021557 490.71942709513365 0.0
4461.3489301545405 1550.1547487690816 12.166934603337843 0.67830193603527 494.0830324628434 0.0
4522.549055243185 1591.597854871593 12.290400603005557 0.6759963195993031 497.47289006040484 0.0
4585.095592959108 1633.8038324347826 12.415685381343136 0.6736664961269341 500.8888825459008 0.0
4648.959020098984 1676.753014275934 12.542737879193492 0.6714014781119069 504.3299917615031 0.0
4714.081383577239 1720.4022488175333 12.671423842985604 0.6691483768009512 507.7922253856572 0.0
4780.57686021114 1764.8217797896343 12.801937554451786 0.6668884892846378 511.2801267663313 0.0
4848.4750725711365 1810.024678278264 12.934303585102889 0.6645731203698944 514.7936148893198 0.0
4917.817804005534 1856.025000297287 13.068529427155937 0.6622485096070037 518.3310928584808 0.0
4988.53574731188 1902.7765188236122 13.204485947458876 0.6599772240044448 521.8894715714698 0.0
5060.739442865436 1950.3466602125848 13.342359124077946 0.6577096536224563 525.4730848306887 0.0
5134.460820759563 1998.7494042618519 13.48217552716881 0.6554391128506989 529.0818842067226 0.0
5209.686632763948 2047.9690574693793 13.623876267368983 0.6531679289877985 532.7136335653959 0.0
5286.4054459254 2097.991370366385 13.76740758852481 0.6508978988607197 536.3662857953279 0.0
5364.734610444647 2148.8858037155856 13.91295546362072 0.6486269094096144 540.0438741161018 0.0
5444.708632945245 2200.6673413798635 14.06054855066438 0.6463423175975755 543.7463790946406 0.0
5526.312115733194 2253.316439314124 14.210111476440918 0.6440556233379393 547.4708712870953 0.0
5609.549154889721 2306.8300896711503 14.361626777657039 0.6417897440936802 551.216467733508 0.0
5694.527658275972 2361.271518333768 14.515263199792148 0.639533426378831 554.9868210458568 0.0
5781.284750417937 2416.656732189878 14.671051428251266 0.6372791788834746 558.781937487146 0.0
5869.772475293114 2472.947493974563 14.828869979689003 0.6350297814293793 562.5981454122898 0.0
5960.03456722388 2530.164202604105 14.988762771766051 0.6327858306250107 566.4358348263322 0.0
6052.183255644636 2588.3702214479117 15.150892809387745 0.6305459267411067 570.2982070044372 0.0
6146.25857666409 2647.582681789395 15.31529290630285 0.6283102343355544 574.1852909518561 0.0
6242.190523683658 2707.7495881207915 15.48180449105909 0.6260818420473377 578.0926279967849 0.0
6340.059111845082 2768.9133688827264 15.650531328836047 0.6238605135614108 582.021979385741 0.0
6439.970904175457 2831.1324252772097 15.821619868998372 0.6216451624146817 585.9760320290837 0.0
6541.969027811819 2894.425075856621 15.995105082954746 0.6194246947313324 589.9548350790684 0.0
6645.973368174712 2958.7309698098966 16.170801176846066 0.6172030833315887 593.9531011119569 0.0
6752.106051875072 3024.1175775983293 16.348878657829715 0.6149978691764382 597.9740527294582 0.0
6860.455971510782 3090.632448820675 16.529455200164236 0.6128075891642943 602.019805726412 0.0
6971.06969348372 3158.2952095754813 16.71256805911392 0.6106254093094563 606.0904271513187 0.0
7083.821700207346 3227.0205848049295 16.89797161716843 0.6084547884924447 610.1797613821134 0.0
7198.885384932983 3296.9057506101585 17.085913209992977 0.6062934718628838 614.2925763096104 0.0
7316.348588876828 3367.9949441252998 17.276495608891853 0.6041412751443076 618.4303648993331 0.0
7436.261359053123 3440.309113897049 17.469758307337386 0.6019862972173176 622.5932101621104 0.0
7558.485041061825 3513.7527766699095 17.66542367677261 0.599815687127025 626.7740504200112 0.0
7683.280220040128 3588.469289745642 17.863848293838327 0.5976640198906669 630.9792782513232 0.0
7810.677419151811 3664.4735705801013 18.06506932440868 0.5955491869256893 635.2097160524316 0.0
7940.7305534719435 3741.7880239462 18.269128646043765 0.5934179805365787 639.4654611461091 0.0
