e[MeV/fm^3], P[MeV/fm^3], rho[fm^-3], v2[1], mu_q[MeV], mu_e[MeV]
70.21755168181654 0.006206087273093519 0.07407856508846018 0.017597877650005332 316.5185077347417 89.2771661002368
71.43578994790998 0.027644495228360377 0.07535555647246353 0.0175978776500052 316.5894798429086 89.8124074562691
72.67502861766434 0.04945246571785267 0.07665456106626496 0.017597877650005228 316.6616753923034 90.35687548400062
73.93562970314778 0.07163636938565421 0.07797595834102777 0.01759787765000538 316.7351154730202 90.91072923592193
75.21796145691394 0.09420268669514797 0.07932013430936638 0.01759787765000533 316.8098215387112 91.47413050632369
76.5223984795798 0.11715800982215896 0.0806874816381126 0.01759787765000522 316.8858154128541 92.04724387856187
77.84932182925448 0.14050904458066893 0.08207839976302188 0.017597877650005325 316.96311929512683 92.630236773136
79.19911913285509 0.16426261238173973 0.08349329500545777 0.017597877650005436 317.0417557678931 93.22327949659658
80.57218469934486 0.18842565222626206 0.08493258069109116 0.017597877650005332 317.12174780279906 93.82654529129692
81.96891963491473 0.21300522273190858 0.08639667727063695 0.017597877650005284 317.20311876748366 94.44021038599915
83.38973196016327 0.23800850419525207 0.0878860124426853 0.017597877650005242 317.2858924324053 95.06445404735784
84.83503672928572 0.26344280068923775 0.08940102127863886 0.01759787765000527 317.37009297778565 95.69945863228664
86.3052561513196 0.28931554219685157 0.0909421463498059 0.01759787765000538 317.45574500067295 96.34540964122833
87.80081971348744 0.3156342867816875 0.09250983785669148 0.017597877650005325 317.54287352212793 97.00249577234631
89.32216430665855 0.3424067227958098 0.09410455376051008 0.01759787765000531 317.63150399453286 97.67090897664707
90.86973435297011 0.3696406711256137 0.09572675991696154 0.017597877650005242 317.7216623090265 98.3508445140514
92.44398193566516 0.39734408747669764 0.0973769302123309 0.017597877650005228 317.8133748030682 99.04250101043964
94.04536693114535 0.4255250646977123 0.09905554670190979 0.01759787765000531 317.90666826813106 99.74608051566989
95.67435714332068 0.45419183514462985 0.10076309975082554 0.017892055534992374 318.00156995752883 100.46178856260559
97.33169327479138 0.4843410207312542 0.10250008817728433 0.018775745774211428 318.10048622561175 101.18570399772256
99.01814146064449 0.5170082040359527 0.10426701939828847 0.020025246310001077 318.2058447860128 101.91428658825437
100.73429318912723 0.5525181669555139 0.1060644095778678 0.02129999675038627 318.31828524079526 102.64750316311726
102.48063871606901 0.5907964457966746 0.10789278377786223 0.022549781036994038 318.43751805132047 103.38670836290729
104.25774423592242 0.6320103592916358 0.10975267611130558 0.023887708108000116 318.5638120290785 104.13237516689382
106.06623539667063 0.676492214395437 0.11164462989845152 0.025339806313660923 318.697770868173 104.88465247088972
107.90674784282342 0.7245234535359056 0.11356919782549418 0.026726883379044414 318.8398212612412 105.64215664334085
109.77980899298537 0.7757858510810522 0.11552694210601787 0.028008654354195556 318.9889635986241 106.39548846211913
111.68603200563659 0.8304189676497289 0.11751843464523576 0.02941848660514751 319.1453310518051 107.14305877628786
113.62612253642692 0.8889903796251314 0.1195442572070575 0.0310000273545607 319.31003653378224 107.89037199216354
115.60075117782822 0.9518318179215621 0.1216050015840337 0.03259969837934959 319.4836179784206 108.6399435927219
117.61049319554543 1.0189345897359714 0.12370126977023699 0.03419210470702347 319.6659546827271 109.3941654142798
119.65602415051524 1.0905481505064962 0.12583367413711752 0.03592218882239359 319.8573917239201 110.15411877028433
121.73815641876267 1.1672766767204164 0.12800283761239192 0.03778190969818496 320.0588603075681 110.92020174565145
123.85759205422588 1.2493614886182018 0.1302093938620144 0.0396255479711905 320.27062777688235 111.69348487044105
126.01496433860267 1.3368161240061027 0.13245398747528928 0.041461386350795104 320.4925793312381 112.47517112638602
128.2110155783424 1.429932568241939 0.13473727415316794 0.04346252473119688 320.7250671173629 113.26594974297757
130.4466887956552 1.52951487508801 0.1370599208997976 0.045590760196347446 320.969220213987 114.06610244230104
132.72270298041246 1.6357091714792171 0.13942260621736857 0.04767926014436641 321.22510082538804 114.87651716166351
135.03976205186157 1.748593799706529 0.14182602030432198 0.04977029748745049 321.49267975935425 115.69799950047124
137.3986835249372 1.8685229353243933 0.14427086525697244 0.05206400529136951 321.77234677231564 116.53110782929468
139.80057355445675 1.9965668028217445 0.14675785527460983 0.05448295484632937 322.0654823434704 117.37614392238619
142.24614757531495 2.1327305435734982 0.1492877168681315 0.05683638595368079 322.37191652081754 118.23384218287305
144.73619757503982 2.2771938463603174 0.15186118907227755 0.059208520968313694 322.69174413674494 119.10477732777403
147.27162660197732 2.430390920319256 0.15447902366151722 0.0618292055008095 323.0254080857181 119.98940983187808
149.85374556019306 2.5937403356179334 0.15714198536966398 0.06457197399617759 323.3745941649684 120.88804723823948
152.4832372283129 2.7670401807274834 0.15985085211327107 0.06721882453614525 323.7388555425644 121.80124809303793
155.16100474728017 2.9506159576823916 0.1626064152188807 0.06990575565196155 324.1184454344821 122.72942464238325
157.8880490867394 3.1450019316856195 0.16540947965419006 0.07289593855263288 324.5138717435153 123.67293532678868
160.66593902373984 3.3520690822739376 0.16826086426320178 0.07600220080988451 324.92718571735776 124.63202719571277
163.4952840125817 3.5713158744339593 0.17116140200542868 0.07897532922519734 325.3576004812541 125.6070903482084
166.37712853614147 3.8032695276021222 0.17411194019922174 0.08202037368123771 325.8055622707938 126.59840218489457
169.31260061973967 4.048620249866702 0.17711334076929286 0.08542133552471287 326.2716886567447 127.60620334892384
172.303551331823 4.309718566586897 0.18016648049850292 0.0889270452590527 326.7583492276527 128.63058410314463
175.35050383107742 4.585737524453315 0.1832722512839939 0.09226446929582366 327.26444376458807 129.67181814230588
178.45466868853612 4.877441713994387 0.18643156039773165 0.09572802473872655 327.7906096931573 130.73004905217363
181.61738960046912 5.18586172672753 0.18964533075154347 0.09956214286511778 328.3377308078966 131.80536363429957
184.84067158507494 5.5134958934314255 0.19291450116672415 0.10348029397253222 328.90808973361146 132.89762523650757
188.12508868773136 5.859506730761704 0.19624002664828616 0.10723125726635341 329.50063467169656 134.00704679883177
191.47199658539387 6.224818666062787 0.19962287866394354 0.11114950466071183 330.116072530961 135.1336328978941
194.88301649425165 6.610906017540677 0.2030640454278977 0.11544544815415358 330.7555888744374 136.2772622126371
198.3602890613904 7.020342674256472 0.2065645321895225 0.11979382346787826 331.42129567013734 137.43754067535426
201.9044613376726 7.452308308070558 0.2101253615270204 0.12397650239191993 332.11220306471756 138.61467605675114
205.5170562570145 7.907903230714149 0.21374757364614289 0.1283699626450635 332.8290718474655 139.80852765902867
209.2000509218192 8.389163756231573 0.21743222668406043 0.1331367755092301 333.57341318817043 141.01869117551004
212.95568685700158 8.89862029273525 0.22118039701847075 0.1379109881763032 334.34705688852574 142.2445530860434
216.7847142491265 9.435507109353031 0.224993179582034 0.1425209986125906 335.149090910276 143.4863497980139
220.6888478651131 10.001107919216421 0.22887168818223044 0.1473848211915132 335.9803024130194 144.74379875149575
224.67051841244387 10.598148441577159 0.23281705582673115 0.15260238957125072 336.84253077264475 146.0161250814302
228.73201076449018 11.228941923303356 0.23683043505437643 0.1577674592771845 337.73719306437926 147.30260528428684
232.87421847820065 11.892825884399452 0.2409129982718618 0.16276966708385543 338.6634726746745 148.60351662363965
237.09907459677976 12.591262929879372 0.2450659380962259 0.1680647442175771 339.6221443059857 149.91845083271977
241.4095830266287 13.327795359770137 0.24929046770324403 0.17367604335428166 340.61534675451054 151.2461733723472
245.80798450797525 14.104290408314728 0.25358782118182577 0.17916063314688135 341.6439533067965 152.5860269646372
250.29536865638684 14.920249387540146 0.2579592538945237 0.18448376658109078 342.70726027181 153.9383214680799
254.87391430339358 15.777295306389933 0.26240604284425445 0.19013115054428797 343.8059831368225 155.30255316107613
259.54734193097937 16.679902122692877 0.2669294870473437 0.19603884001981875 344.9424917462097 156.67695034502995
264.3177234138911 17.62921742422393 0.2715309079130002 0.20173455319505607 346.11701155796936 158.06114921462316
269.1864120746621 18.624978432827973 0.2762116496293318 0.20727097595137622 347.328966229596 159.45546560193614
274.15586021544175 19.66893704821644 0.28097307955601647 0.2131521958171756 348.57896372915343 160.8593430130801
279.2306731431928 20.76658998854091 0.28581658862374093 0.21922189252154145 349.86949367684684 162.27041922778363
284.412585417037 21.918069468750467 0.29074359174052566 0.2249894143101847 351.2000887836266 163.68887481305947
289.7032992122702 23.123430865940225 0.29575552820505524 0.2306016920899494 352.5703075794808 165.1149897852477
295.1055673860831 24.38451504681977 0.300853862127132 0.23656661428271297 353.98060905644974 166.5482047162215
300.6250734626658 25.70790002720107 0.3060400828553784 0.24263779812409947 355.4334521442952 167.985546141962
306.2629978571605 27.092417065261266 0.3113157054123131 0.24831998114039466 356.9277197298895 169.42797804232237
312.0214966673664 28.538529352055203 0.3166822709369256 0.2538541104542591 358.4631014669581 170.8756920374787
317.9036494111742 30.048126085066315 0.3221413471348811 0.2597359108053192 360.03988091456415 172.3281747479247
323.9164360611114 31.628890065835524 0.32769452873648597 0.2656390932017807 361.66030746350987 173.78185544558517
330.06021547034334 33.278110584552124 0.3333434379625472 0.2710787578055842 363.3227610243933 175.23867305073648
336.3377248306841 34.996751726455315 0.3390897249982634 0.27638164452897485 365.0270429856405 176.69867300893014
342.75239563416363 36.78671837750218 0.3449350684752844 0.2820159576097043 366.7732551876847 178.16142771359964
349.3127469329602 38.65679115669434 0.35088117596208035 0.28759239956345484 368.5632457970251 179.62281308437977
356.0179982424811 40.60254779373834 0.3569297844627652 0.2926507180164095 370.39513942729127 181.08586093941702
362.87161894726887 42.62554485678177 0.3630826609245175 0.29769332061129283 372.26881070045994 200.40680597092052
372.8046986393218 45.620172221288506 0.37193063906159296 0.034705605722583854 374.18425749083553 189.02390999809927
408.95031001901486 46.98840730532061 0.500863271049101 0.041001238444992705 376.1425479489815 177.44539231789201
465.01521214721845 49.56087626807736 0.69995189544319 0.05105926628355112 378.1420680020603 165.99683324775677
517.1344058894748 52.472803029821335 0.8853633287619416 0.061545252901910485 380.18264288681297 154.6866956932295
565.6079248898637 55.711950911091364 1.0582788837443198 0.07292797286647157 382.2641765278808 143.51623892296672
610.835291858712 59.267910748386655 1.2200794652515539 0.08510016651730379 384.38684656688184 132.4814198266701
653.1955869539851 63.129717724663976 1.3720058952146714 0.0980101754091266 386.54960838431725 121.58217320749574
693.0184137708213 67.28899814003144 1.5150479164151462 0.11191258977680796 388.75217980057613 110.81292376283348
730.3710889058966 71.73087826898609 1.648961774456384 0.12557095264043916 390.99427615507426 100.21814271806916
766.178740688873 76.45567527333556 1.7777572592246584 0.13830093585137582 393.27543963785325 89.79221470253955
800.960089319022 81.48055265191753 1.9037625207911648 0.1500256172418517 395.59516773161965 79.51402741062397
835.0864680912687 86.78639120246109 2.028274011959576 0.16074464539050348 397.95311125729603 69.34344478052087
868.7606212734622 92.37439160857113 2.1521540738825613 0.17065316118871543 400.3486982341418 59.27323640152494
902.2507748793429 98.24646398853687 2.2767354510931046 0.17885973585233916 402.78113502043635 49.29467933674454
936.21101051553 104.44188534175946 2.406209070505823 0.17997301746866756 405.2503908250171 39.420325762925756
972.9072411315601 110.94872594670021 2.5542579909639835 0.16605264690690635 407.7560864453435 29.5681207004337
1017.9851999863023 117.81032401925665 2.7574328692772556 0.25889105506004917 410.2972643916196 19.573878125366235
1040.9828265677938 125.01579828630534 2.824062257386319 0.3370186143111322 412.8731075256692 9.63341859701731
1061.7454609989313 132.4575352850818 2.8742026322755247 0.35832789247648567 415.48395412590855 1.7422059317956031
1083.1423499664534 140.12261322883145 2.925553551670531 0.3580708762846161 418.12942481666244 0.0
1105.2504069282943 148.03515454997705 2.978245197343652 0.3577594838935845 420.80808286670407 0.0
1128.0336703757287 156.18271199674808 3.032213874523036 0.35746505131266204 423.519388423576 0.0
1151.5282074582424 164.577639281633 3.087515824407111 0.35715901320214005 426.263926491692 0.0
1175.7821713111798 173.23628024877374 3.144218821543017 0.3568635815651695 429.04133904117657 0.0
1200.7406344438064 182.13956865030795 3.2022198980520455 0.35656433594131975 431.84962364736657 0.0
1226.5105672335008 191.32395334666722 3.2616781189380113 0.3562697961722634 434.68879187402194 0.0
1253.0201498038846 200.76498668370863 3.322484481060731 0.35597771011076196 437.55954505588323 0.0
1280.4000908209478 210.50714138069662 3.3848291300161284 0.35568615816361815 440.4615602408136 0.0
1308.5351917031664 220.51072356314722 3.448514588095839 0.35540063232817287 443.39219174670734 0.0
1337.5681317576723 230.82441724678085 3.513754377588254 0.35511278652958955 446.35224304333093 0.0
1367.4285916916738 241.42430754381144 3.5804438025023244 0.3548345536000084 449.3424024244641 0.0
1398.2206227315974 252.34574005646297 3.6487285667542064 0.3545514009477091 452.3623894048231 0.0
1429.8793670898458 263.5660848354567 3.7184818082695608 0.35428031092900314 455.4088468583903 0.0
1462.4672461189941 275.1067991559064 3.789802804282977 0.3540030504304146 458.48357591050296 0.0
1496.0396349664209 286.98674512374487 3.8627692949645267 0.3537353524213973 461.5871295346198 0.0
1530.5621491672332 299.19413229654185 3.9373241185385095 0.35346738927735055 464.7192724425523 0.0
1566.0963734790148 311.74923187876357 4.0135150734480565 0.3531972719132668 467.87587687666405 0.0
1602.6448798071801 324.6532950580793 4.091363042511914 0.35294384291864844 471.0599151315838 0.0
1640.2238924008836 337.91182634126676 4.170887343602213 0.35268164770875554 474.2716930347005 0.0
1678.9466285466592 351.5632061658443 4.2522371451781735 0.35241981611924 477.5110201023164 0.0
1718.7061138298172 365.5702602443728 4.335214125166686 0.3521746676922115 480.77294680996494 0.0
1759.5798541222512 379.9599144522421 4.419955555217261 0.35192441614721126 484.06176219100337 0.0
1801.6550275139582 394.76169884908694 4.506572837115529 0.35167224053806834 487.37742484726095 0.0
1844.9306873867463 409.97513723611075 4.5950518830055715 0.3514304502213692 490.71942709513365 0.0
1889.3512310284887 425.5805441955289 4.685267415460427 0.3511949566171806 494.0830324628434 0.0
1935.011297326588 441.61070250070566 4.777381231920098 0.3509546230897289 497.47289006040484 0.0
1982.0018053834142 458.09636363423647 4.871504858175465 0.3507148970380012 500.8888825459008 0.0
2030.30002322062 475.02957402147683 4.967589677602905 0.35048501723423175 504.3299917615031 0.0
2079.871272614861 492.3978566650935 5.065543931867201 0.3502593621729444 507.7922253856572 0.0
2130.816229668812 510.23600797586244 5.165534262782127 0.3500359696984736 511.2801267663313 0.0
2183.1723001439036 528.5566183903281 5.2675997325056265 0.349810152074709 514.7936148893198 0.0
2237.001835384966 547.3804726453361 5.371795380267453 0.34958629863088575 518.3310928584808 0.0
2292.2515876871767 566.6889334266251 5.478012348244982 0.34937046826649176 521.8894715714698 0.0
2349.0202980706063 586.5160904969504 5.5864105776056645 0.34915774458771764 525.4730848306887 0.0
2407.348526535757 606.87559115246 5.697031233286863 0.34894743660273875 529.0818842067226 0.0
2467.2411121641994 627.768613566088 5.809847369759532 0.34873971514933455 532.7136335653959 0.0
2528.7037784013105 649.196663150097 5.924834552172834 0.34853469584056995 536.3662857953279 0.0
2591.845989934445 671.1973944888131 6.042160959650177 0.3483321391099574 540.0438741161018 0.0
2656.7118518226207 693.7856422153476 6.161870092076998 0.34813090784810097 543.7463790946406 0.0
2723.3098444856078 716.9636771907645 6.283929309842016 0.34793195432022195 547.4708712870953 0.0
2791.6556891116034 740.7365714358289 6.40833665477203 0.3477372256216862 551.216467733508 0.0
2861.8514580083506 765.1393968839612 6.535244918946165 0.34754566869343684 554.9868210458568 0.0
2933.9448519196126 790.1881925561628 6.664699937038109 0.34735657835395006 558.781937487146 0.0
3007.9127166548406 815.8743839788502 6.796620299918775 0.3471701363105799 562.5981454122898 0.0
3083.807868582364 842.2157997352624 6.931061153736315 0.3469863383200229 566.4358348263322 0.0
3161.741711795605 869.250571601369 7.068179065290308 0.3468050176772399 570.2982070044372 0.0
3241.765975387348 896.9960873317134 7.208022436415355 0.3466261376616062 574.1852909518561 0.0
3323.8384845559044 925.437186207998 7.350475844138886 0.34644989302111284 578.0926279967849 0.0
3408.0446837383543 954.6029547790325 7.495646544137249 0.34627621144829934 582.021979385741 0.0
3494.4942139023406 984.5308187816687 7.643680392821318 0.3461049564467311 585.9760320290837 0.0
3583.243094790058 1015.2396022426776 7.794628474314187 0.3459352450742408 589.9548350790684 0.0
3674.2449190464113 1046.712541637367 7.94835728751255 0.34576733642426305 593.9531011119569 0.0
3767.6241587477243 1078.992155626834 8.105034062084119 0.3456025121366739 597.9740527294582 0.0
3863.4748322673395 1112.1104720050062 8.264777180770052 0.3454406039888376 602.019805726412 0.0
3961.8577628832904 1146.087922186893 8.427640660925025 0.3452810427364321 606.0904271513187 0.0
4062.6799224475853 1180.8918272487335 8.593425128087512 0.3451240305459642 610.1797613821134 0.0
4166.115004458602 1216.5815975002256 8.762370605504392 0.3449693532682323 614.2925763096104 0.0
4272.261938496357 1253.1907834602184 8.934590218641246 0.3448169500845406 618.4303648993331 0.0
4381.186410876614 1290.7414437977789 9.110140902677255 0.34466595395869515 622.5932101621104 0.0
4492.788467603263 1329.198366707545 9.28880014637275 0.3445154541586035 626.7740504200112 0.0
4607.335022465147 1368.6526922292578 9.470927183129987 0.3443677875676352 630.9792782513232 0.0
4724.861450223347 1409.1163950558214 9.656555174947595 0.3442241470982301 635.2097160524316 0.0
4845.438870973861 1450.6133515307135 9.84574423881931 0.3440797860362004 639.4654611461091 0.0
