e[MeV/fm^3], P[MeV/fm^3], rho[fm^-3], v2[1], mu_q[MeV], mu_e[MeV]
70.21755168181654 0.006206087273093519 0.07407856508846018 0.017597877650005332 316.5185077347417 89.2771661002368
71.43578994790998 0.027644495228360377 0.07535555647246353 0.0175978776500052 316.5894798429086 89.8124074562691
72.67502861766434 0.04945246571785267 0.07665456106626496 0.017597877650005228 316.6616753923034 90.35687548400062
73.93562970314778 0.07163636938565421 0.07797595834102777 0.01759787765000538 316.7351154730202 90.91072923592193
75.21796145691394 0.09420268669514797 0.07932013430936638 0.01759787765000533 316.8098215387112 91.47413050632369
76.5223984795798 0.11715800982215896 0.0806874816381126 0.01759787765000522 316.8858154128541 92.04724387856187
77.84932182925448 0.14050904458066893 0.08207839976302188 0.017597877650005325 316.96311929512683 92.630236773136
79.19911913285509 0.16426261238173973 0.08349329500545777 0.017597877650005436 317.0417557678931 93.22327949659658
80.57218469934486 0.18842565222626206 0.08493258069109116 0.017597877650005332 317.12174780279906 93.82654529129692
81.96891963491473 0.21300522273190858 0.08639667727063695 0.017597877650005284 317.20311876748366 94.44021038599915
83.38973196016327 0.23800850419525207 0.0878860124426853 0.017597877650005242 317.2858924324053 95.06445404735784
84.83503672928572 0.26344280068923775 0.08940102127863886 0.01759787765000527 317.37009297778565 95.69945863228664
86.3052561513196 0.28931554219685157 0.0909421463498059 0.01759787765000538 317.45574500067295 96.34540964122833
87.80081971348744 0.3156342867816875 0.09250983785669148 0.017597877650005325 317.54287352212793 97.00249577234631
89.32216430665855 0.3424067227958098 0.09410455376051008 0.01759787765000531 317.63150399453286 97.67090897664707
90.86973435297011 0.3696406711256137 0.09572675991696154 0.017597877650005242 317.7216623090265 98.3508445140514
92.44398193566516 0.39734408747669764 0.0973769302123309 0.017597877650005228 317.8133748030682 99.04250101043964
94.04536693114535 0.4255250646977123 0.09905554670190979 0.01759787765000531 317.90666826813106 99.74608051566989
95.67435714332068 0.45419183514462985 0.10076309975082554 0.017892055534992374 318.00156995752883 100.46178856260559
97.33169327479138 0.4843410207312542 0.10250008817728433 0.018775745774211428 318.10048622561175 101.18570399772256
99.01814146064449 0.5170082040359527 0.10426701939828847 0.020025246310001077 318.2058447860128 101.91428658825437
100.73429318912723 0.5525181669555139 0.1060644095778678 0.02129999675038627 318.31828524079526 102.64750316311726
102.48063871606901 0.5907964457966746 0.10789278377786223 0.022549781036994038 318.43751805132047 103.38670836290729
104.25774423592242 0.6320103592916358 0.10975267611130558 0.023887708108000116 318.5638120290785 104.13237516689382
106.06623539667063 0.676492214395437 0.11164462989845152 0.025339806313660923 318.697770868173 104.88465247088972
107.90674784282342 0.7245234535359056 0.11356919782549418 0.026726883379044414 318.8398212612412 105.64215664334085
109.77980899298537 0.7757858510810522 0.11552694210601787 0.028008654354195556 318.9889635986241 106.39548846211913
111.68603200563659 0.8304189676497289 0.11751843464523576 0.02941848660514751 319.1453310518051 107.14305877628786
113.62612253642692 0.8889903796251314 0.1195442572070575 0.0310000273545607 319.31003653378224 107.89037199216354
115.60075117782822 0.9518318179215621 0.1216050015840337 0.03259969837934959 319.4836179784206 108.6399435927219
117.61049319554543 1.0189345897359714 0.12370126977023699 0.03419210470702347 319.6659546827271 109.3941654142798
119.65602415051524 1.0905481505064962 0.12583367413711752 0.03592218882239359 319.8573917239201 110.15411877028433
121.73815641876267 1.1672766767204164 0.12800283761239192 0.03778190969818496 320.0588603075681 110.92020174565145
123.85759205422588 1.2493614886182018 0.1302093938620144 0.0396255479711905 320.27062777688235 111.69348487044105
126.01496433860267 1.3368161240061027 0.13245398747528928 0.041461386350795104 320.4925793312381 112.47517112638602
128.2110155783424 1.429932568241939 0.13473727415316794 0.04346252473119688 320.7250671173629 113.26594974297757
130.4466887956552 1.52951487508801 0.1370599208997976 0.045590760196347446 320.969220213987 114.06610244230104
132.72270298041246 1.6357091714792171 0.13942260621736857 0.04767926014436641 321.22510082538804 114.87651716166351
135.03976205186157 1.748593799706529 0.14182602030432198 0.04977029748745049 321.49267975935425 115.69799950047124
137.3986835249372 1.8685229353243933 0.14427086525697244 0.05206400529136951 321.77234677231564 116.53110782929468
139.80057355445675 1.9965668028217445 0.14675785527460983 0.05448295484632937 322.0654823434704 117.37614392238619
142.24614757531495 2.1327305435734982 0.1492877168681315 0.05683638595368079 322.37191652081754 118.23384218287305
144.73619757503982 2.2771938463603174 0.15186118907227755 0.059208520968313694 322.69174413674494 119.10477732777403
147.27162660197732 2.430390920319256 0.15447902366151722 0.0618292055008095 323.0254080857181 119.98940983187808
149.85374556019306 2.5937403356179334 0.15714198536966398 0.06457197399617759 323.3745941649684 120.88804723823948
152.4832372283129 2.7670401807274834 0.15985085211327107 0.06721882453614525 323.7388555425644 121.80124809303793
155.16100474728017 2.9506159576823916 0.1626064152188807 0.06990575565196155 324.1184454344821 122.72942464238325
157.8880490867394 3.1450019316856195 0.16540947965419006 0.07289593855263288 324.5138717435153 123.67293532678868
160.66593902373984 3.3520690822739376 0.16826086426320178 0.07600220080988451 324.92718571735776 124.63202719571277
163.4952840125817 3.5713158744339593 0.17116140200542868 0.07897532922519734 325.3576004812541 125.6070903482084
166.37712853614147 3.8032695276021222 0.17411194019922174 0.08202037368123771 325.8055622707938 126.59840218489457
169.31260061973967 4.048620249866702 0.17711334076929286 0.08542133552471287 326.2716886567447 127.60620334892384
172.303551331823 4.309718566586897 0.18016648049850292 0.0889270452590527 326.7583492276527 128.63058410314463
175.35050383107742 4.585737524453315 0.1832722512839939 0.09226446929582366 327.26444376458807 129.67181814230588
178.45466868853612 4.877441713994387 0.18643156039773165 0.09572802473872655 327.7906096931573 130.73004905217363
181.61738960046912 5.18586172672753 0.18964533075154347 0.09956214286511778 328.3377308078966 131.80536363429957
184.84067158507494 5.5134958934314255 0.19291450116672415 0.10348029397253222 328.90808973361146 132.89762523650757
188.12508868773136 5.859506730761704 0.19624002664828616 0.10723125726635341 329.50063467169656 134.00704679883177
191.47199658539387 6.224818666062787 0.19962287866394354 0.11114950466071183 330.116072530961 135.1336328978941
194.88301649425165 6.610906017540677 0.2030640454278977 0.11544544815415358 330.7555888744374 136.2772622126371
198.3602890613904 7.020342674256472 0.2065645321895225 0.11979382346787826 331.42129567013734 137.43754067535426
201.9044613376726 7.452308308070558 0.2101253615270204 0.12397650239191993 332.11220306471756 138.61467605675114
205.5170562570145 7.907903230714149 0.21374757364614289 0.1283699626450635 332.8290718474655 139.80852765902867
209.2000509218192 8.389163756231573 0.21743222668406043 0.1331367755092301 333.57341318817043 141.01869117551004
212.95568685700158 8.89862029273525 0.22118039701847075 0.1379109881763032 334.34705688852574 142.2445530860434
216.7847142491265 9.435507109353031 0.224993179582034 0.1425209986125906 335.149090910276 143.4863497980139
220.6888478651131 10.001107919216421 0.22887168818223044 0.1473848211915132 335.9803024130194 144.74379875149575
224.67051841244387 10.598148441577159 0.23281705582673115 0.15260238957125072 336.84253077264475 146.0161250814302
228.73201076449018 11.228941923303356 0.23683043505437643 0.1577674592771845 337.73719306437926 147.30260528428684
232.87421847820065 11.892825884399452 0.2409129982718618 0.16276966708385543 338.6634726746745 148.60351662363965
237.09907459677976 12.591262929879372 0.2450659380962259 0.1680647442175771 339.6221443059857 149.91845083271977
241.4095830266287 13.327795359770137 0.24929046770324403 0.17367604335428166 340.61534675451054 151.2461733723472
245.80798450797525 14.104290408314728 0.25358782118182577 0.17916063314688135 341.6439533067965 152.5860269646372
250.29536865638684 14.920249387540146 0.2579592538945237 0.18448376658109078 342.70726027181 153.9383214680799
254.87391430339358 15.777295306389933 0.26240604284425445 0.19013115054428797 343.8059831368225 155.30255316107613
259.54734193097937 16.679902122692877 0.2669294870473437 0.19603884001981875 344.9424917462097 156.67695034502995
264.3177234138911 17.62921742422393 0.2715309079130002 0.20173455319505607 346.11701155796936 158.06114921462316
269.1864120746621 18.624978432827973 0.2762116496293318 0.20727097595137622 347.328966229596 159.45546560193614
274.15586021544175 19.66893704821644 0.28097307955601647 0.2131521958171756 348.57896372915343 160.8593430130801
279.2306731431928 20.76658998854091 0.28581658862374093 0.2194363373766608 349.86949367684684 162.27041922778363
285.9306078073475 22.2600375976811 0.2921197125952688 0.08242396977473399 351.2000887836266 164.89249120144936
295.81660129998005 23.13355988112704 0.3287586507914362 0.09429520045270412 352.5703075794808 161.55306704084865
308.64728393067895 24.442274452209926 0.3753050780310506 0.10692167655890195 353.98060905644974 158.3624297421165
321.10477153252367 25.83379250969915 0.4203517712526296 0.117276310484977 355.4334521442952 155.23279956606015
333.1438868309565 27.310559165013107 0.46370724473988023 0.12875717763902195 356.9277197298895 152.17771736552496
344.7613130518435 28.87469321616259 0.5053252124514409 0.1427450163539694 358.4631014669581 149.20402185028075
355.8304290541625 30.540268288690125 0.544637992229037 0.15663416398651564 360.03988091456415 146.35326571518306
366.62923933161187 32.2966660882584 0.5826869977303929 0.16896510305627754 361.66030746350987 143.5707494004192
377.1766634325427 34.143897556974146 0.6195130030719294 0.1815239817338521 363.3227610243933 140.86005719055245
387.506042664923 36.08354952642071 0.6552085522825547 0.19412360604737056 365.0270429856405 138.22146989625062
397.6572310545378 38.117417991450225 0.6898923359739775 0.20656485802972724 366.7732551876847 135.65347725692254
407.6808912680189 40.24939102611078 0.7237224056931201 0.21869358928005833 368.5632457970251 133.1513865479432
417.60622897958876 42.47896195993808 0.7567868324168907 0.23036515860882467 370.39513942729127 130.71518283520027
427.47114480622207 44.8076854864393 0.7892056686317964 0.2414848244509984 372.26881070045994 128.34184933218617
437.31196499623115 47.23733710876834 0.8210949780907321 0.2519883219353378 374.18425749083553 126.02800537844416
447.16787461856495 49.771185200859975 0.8525801307127192 0.2618397405086057 376.1425479489815 123.768994109944
457.06221200661867 52.40910247668543 0.8837359948666947 0.2710116786711976 378.1420680020603 121.56319876481427
467.0234179068158 55.15286013788128 0.9146538683883044 0.2795045538095571 380.18264288681297 119.40726742740088
477.0781690215865 58.00441680751281 0.9454188033472686 0.2873311418933482 382.2641765278808 117.2978219681886
487.25249560327313 60.96620104383976 0.9761126413893232 0.29451501103931355 384.38684656688184 115.23130966711555
497.56484243823564 64.0389976986972 1.0067929794461867 0.3010834408223957 386.54960838431725 113.20543732480714
508.0357626256542 67.22469277327578 1.0375220888540122 0.3070721583096745 388.75217980057613 111.2172230274199
518.6843593878575 70.52522754218288 1.0683549960034278 0.31260020119636156 390.99427615507426 109.26378661911532
529.5284653808975 73.94436168787281 1.099322821179202 0.31786143989432425 393.27543963785325 107.3445569278546
540.5864344393432 77.48815954979777 1.1304040063924505 0.3225321927632656 395.59516773161965 105.46379246936115
551.8707448709391 81.15140706691004 1.161655778620352 0.3264242675957414 397.95311125729603 103.62086058451344
563.4037885332637 84.93719910111076 1.1932904996194411 0.3298727715711016 400.3486982341418 101.8028682081309
575.1973680281453 88.84707681141649 1.2253499263917738 0.33319584728058915 402.78113502043635 100.00667700241213
587.2832839733751 92.89473625805594 1.2578777935821637 0.3362152693208036 405.2503908250171 98.23673288617992
599.6623485213491 97.07335307555478 1.290916385629245 0.33870836221751954 407.7560864453435 96.48415223316903
612.3416295659827 101.38290828510762 1.3244905795443527 0.3410370758189494 410.2972643916196 94.74650686653058
625.3479076762462 105.83384120876632 1.358641959337701 0.34319618271876395 412.8731075256692 93.02625077133803
638.6932961269442 110.42737434747927 1.3934131978434954 0.3450117106243189 415.48395412590855 91.3191728660772
652.377372324204 115.15987726173174 1.4288236829550534 0.3466765351602401 418.12942481666244 89.62066011754182
666.4368833682147 120.04606167936574 1.4649280385446015 0.3481887067238656 420.80808286670407 87.9344069701901
680.8604081527146 125.07783010546892 1.5017282346587002 0.3494516206167195 423.519388423576 86.25478879051458
695.6712633548931 130.26252882330027 1.539276638900159 0.35061730180486705 426.263926491692 84.58021286310188
710.8978704763283 135.60995338925392 1.577628498101695 0.35161866349902926 429.04133904117657 82.91055418388835
726.5149483617722 141.10808357045158 1.6167488059245807 0.3525043630575695 431.84962364736657 81.24226436448264
742.5817198465704 146.77905500587528 1.656744380784011 0.35327822467030945 434.68879187402194 79.57709441771277
759.065274333851 152.60767134368967 1.6975773422739011 0.35393916050315966 437.55954505588323 77.90911840534116
776.0381097147156 158.62091646847387 1.7393785618897333 0.3545200170397562 440.4615602408136 76.24038812227933
793.4397486711099 164.79431343452578 1.7820434874786475 0.35500342509077587 443.39219174670734 74.5676242840293
811.3510737347463 171.15739192386945 1.8257259996624142 0.355425939344892 446.35224304333093 72.89146097301243
829.7370045878288 177.69546462086183 1.8703758849524013 0.3557677720250263 449.3424024244641 71.20791674415237
848.6572021578485 184.4298898864373 1.9161074366710003 0.356061951353392 452.3623894048231 69.51717547709404
868.0761311120367 191.34669366423245 1.9628516287004598 0.3562932088881148 455.4088468583903 67.81887682722086
888.0317181472548 198.4588762175228 2.0106917070877772 0.35648511788689685 458.48357591050296 66.11103588632143
908.5575528975411 205.7778158882417 2.0596997859178483 0.356632236780392 461.5871295346198 64.39218871581355
929.6357992300806 213.296300065874 2.1098477611402906 0.356743857499322 464.7192724425523 62.66097053612964
951.3011991153901 221.02640847686865 2.1611950430219355 0.3568262395767752 467.87587687666405 60.918871983011584
973.5581554092191 228.9689866051832 2.2137660796391043 0.3568779259296653 471.0599151315838 59.16292450116295
996.4172929643344 237.12737051217374 2.2675879327192354 0.35690852430768416 474.2716930347005 57.39203245278704
1019.9448409747189 245.52480416906693 2.3227959619816514 0.3569197786368985 477.5110201023164 55.60524916507989
1044.0784899353387 254.1385950928464 2.379261239051305 0.3569146827624987 480.77294680996494 53.80441906808922
1068.8653840749982 262.9852567589892 2.437095018222505 0.3568969933632342 484.06176219100337 51.98638377296153
1094.356742720532 272.0827354133621 2.496407478020392 0.3568690726919277 487.37742484726095 50.150116373195715
1120.5525840777163 281.430797416106 2.55720728470061 0.35683516499396983 490.71942709513365 48.295155646792274
1147.4196299740306 291.0174154264683 2.6194265802000785 0.3567980220526046 494.0830324628434 46.42352114238595
1175.0146881296669 300.8627404506699 2.68320398242186 0.35675848267452626 497.47289006040484 44.53192837593779
1203.3907844122205 310.98556775626633 2.7486668394985623 0.35672026771534515 500.8888825459008 42.61934992252322
1232.5344772749477 321.3811876912253 2.815807853548016 0.356687860127062 504.3299917615031 40.68594056008723
1262.4242393495726 332.04206277302234 2.8846033606799386 0.35666331010310337 507.7922253856572 38.73339717907012
1293.1196414404842 342.9896768450122 2.95522550862532 0.35664982265459244 511.2801267663313 36.758525848241895
1324.6417423983294 354.2319185043608 3.0277733842348304 0.35665264493436677 514.7936148893198 34.76071755780468
1357.0250371581578 365.7817162764894 3.1024100965286157 0.35667849032569965 518.3310928584808 32.739789835651166
1390.2359257400217 377.62798524537624 3.1791751618979123 0.35673526193227456 521.8894715714698 30.697160056264366
1424.3305156317622 389.7920198857106 3.258374702105469 0.35683530738848557 525.4730848306887 28.62962102416041
1459.328275934817 402.282689008047 3.3403324276511412 0.35699888054030904 529.0818842067226 26.536261558203627
1495.22484927758 415.1013993069438 3.4254893181691806 0.3572600519315481 532.7136335653959 24.4172109987452
1532.0122385311424 428.2500517428068 3.5145868052743086 0.35768066273636023 536.3662857953279 22.272109591280493
1569.7363994122895 441.7532291693778 3.6090969114743263 0.35838384841330484 540.0438741161018 20.096287685159353
1608.3872045824758 455.6224291681668 3.7116085464275113 0.3596589547403308 543.7463790946406 17.88604780684199
1647.8904412292086 469.86345312875613 3.827694633919786 0.3605936833696317 547.4708712870953 15.636194845794426
1688.4293489973893 484.4853117496071 3.9411631622379866 0.35871186989665826 551.216467733508 13.338706789730091
1730.5098366724521 499.4938054066654 4.018080142012137 0.3564712328067152 554.9868210458568 11.020273191106426
1773.7300486190454 514.8921175166837 4.095702477244772 0.3561269786333172 558.781937487146 8.692064708360297
1818.0662250096177 530.6746611801734 4.174784123859858 0.3558277341959686 562.5981454122898 6.356204299404896
1863.5497282980382 546.8521097278325 4.255359095436937 0.35553269898812534 566.4358348263322 4.0122955885010585
1910.247009040135 563.4475884700227 4.3375221508890585 0.3552416461610344 570.2982070044372 1.6582552877016385
1958.1887311344722 580.4714651980179 4.421303183309015 0.35495452245731496 574.1852909518561 0.04644869086544076
2007.3493098945523 597.9141419398725 4.506633508553504 0.3546715845824533 578.0926279967849 0.0
2057.7796274538564 615.7931695463685 4.593577133352796 0.3543926704586706 582.021979385741 0.0
2109.545034968255 634.131188073546 4.682221066301193 0.35411755947917545 585.9760320290837 0.0
2162.678753685408 652.9394183052182 4.772595536424346 0.35384483599557903 589.9548350790684 0.0
2217.1525995547054 672.2072044970002 4.864620130339251 0.35357491993909385 593.9531011119569 0.0
2273.0407809185863 691.9602844932427 4.95839464545861 0.353309875082191 597.9740527294582 0.0
2330.3992999284765 712.2179964405765 5.053989683413138 0.3530494350959108 602.019805726412 0.0
2389.264222577843 732.9925154193983 5.151437213092266 0.3527926886493553 606.0904271513187 0.0
2449.5795751119053 754.2635567602299 5.250617619520835 0.3525399646820784 610.1797613821134 0.0
2511.448955405444 776.0671269740593 5.3516741802875165 0.3522909220959134 614.2925763096104 0.0
2574.931205935062 798.4233996402543 5.454674216856112 0.352045466343891 618.4303648993331 0.0
2640.0652726616695 821.3455159089217 5.559651428344427 0.3518022032638406 622.5932101621104 0.0
2706.7909579945854 844.8115646768282 5.666472266374328 0.3515596671830421 626.7740504200112 0.0
2775.267372676718 868.8766964646112 5.775350965604396 0.3513216278531468 630.9792782513232 0.0
2845.5155438473084 893.5480986219156 5.8863073658344875 0.35109001092577063 635.2097160524316 0.0
2917.5776351237887 918.8399911007534 5.999377052106519 0.35085721349769017 639.4654611461091 0.0
