e[MeV/fm^3], P[MeV/fm^3], rho[fm^-3], v2[1], mu_q[MeV], mu_e[MeV]
70.21755168181654 0.006206087273093519 0.07407856508846018 0.017597877650005332 316.5185077347417 89.2771661002368
71.43578994790998 0.027644495228360377 0.07535555647246353 0.0175978776500052 316.5894798429086 89.8124074562691
72.67502861766434 0.04945246571785267 0.07665456106626496 0.017597877650005228 316.6616753923034 90.35687548400062
73.93562970314778 0.07163636938565421 0.07797595834102777 0.01759787765000538 316.7351154730202 90.91072923592193
75.21796145691394 0.09420268669514797 0.07932013430936638 0.01759787765000533 316.8098215387112 91.47413050632369
76.5223984795798 0.11715800982215896 0.0806874816381126 0.01759787765000522 316.8858154128541 92.04724387856187
77.84932182925448 0.14050904458066893 0.08207839976302188 0.017597877650005325 316.96311929512683 92.630236773136
79.19911913285509 0.16426261238173973 0.08349329500545777 0.017597877650005436 317.0417557678931 93.22327949659658
80.57218469934486 0.18842565222626206 0.08493258069109116 0.017597877650005332 317.12174780279906 93.82654529129692
81.96891963491473 0.21300522273190858 0.08639667727063695 0.017597877650005284 317.20311876748366 94.44021038599915
83.38973196016327 0.23800850419525207 0.0878860124426853 0.017597877650005242 317.2858924324053 95.06445404735784
84.83503672928572 0.26344280068923775 0.08940102127863886 0.01759787765000527 317.37009297778565 95.69945863228664
86.3052561513196 0.28931554219685157 0.0909421463498059 0.01759787765000538 317.45574500067295 96.34540964122833
87.80081971348744 0.3156342867816875 0.09250983785669148 0.017597877650005325 317.54287352212793 97.00249577234631
89.32216430665855 0.3424067227958098 0.09410455376051008 0.01759787765000531 317.63150399453286 97.67090897664707
90.86973435297011 0.3696406711256137 0.09572675991696154 0.017597877650005242 317.7216623090265 98.3508445140514
92.44398193566516 0.39734408747669764 0.0973769302123309 0.017597877650005228 317.8133748030682 99.04250101043964
94.04536693114535 0.4255250646977123 0.09905554670190979 0.01759787765000531 317.90666826813106 99.74608051566989
95.67435714332068 0.45419183514462985 0.10076309975082554 0.017892055534992374 318.00156995752883 100.46178856260559
97.33169327479138 0.4843410207312542 0.10250008817728433 0.018775745774211428 318.10048622561175 101.18570399772256
99.01814146064449 0.5170082040359527 0.10426701939828847 0.020025246310001077 318.2058447860128 101.91428658825437
100.73429318912723 0.5525181669555139 0.1060644095778678 0.02129999675038627 318.31828524079526 102.64750316311726
102.48063871606901 0.5907964457966746 0.10789278377786223 0.022549781036994038 318.43751805132047 103.38670836290729
104.25774423592242 0.6320103592916358 0.10975267611130558 0.023887708108000116 318.5638120290785 104.13237516689382
106.06623539667063 0.676492214395437 0.11164462989845152 0.025339806313660923 318.697770868173 104.88465247088972
107.90674784282342 0.7245234535359056 0.11356919782549418 0.026726883379044414 318.8398212612412 105.64215664334085
109.77980899298537 0.7757858510810522 0.11552694210601787 0.028008654354195556 318.9889635986241 106.39548846211913
111.68603200563659 0.8304189676497289 0.11751843464523576 0.02941848660514751 319.1453310518051 107.14305877628786
113.62612253642692 0.8889903796251314 0.1195442572070575 0.0310000273545607 319.31003653378224 107.89037199216354
115.60075117782822 0.9518318179215621 0.1216050015840337 0.03259969837934959 319.4836179784206 108.6399435927219
117.61049319554543 1.0189345897359714 0.12370126977023699 0.03419210470702347 319.6659546827271 109.3941654142798
119.65602415051524 1.0905481505064962 0.12583367413711752 0.03592218882239359 319.8573917239201 110.15411877028433
121.73815641876267 1.1672766767204164 0.12800283761239192 0.03778190969818496 320.0588603075681 110.92020174565145
123.85759205422588 1.2493614886182018 0.1302093938620144 0.0396255479711905 320.27062777688235 111.69348487044105
126.01496433860267 1.3368161240061027 0.13245398747528928 0.041461386350795104 320.4925793312381 112.47517112638602
128.2110155783424 1.429932568241939 0.13473727415316794 0.04346252473119688 320.7250671173629 113.26594974297757
130.4466887956552 1.52951487508801 0.1370599208997976 0.045590760196347446 320.969220213987 114.06610244230104
132.72270298041246 1.6357091714792171 0.13942260621736857 0.04767926014436641 321.22510082538804 114.87651716166351
135.03976205186157 1.748593799706529 0.14182602030432198 0.04977029748745049 321.49267975935425 115.69799950047124
137.3986835249372 1.8685229353243933 0.14427086525697244 0.05206400529136951 321.77234677231564 116.53110782929468
139.80057355445675 1.9965668028217445 0.14675785527460983 0.05448295484632937 322.0654823434704 117.37614392238619
142.24614757531495 2.1327305435734982 0.1492877168681315 0.05683638595368079 322.37191652081754 118.23384218287305
144.73619757503982 2.2771938463603174 0.15186118907227755 0.059208520968313694 322.69174413674494 119.10477732777403
147.27162660197732 2.430390920319256 0.15447902366151722 0.0618292055008095 323.0254080857181 119.98940983187808
149.85374556019306 2.5937403356179334 0.15714198536966398 0.06457197399617759 323.3745941649684 120.88804723823948
152.4832372283129 2.7670401807274834 0.15985085211327107 0.06721882453614525 323.7388555425644 121.80124809303793
155.16100474728017 2.9506159576823916 0.1626064152188807 0.06990575565196155 324.1184454344821 122.72942464238325
157.8880490867394 3.1450019316856195 0.16540947965419006 0.07289593855263288 324.5138717435153 123.67293532678868
160.66593902373984 3.3520690822739376 0.16826086426320178 0.07600220080988451 324.92718571735776 124.63202719571277
163.4952840125817 3.5713158744339593 0.17116140200542868 0.07897532922519734 325.3576004812541 125.6070903482084
166.37712853614147 3.8032695276021222 0.17411194019922174 0.08202037368123771 325.8055622707938 126.59840218489457
169.31260061973967 4.048620249866702 0.17711334076929286 0.08542133552471287 326.2716886567447 127.60620334892384
172.303551331823 4.309718566586897 0.18016648049850292 0.0889270452590527 326.7583492276527 128.63058410314463
175.35050383107742 4.585737524453315 0.1832722512839939 0.09226446929582366 327.26444376458807 129.67181814230588
178.45466868853612 4.877441713994387 0.18643156039773165 0.09572802473872655 327.7906096931573 130.73004905217363
181.61738960046912 5.18586172672753 0.18964533075154347 0.09956214286511778 328.3377308078966 131.80536363429957
184.84067158507494 5.5134958934314255 0.19291450116672415 0.10348029397253222 328.90808973361146 132.89762523650757
188.12508868773136 5.859506730761704 0.19624002664828616 0.10723125726635341 329.50063467169656 134.00704679883177
191.47199658539387 6.224818666062787 0.19962287866394354 0.11114950466071183 330.116072530961 135.1336328978941
194.88301649425165 6.610906017540677 0.2030640454278977 0.11544544815415358 330.7555888744374 136.2772622126371
198.3602890613904 7.020342674256472 0.2065645321895225 0.11979382346787826 331.42129567013734 137.43754067535426
201.9044613376726 7.452308308070558 0.2101253615270204 0.12397650239191993 332.11220306471756 138.61467605675114
205.5170562570145 7.907903230714149 0.21374757364614289 0.1283699626450635 332.8290718474655 139.80852765902867
209.2000509218192 8.389163756231573 0.21743222668406043 0.1331367755092301 333.57341318817043 141.01869117551004
212.95568685700158 8.89862029273525 0.22118039701847075 0.1379109881763032 334.34705688852574 142.2445530860434
216.7847142491265 9.435507109353031 0.224993179582034 0.1425209986125906 335.149090910276 143.4863497980139
220.6888478651131 10.001107919216421 0.22887168818223044 0.1473848211915132 335.9803024130194 144.74379875149575
224.67051841244387 10.598148441577159 0.23281705582673115 0.15260238957125072 336.84253077264475 146.0161250814302
228.73201076449018 11.228941923303356 0.23683043505437643 0.1577674592771845 337.73719306437926 147.30260528428684
232.87421847820065 11.892825884399452 0.2409129982718618 0.16276966708385543 338.6634726746745 944.9939557349285
237.09907459677976 12.591262929879372 0.2450659380962259 0.1680647442175771 339.6221443059857 929.3940734741047
241.4095830266287 13.327795359770137 0.24929046770324403 0.17367604335428166 340.61534675451054 913.2322921591024
245.80798450797525 14.104290408314728 0.25358782118182577 0.17916063314688135 341.6439533067965 896.494401327363
250.29536865638684 14.920249387540146 0.2579592538945237 0.18448376658109078 342.70726027181 879.1918517164636
254.87391430339358 15.777295306389933 0.26240604284425445 0.19013115054428797 343.8059831368225 861.313000635801
259.54734193097937 16.679902122692877 0.2669294870473437 0.19603884001981875 344.9424917462097 842.8192850445678
264.3177234138911 17.62921742422393 0.2715309079130002 0.20173455319505607 346.11701155796936 823.7070362014531
269.1864120746621 18.624978432827973 0.2762116496293318 0.20727097595137622 347.328966229596 803.9856325786384
274.15586021544175 19.66893704821644 0.28097307955601647 0.2131521958171756 348.57896372915343 783.6451810804037
279.2306731431928 20.76658998854091 0.28581658862374093 0.21922189252154145 349.86949367684684 762.6451696264835
284.412585417037 21.918069468750467 0.29074359174052566 0.2249894143101847 351.2000887836266 740.9932021282887
289.7032992122702 23.123430865940225 0.29575552820505524 0.2306016920899494 352.5703075794808 718.6964623596807
295.1055673860831 24.38451504681977 0.300853862127132 0.23656661428271297 353.98060905644974 695.7474814214532
300.6250734626658 25.70790002720107 0.3060400828553784 0.24263779812409947 355.4334521442952 672.1062466403203
306.2629978571605 27.092417065261266 0.3113157054123131 0.24831998114039466 356.9277197298895 647.7909361209581
312.0214966673664 28.538529352055203 0.3166822709369256 0.2538541104542591 358.4631014669581 622.8065999401437
317.9036494111742 30.048126085066315 0.3221413471348811 0.2597359108053192 360.03988091456415 597.1486239131517
323.9164360611114 31.628890065835524 0.32769452873648597 0.2656390932017807 361.66030746350987 570.7804050671522
330.06021547034334 33.278110584552124 0.3333434379625472 0.2710787578055842 363.3227610243933 543.7283061348026
336.3377248306841 34.996751726455315 0.3390897249982634 0.27638164452897485 365.0270429856405 515.9955590018369
342.75239563416363 36.78671837750218 0.3449350684752844 0.2820159576097043 366.7732551876847 487.5805064806264
349.3127469329602 38.65679115669434 0.35088117596208035 0.28759239956345484 368.5632457970251 458.45307447818203
356.0179982424811 40.60254779373834 0.3569297844627652 0.2926507180164095 370.39513942729127 428.64378001995533
362.87161894726887 42.62554485678177 0.3630826609245175 0.2976058496429581 372.26881070045994 398.1546633065084
369.8776838050342 44.72802159039085 0.3693416027537498 0.3028324596598386 374.18425749083553 366.98575892799636
377.04571989459646 46.91882012835673 0.3757084383411748 0.30793255850782497 376.1425479489815 335.1196855178681
384.37423920137996 49.19272886637786 0.3821850275959231 0.3125215544923945 378.1420680020603 302.58270790487484
391.8673537720589 51.551645656583794 0.38877326248886857 0.31704011341831206 380.18264288681297 269.37766990557964
399.53022857376277 53.998550771733285 0.3954750676053199 0.32159882522268113 382.2641765278808 235.50613489604945
410.0885969806361 57.42891433661542 0.4046576512858143 0.006240097697575456 384.38684656688184 200.96521222192902
685.3090542098507 59.953018019808255 1.2459880412020747 0.012102315570713354 386.54960838431725 166.1911594035363
1016.839574140418 65.13587738522054 2.2682389420380447 0.019772280752599694 388.75217980057613 131.77852344297634
1315.6810787242302 72.15964216909376 3.2166270492925633 0.02312354922435074 390.99427615507426 97.58118668519178
1719.3222956496174 81.28621640719066 4.573430742354572 0.5216947499013815 393.27543963785325 61.53398948636757
1738.930806495509 91.99128266541332 4.627714779464311 0.6649201531944122 395.59516773161965 27.354125524189595
1753.482997417998 102.95228130238291 4.664918972116151 0.7697211507326536 397.95311125729603 4.647109564365155
1767.7567297480784 114.17010353291322 4.700690751727224 0.7852615874824984 400.3486982341418 0.0
1782.3812992986745 125.64454947295341 4.737124435737949 0.7836259799459402 402.78113502043635 0.0
1797.3930318922985 137.3931151850898 4.7742719078323965 0.781759730283258 405.2503908250171 0.0
1812.7770428825518 149.40606512169828 4.812114971664011 0.7800178497408421 407.7560864453435 0.0
1828.5311316937205 161.6807487121128 4.850642597530207 0.7781802698029798 410.2972643916196 0.0
1844.6756127419683 174.22814204510536 4.889866970764588 0.7762581853874497 412.8731075256692 0.0
1861.2141473940183 187.0504606729372 4.9297945226399165 0.7744292771572177 415.48395412590855 0.0
1878.1381055969325 200.14179752716703 4.970413178197452 0.7725111064263448 418.12942481666244 0.0
1895.4750571208517 213.51653480708174 5.011736369043519 0.7705417822235905 420.80808286670407 0.0
1913.2062745799828 227.16255593559262 5.053740710497502 0.768654426577001 423.519388423576 0.0
1931.348714966521 241.09019043256333 5.0964477338483 0.7666605094374761 426.263926491692 0.0
1949.9219761351108 255.3101433248971 5.139872833753769 0.7647074685404309 429.04133904117657 0.0
1968.8950202520039 269.80139768886005 5.183967340927137 0.7626923017647043 431.84962364736657 0.0
1988.3142902964903 284.59068256760537 5.228775843582577 0.7606826518273628 434.68879187402194 0.0
2008.149044555646 299.66050119721257 5.27427482497192 0.7586506115778704 437.55954505588323 0.0
2028.4547027213043 315.04216580624836 5.320514242051102 0.7565963611699686 440.4615602408136 0.0
2049.1722042071 330.6977173824179 5.367412615776448 0.754545102769657 443.39219174670734 0.0
2070.3648492598772 346.6641823841451 5.415037620313417 0.7524500003618364 446.35224304333093 0.0
2092.003001602635 362.92489867219234 5.463366814558572 0.7503868716980593 449.3424024244641 0.0
2114.1295792434107 379.5035777912927 5.512438150154923 0.748257270101842 452.3623894048231 0.0
2136.705570611038 396.3730055848881 5.5621828297638825 0.7461835719924395 455.4088468583903 0.0
2159.7618672153667 413.55262682598146 5.612646488638675 0.7440285571084146 458.48357591050296 0.0
2183.32232917342 431.0560964508269 5.663856349642805 0.741916480857121 461.5871295346198 0.0
2207.370485477292 448.8732592700945 5.715794094054031 0.7397651682537614 464.7192724425523 0.0
2231.918453622583 467.00467531690924 5.768432106730802 0.7375650437609345 467.87587687666405 0.0
2256.9749649905393 485.4587138247543 5.8218057312518425 0.7354671709775733 471.0599151315838 0.0
2282.5465385022662 504.2388982085108 5.87592340319612 0.7332603484011422 474.2716930347005 0.0
2308.678207314406 523.3693420612697 5.930824934197912 0.7310248579902208 477.5110201023164 0.0
2335.3087481270954 542.8083232851285 5.986405740614406 0.7288973975846371 480.77294680996494 0.0
2362.482291968701 562.5858438184501 6.042746777858278 0.7266908844211262 484.06176219100337 0.0
2390.2330201747263 582.7199707722835 6.0998787784681765 0.7244340534355818 487.37742484726095 0.0
2418.557339183897 603.2072414321511 6.15779276223718 0.722236259179768 490.71942709513365 0.0
2447.4159879872745 624.0184249625389 6.216406682356526 0.720062592222213 494.0830324628434 0.0
2476.860905673948 645.1881801600621 6.2758119254385525 0.7178092831439784 497.47289006040484 0.0
2506.9267867320586 666.7343829890181 6.336038504167087 0.7155285917466756 500.8888825459008 0.0
2537.599484527086 688.6470160669045 6.397062717466824 0.7133074701360762 504.3299917615031 0.0
2568.8504114326447 710.9036894927809 6.45881927701478 0.7110942759204484 507.7922253856572 0.0
2600.7332251733615 733.5396558150109 6.521399873606858 0.7088706650689076 511.2801267663313 0.0
2633.2609176177084 756.5609705250472 6.584814621955882 0.7065884737452865 514.7936148893198 0.0
2666.451024719303 779.9735475685472 6.649063053949043 0.7042933555585886 518.3310928584808 0.0
2700.2703274061028 803.7538362631517 6.7140840676677715 0.7020469508476932 521.8894715714698 0.0
2734.7706697136546 827.9356184438232 6.779965400200548 0.6998003824444687 525.4730848306887 0.0
2769.966035713627 852.5253556414169 6.846718077465001 0.6975470325640956 529.0818842067226 0.0
2805.8488388693327 877.5144336518952 6.9143123652064 0.695289192027893 532.7136335653959 0.0
2842.4124046992088 902.8949950019519 6.982721107614785 0.6930286355733646 536.3662857953279 0.0
2879.7113889834413 928.7016315850213 7.052031360528275 0.6907632491387439 540.0438741161018 0.0
2917.7608817677888 954.9412519601516 7.122255090354222 0.6884803512886819 543.7463790946406 0.0
2956.5518304584075 981.603062047887 7.193354087715247 0.6861914462040932 547.4708712870953 0.0
2996.085162687772 1008.6850112950971 7.265319037815956 0.6839194659651806 551.216467733508 0.0
3036.411019863027 1036.218520881793 7.338228916210237 0.6816531843879776 554.9868210458568 0.0
3077.545616286336 1064.2109552748389 7.412096597022559 0.6793851116265728 558.781937487146 0.0
3119.4648392982135 1092.6422698884844 7.486862868475669 0.677118052573654 562.5981454122898 0.0
3162.188068154183 1121.522065237361 7.562547017515343 0.6748526228158198 566.4358348263322 0.0
3205.767020571517 1150.881584738256 7.639224593965841 0.6725874231652949 570.2982070044372 0.0
3250.219158819281 1180.728691877506 7.716909415302574 0.6703226329412288 574.1852909518561 0.0
3295.5099726293643 1211.0364185271549 7.795524947362635 0.6680614008300001 578.0926279967849 0.0
3341.675839079553 1241.8253924543385 7.875118658153069 0.665803511937824 582.021979385741 0.0
3388.7655466687074 1273.124222288794 7.955757996637579 0.6635478856773425 585.9760320290837 0.0
3436.797881394393 1304.941297438542 8.03745773007196 0.6612832006061709 589.9548350790684 0.0
3485.7331972774095 1337.2452474526178 8.120128042442461 0.6590135235870029 593.9531011119569 0.0
3535.6275057340504 1370.0691829621326 8.203847675959087 0.6567567916668882 597.9740527294582 0.0
3586.5212943508486 1403.4362685205915 8.28867072914631 0.65451155651329 602.019805726412 0.0
3638.434819557694 1437.3554706232821 8.374612966844051 0.6522708765817882 606.0904271513187 0.0
3691.307640335192 1471.783204780223 8.461557538594667 0.6500383427874628 610.1797613821134 0.0
3745.219530301175 1506.7673101514301 8.549618877853412 0.6478116790355344 614.2925763096104 0.0
3800.2100021663305 1542.3290279983107 8.638843429806736 0.6455907340736626 618.4303648993331 0.0
3856.3008003283703 1578.4779083509723 8.729247933385677 0.6433632138662997 622.5932101621104 0.0
3913.4249264888495 1615.165035529148 8.820700074623382 0.6411157905156948 626.7740504200112 0.0
3971.701785033668 1652.460694982815 8.913363741838676 0.6388843406072056 630.9792782513232 0.0
4031.145023441218 1690.3719952947506 9.007256369255456 0.63668743679054 635.2097160524316 0.0
4091.778037290727 1728.9091269312705 9.102395727303891 0.6344725861028948 639.4654611461091 0.0
