e[MeV/fm^3], P[MeV/fm^3], rho[fm^-3], v2[1], mu_q[MeV], mu_e[MeV]
70.21755168181654 0.006206087273093519 0.07407856508846018 0.017597877650005332 316.5185077347417 89.2771661002368
71.43578994790998 0.027644495228360377 0.07535555647246353 0.0175978776500052 316.5894798429086 89.8124074562691
72.67502861766434 0.04945246571785267 0.07665456106626496 0.017597877650005228 316.6616753923034 90.35687548400062
73.93562970314778 0.07163636938565421 0.07797595834102777 0.01759787765000538 316.7351154730202 90.91072923592193
75.21796145691394 0.09420268669514797 0.07932013430936638 0.01759787765000533 316.8098215387112 91.47413050632369
76.5223984795798 0.11715800982215896 0.0806874816381126 0.01759787765000522 316.8858154128541 92.04724387856187
77.84932182925448 0.14050904458066893 0.08207839976302188 0.017597877650005325 316.96311929512683 92.630236773136
79.19911913285509 0.16426261238173973 0.08349329500545777 0.017597877650005436 317.0417557678931 93.22327949659658
80.57218469934486 0.18842565222626206 0.08493258069109116 0.017597877650005332 317.12174780279906 93.82654529129692
81.96891963491473 0.21300522273190858 0.08639667727063695 0.017597877650005284 317.20311876748366 94.44021038599915
83.38973196016327 0.23800850419525207 0.0878860124426853 0.017597877650005242 317.2858924324053 95.06445404735784
84.83503672928572 0.26344280068923775 0.08940102127863886 0.01759787765000527 317.37009297778565 95.69945863228664
86.3052561513196 0.28931554219685157 0.0909421463498059 0.01759787765000538 317.45574500067295 96.34540964122833
87.80081971348744 0.3156342867816875 0.09250983785669148 0.017597877650005325 317.54287352212793 97.00249577234631
89.32216430665855 0.3424067227958098 0.09410455376051008 0.01759787765000531 317.63150399453286 97.67090897664707
90.86973435297011 0.3696406711256137 0.09572675991696154 0.017597877650005242 317.7216623090265 98.3508445140514
92.44398193566516 0.39734408747669764 0.0973769302123309 0.017597877650005228 317.8133748030682 99.04250101043964
94.04536693114535 0.4255250646977123 0.09905554670190979 0.01759787765000531 317.90666826813106 99.74608051566989
95.67435714332068 0.45419183514462985 0.10076309975082554 0.017892055534992374 318.00156995752883 100.46178856260559
97.33169327479138 0.4843410207312542 0.10250008817728433 0.018775745774211428 318.10048622561175 101.18570399772256
99.01814146064449 0.5170082040359527 0.10426701939828847 0.020025246310001077 318.2058447860128 101.91428658825437
100.73429318912723 0.5525181669555139 0.1060644095778678 0.02129999675038627 318.31828524079526 102.64750316311726
102.48063871606901 0.5907964457966746 0.10789278377786223 0.022549781036994038 318.43751805132047 103.38670836290729
104.25774423592242 0.6320103592916358 0.10975267611130558 0.023887708108000116 318.5638120290785 104.13237516689382
106.06623539667063 0.676492214395437 0.11164462989845152 0.025339806313660923 318.697770868173 104.88465247088972
107.90674784282342 0.7245234535359056 0.11356919782549418 0.026726883379044414 318.8398212612412 105.64215664334085
109.77980899298537 0.7757858510810522 0.11552694210601787 0.028008654354195556 318.9889635986241 106.39548846211913
111.68603200563659 0.8304189676497289 0.11751843464523576 0.02941848660514751 319.1453310518051 107.14305877628786
113.62612253642692 0.8889903796251314 0.1195442572070575 0.0310000273545607 319.31003653378224 107.89037199216354
115.60075117782822 0.9518318179215621 0.1216050015840337 0.03259969837934959 319.4836179784206 108.6399435927219
117.61049319554543 1.0189345897359714 0.12370126977023699 0.03419210470702347 319.6659546827271 109.3941654142798
119.65602415051524 1.0905481505064962 0.12583367413711752 0.03592218882239359 319.8573917239201 110.15411877028433
121.73815641876267 1.1672766767204164 0.12800283761239192 0.03778190969818496 320.0588603075681 110.92020174565145
123.85759205422588 1.2493614886182018 0.1302093938620144 0.0396255479711905 320.27062777688235 111.69348487044105
126.01496433860267 1.3368161240061027 0.13245398747528928 0.041461386350795104 320.4925793312381 112.47517112638602
128.2110155783424 1.429932568241939 0.13473727415316794 0.04346252473119688 320.7250671173629 113.26594974297757
130.4466887956552 1.52951487508801 0.1370599208997976 0.045590760196347446 320.969220213987 114.06610244230104
132.72270298041246 1.6357091714792171 0.13942260621736857 0.04767926014436641 321.22510082538804 114.87651716166351
135.03976205186157 1.748593799706529 0.14182602030432198 0.04977029748745049 321.49267975935425 115.69799950047124
137.3986835249372 1.8685229353243933 0.14427086525697244 0.05206400529136951 321.77234677231564 116.53110782929468
139.80057355445675 1.9965668028217445 0.14675785527460983 0.05448295484632937 322.0654823434704 117.37614392238619
142.24614757531495 2.1327305435734982 0.1492877168681315 0.05683638595368079 322.37191652081754 118.23384218287305
144.73619757503982 2.2771938463603174 0.15186118907227755 0.059208520968313694 322.69174413674494 119.10477732777403
147.27162660197732 2.430390920319256 0.15447902366151722 0.0618292055008095 323.0254080857181 1138.5900871782828
149.85374556019306 2.5937403356179334 0.15714198536966398 0.06457197399617759 323.3745941649684 1128.2139532932156
152.4832372283129 2.7670401807274834 0.15985085211327107 0.06721882453614525 323.7388555425644 1117.3898539155728
155.16100474728017 2.9506159576823916 0.1626064152188807 0.06990575565196155 324.1184454344821 1106.1102646821982
157.8880490867394 3.1450019316856195 0.16540947965419006 0.07289593855263288 324.5138717435153 1094.360093160426
160.66593902373984 3.3520690822739376 0.16826086426320178 0.07600220080988451 324.92718571735776 1082.0783861165328
163.4952840125817 3.5713158744339593 0.17116140200542868 0.07897532922519734 325.3576004812541 1069.288525690578
166.37712853614147 3.8032695276021222 0.17411194019922174 0.08202037368123771 325.8055622707938 1055.977251903154
169.31260061973967 4.048620249866702 0.17711334076929286 0.08542133552471287 326.2716886567447 1042.1262135159066
172.303551331823 4.309718566586897 0.18016648049850292 0.0889270452590527 326.7583492276527 1027.664997733291
175.35050383107742 4.585737524453315 0.1832722512839939 0.09226446929582366 327.26444376458807 1012.6262977799116
178.45466868853612 4.877441713994387 0.18643156039773165 0.09572802473872655 327.7906096931573 996.9911724269298
181.61738960046912 5.18586172672753 0.18964533075154347 0.09956214286511778 328.3377308078966 980.7333595436953
184.84067158507494 5.5134958934314255 0.19291450116672415 0.10348029397253222 328.90808973361146 963.7850304795296
188.12508868773136 5.859506730761704 0.19624002664828616 0.10723125726635341 329.50063467169656 946.1774396394546
191.47199658539387 6.224818666062787 0.19962287866394354 0.11114950466071183 330.116072530961 927.8895810874277
194.88301649425165 6.610906017540677 0.2030640454278977 0.11544544815415358 330.7555888744374 908.8862255818294
198.3602890613904 7.020342674256472 0.2065645321895225 0.11979382346787826 331.42129567013734 889.1046155726015
201.9044613376726 7.452308308070558 0.2101253615270204 0.12397650239191993 332.11220306471756 868.574164748965
205.5170562570145 7.907903230714149 0.21374757364614289 0.1283699626450635 332.8290718474655 847.2722661057336
209.2000509218192 8.389163756231573 0.21743222668406043 0.1331367755092301 333.57341318817043 825.1540149316718
212.95568685700158 8.89862029273525 0.22118039701847075 0.1379109881763032 334.34705688852574 802.165038305056
216.7847142491265 9.435507109353031 0.224993179582034 0.1425209986125906 335.149090910276 778.3324376242776
220.6888478651131 10.001107919216421 0.22887168818223044 0.1473848211915132 335.9803024130194 753.6328222851162
224.67051841244387 10.598148441577159 0.23281705582673115 0.15260238957125072 336.84253077264475 728.0115348667227
228.73201076449018 11.228941923303356 0.23683043505437643 0.1577674592771845 337.73719306437926 701.426466696513
232.87421847820065 11.892825884399452 0.2409129982718618 0.16276966708385543 338.6634726746745 673.901883608706
237.09907459677976 12.591262929879372 0.2450659380962259 0.1680647442175771 339.6221443059857 645.4147651655624
241.4095830266287 13.327795359770137 0.24929046770324403 0.17367604335428166 340.61534675451054 615.901556612131
245.80798450797525 14.104290408314728 0.25358782118182577 0.17916063314688135 341.6439533067965 585.3363080647366
250.29536865638684 14.920249387540146 0.2579592538945237 0.18448376658109078 342.70726027181 553.7399298425821
254.87391430339358 15.777295306389933 0.26240604284425445 0.19013115054428797 343.8059831368225 521.0911610989091
259.54734193097937 16.679902122692877 0.2669294870473437 0.19603884001981875 344.9424917462097 487.3195814361369
264.3177234138911 17.62921742422393 0.2715309079130002 0.20173455319505607 346.11701155796936 452.41849132496696
269.1864120746621 18.624978432827973 0.2762116496293318 0.20727097595137622 347.328966229596 416.4050168977249
274.15586021544175 19.66893704821644 0.28097307955601647 0.2131521958171756 348.57896372915343 379.2610922623193
279.2306731431928 20.76658998854091 0.28581658862374093 0.21922189252154145 349.86949367684684 340.91273785854634
284.412585417037 21.918069468750467 0.29074359174052566 0.2249894143101847 351.2000887836266 301.37383927357666
289.7032992122702 23.123430865940225 0.29575552820505524 0.2306016920899494 352.5703075794808 260.6575148767317
295.1055673860831 24.38451504681977 0.300853862127132 0.23627042173533574 353.98060905644974 218.75012562812745
304.24843129063294 26.591757010612668 0.3094473279758018 0.001220637126252349 355.4334521442952 175.57860394019758
846.0143607197238 28.424370130321346 2.00579793045197 0.005544694616332009 356.9277197298895 131.65663278032005
1441.8271512541105 33.14464245492333 3.8950166495368697 0.01694068621925944 358.4631014669581 87.85000436603747
1799.7296036786918 41.14660077742559 5.072335633410592 0.08070136184510335 360.03988091456415 42.35162031305874
1889.7229242178428 49.729408969470086 5.362353968627568 0.5067197889709583 361.66030746350987 10.962674134063473
1905.2236520037843 58.682190211898146 5.4053386705953255 0.5852069775774789 363.3227610243933 0.0
1920.8223786026638 67.93052790696352 5.448172334413592 0.5921626040476644 365.0270429856405 0.0
1936.971839030099 77.48146334443452 5.4923116072564575 0.5906621103461955 366.7732551876847 0.0
1953.704445125557 87.35183195289241 5.53782548253006 0.589124165991719 368.5632457970251 0.0
1971.0181498656998 97.5380643221974 5.58468864472676 0.5875546187059584 370.39513942729127 0.0
1988.927217170747 108.04619098209844 5.632920048755787 0.5859570848931726 372.26881070045994 0.0
2007.4473073216252 118.88300301140494 5.682541992860582 0.5843347394327387 374.18425749083553 0.0
2026.60490214386 130.0615291750886 5.733605047795492 0.5826899972580519 376.1425479489815 0.0
2046.4004244558976 141.57953936384544 5.786089952926802 0.5810272277217274 378.1420680020603 0.0
2066.8483605500064 153.44298394894295 5.840014793164174 0.5793489117594803 380.18264288681297 0.0
2087.964173582228 165.658326517598 5.895399850337548 0.5776574687955418 382.2641765278808 0.0
2109.7663670335664 178.23372580665895 5.952272914636803 0.5759549383353808 384.38684656688184 0.0
2132.2609999064885 191.1701203322798 6.010629025995941 0.5742440618844848 386.54960838431725 0.0
2155.4619576472323 204.47293639480503 6.070483483619623 0.5725267222582802 388.75217980057613 0.0
2179.3832183162685 218.1476106663335 6.131851529666889 0.5707755532036236 390.99427615507426 0.0
2204.0479682986565 232.20331760743386 6.194759364561504 0.568925593340686 393.27543963785325 0.0
2229.49431487553 246.65559595043487 6.2592536021831995 0.5670903110722785 395.59516773161965 0.0
2255.703975773892 261.4956052738065 6.325301711406202 0.5653438163590128 397.95311125729603 0.0
2282.688056378574 276.72699714002545 6.392910620346704 0.5635997576532548 400.3486982341418 0.0
2310.455090298895 292.35195603809086 6.462080732518856 0.5617205232114166 402.78113502043635 0.0
2339.0849044519973 308.40451941203565 6.5329219529856415 0.5598165779908726 405.2503908250171 0.0
2368.5408773610243 324.86787197969915 6.605375375042582 0.5580546446079566 407.7560864453435 0.0
2398.822817063653 341.74009967769837 6.6794265116234675 0.5562117243348501 410.2972643916196 0.0
2429.9906771130113 359.0452459748 6.755146054745019 0.554298955756023 412.8731075256692 0.0
2462.054247851806 376.78753464063925 6.832548877450171 0.5524936840660288 415.48395412590855 0.0
2494.9934285472677 394.95734039884314 6.911599615216309 0.5506177901831419 418.12942481666244 0.0
2528.8918027143695 413.5875369905115 6.992391824745443 0.5487059734679631 420.80808286670407 0.0
2563.7027193385175 432.65690414156796 7.074851329850295 0.5468903284620144 423.519388423576 0.0
2599.471199353361 452.18496325832245 7.159043876311722 0.5449886709500342 426.263926491692 0.0
2636.254589067203 472.1948573743335 7.2450391145210915 0.5431403785619064 429.04133904117657 0.0
2673.979594629564 492.6518556822774 7.332708286337516 0.5412520781798555 431.84962364736657 0.0
2712.7762469118293 513.6101591090014 7.422222533591926 0.5393821321295205 434.68879187402194 0.0
2752.557644375578 535.0338023784876 7.513470969475571 0.5375110886795493 437.55954505588323 0.0
2793.4814670265914 556.9877386004988 7.606655142193726 0.5356325218516105 440.4615602408136 0.0
2835.399472902982 579.4049174286242 7.701538874345223 0.5337763995820488 443.39219174670734 0.0
2878.486329525014 602.3589340895713 7.798358999918666 0.5318940260822993 446.35224304333093 0.0
2922.657370945841 625.8150185019192 7.897009145281781 0.5300591485778847 449.3424024244641 0.0
2968.0370317305765 649.8237277033377 7.997643455557148 0.5281798346280064 452.3623894048231 0.0
3014.5366222753637 674.3417832127651 8.100095273626986 0.5263668546502265 455.4088468583903 0.0
3062.2354624874624 699.4044539804172 8.204487578569488 0.5244993414687196 458.48357591050296 0.0
3111.2007017859128 725.0396263163926 8.31090894588987 0.5226841740903607 461.5871295346198 0.0
3161.389143924643 751.2283987261986 8.41929579218687 0.5208531520592663 464.7192724425523 0.0
3212.8623811800135 777.9879453323372 8.529662325288179 0.5189956163958485 467.87587687666405 0.0
3265.630452925224 805.3268804164122 8.642057780832502 0.5172404154081391 471.0599151315838 0.0
3319.7126057039227 833.2529228252406 8.756505687420717 0.5154112744602743 474.2716930347005 0.0
3375.242725754144 861.8194875492277 8.873164728112956 0.5135732586922543 477.5110201023164 0.0
3432.07736289774 890.9581860685067 8.991777058810836 0.5118401577115375 480.77294680996494 0.0
3490.320246842439 920.718353417461 9.112528928876523 0.5100588323946811 484.06176219100337 0.0
3550.074022772692 951.1406460281623 9.235539755122273 0.5082522943810783 487.37742484726095 0.0
3611.334652707927 982.221531875275 9.360789816406298 0.5065086012693847 490.71942709513365 0.0
3674.0208236092813 1013.9183255720536 9.488101731574393 0.5047991937385579 494.0830324628434 0.0
3738.25742769079 1046.2893989587214 9.617691366490831 0.5030430639478274 497.47289006040484 0.0
3804.1506498822764 1079.3762387742227 9.749677587582708 0.5012805385887775 500.8888825459008 0.0
3871.6689764051907 1113.1632231634126 9.883998946190918 0.4995793857356752 504.3299917615031 0.0
3940.757972138125 1147.6197947999776 10.020520808248609 0.497899014166884 507.7922253856572 0.0
4011.5490492836775 1182.8065190328387 10.159463296023478 0.49622523394381446 511.2801267663313 0.0
4084.0847315280866 1218.7392353010237 10.300867683992164 0.4945225917605338 514.7936148893198 0.0
4158.432161276885 1255.4403911530235 10.444778769721925 0.49282470694381697 518.3310928584808 0.0
4234.517444153161 1292.8733122316714 10.591051669695236 0.49117752580854646 521.8894715714698 0.0
4312.468756706584 1331.0966493609542 10.739897413282167 0.4895443522325591 525.4730848306887 0.0
4392.332114788808 1370.1274787042046 10.891359829758324 0.48792020759830557 529.0818842067226 0.0
4474.104610007897 1409.9589576968467 11.045389800006488 0.4863066677724319 532.7136335653959 0.0
4557.784888351964 1450.5851988084155 11.201942607605961 0.48470490035900227 536.3662857953279 0.0
4643.512488738931 1492.0685176513355 11.361235432243504 0.4831133018460019 540.0438741161018 0.0
4731.337343541235 1534.427371525337 11.523314875310023 0.48152306460357686 543.7463790946406 0.0
4821.258205766594 1577.6538394991558 11.688119448865043 0.4799420212954626 547.4708712870953 0.0
4913.288834954512 1621.7502305905527 11.855639093737071 0.4783859031249147 551.216467733508 0.0
5007.558599698752 1666.773862423553 12.02607101507623 0.4768466932944051 554.9868210458568 0.0
5104.121407064036 1712.7445955166431 12.199464556453897 0.47531905997618296 558.781937487146 0.0
5202.9363518286555 1759.637206369525 12.375699101580318 0.47380473924607003 562.5981454122898 0.0
5304.064416439775 1807.4750538329838 12.554837463857407 0.47230397129739643 566.4358348263322 0.0
5407.644067187806 1856.3178094917355 12.737076841340121 0.4708156620946511 570.2982070044372 0.0
5513.733653591047 1906.1868948141798 12.922469543040169 0.4693397684372087 574.1852909518561 0.0
5622.26720713109 1957.045394668704 13.110851287235313 0.46787816226503587 578.0926279967849 0.0
5733.3479436948655 2008.9359201727623 13.30235327442562 0.46643051206436326 582.021979385741 0.0
5847.110222839113 2061.915173443239 13.497156551917142 0.464995939118495 585.9760320290837 0.0
5963.617120800889 2116.006233246112 13.695316494568836 0.4635672092345011 589.9548350790684 0.0
6082.794531060541 2171.1668751703633 13.896641915089537 0.462146733736958 593.9531011119569 0.0
6204.79555361151 2227.4620695098793 14.101341669622986 0.4607455826083271 597.9740527294582 0.0
6329.734179317396 2284.9391449776153 14.309562117819366 0.4593626074830741 602.019805726412 0.0
6457.6787656780025 2343.6230246715063 14.521361949949082 0.45799324464814184 606.0904271513187 0.0
6588.498030381153 2403.447327177801 14.7364713232303 0.45663947643603997 610.1797613821134 0.0
6722.407078911377 2464.5042618725447 14.955191290544429 0.45529970338323267 614.2925763096104 0.0
6859.523052748199 2526.8406651096807 15.177656947427751 0.4539736314681697 618.4303648993331 0.0
6999.919655449687 2590.483326500535 15.403930265559929 0.452653861779865 622.5932101621104 0.0
7143.45396383839 2655.3589485640755 15.633708360602313 0.45133252609193697 626.7740504200112 0.0
7290.453640176367 2721.6061739477086 15.867435109741491 0.4500304170714067 630.9792782513232 0.0
7440.960135438071 2789.241289755271 16.105153582076134 0.4487582364857854 635.2097160524316 0.0
7595.053116306006 2858.2931602106373 16.346929299700555 0.4474781795589813 639.4654611461091 0.0
