e[MeV/fm^3], P[MeV/fm^3], rho[fm^-3], v2[1], mu_q[MeV], mu_e[MeV]
70.21755168181654 0.006206087273093519 0.07407856508846018 0.017597877650005332 316.5185077347417 89.2771661002368
71.43578994790998 0.027644495228360377 0.07535555647246353 0.0175978776500052 316.5894798429086 89.8124074562691
72.67502861766434 0.04945246571785267 0.07665456106626496 0.017597877650005228 316.6616753923034 90.35687548400062
73.93562970314778 0.07163636938565421 0.07797595834102777 0.01759787765000538 316.7351154730202 90.91072923592193
75.21796145691394 0.09420268669514797 0.07932013430936638 0.01759787765000533 316.8098215387112 91.47413050632369
76.5223984795798 0.11715800982215896 0.0806874816381126 0.01759787765000522 316.8858154128541 92.04724387856187
77.84932182925448 0.14050904458066893 0.08207839976302188 0.017597877650005325 316.96311929512683 92.630236773136
79.19911913285509 0.16426261238173973 0.08349329500545777 0.017597877650005436 317.0417557678931 93.22327949659658
80.57218469934486 0.18842565222626206 0.08493258069109116 0.017597877650005332 317.12174780279906 93.82654529129692
81.96891963491473 0.21300522273190858 0.08639667727063695 0.017597877650005284 317.20311876748366 94.44021038599915
83.38973196016327 0.23800850419525207 0.0878860124426853 0.017597877650005242 317.2858924324053 95.06445404735784
84.83503672928572 0.26344280068923775 0.08940102127863886 0.01759787765000527 317.37009297778565 95.69945863228664
86.3052561513196 0.28931554219685157 0.0909421463498059 0.01759787765000538 317.45574500067295 96.34540964122833
87.80081971348744 0.3156342867816875 0.09250983785669148 0.017597877650005325 317.54287352212793 97.00249577234631
89.32216430665855 0.3424067227958098 0.09410455376051008 0.01759787765000531 317.63150399453286 97.67090897664707
90.86973435297011 0.3696406711256137 0.09572675991696154 0.017597877650005242 317.7216623090265 98.3508445140514
92.44398193566516 0.39734408747669764 0.0973769302123309 0.017597877650005228 317.8133748030682 99.04250101043964
94.04536693114535 0.4255250646977123 0.09905554670190979 0.01759787765000531 317.90666826813106 99.74608051566989
95.67435714332068 0.45419183514462985 0.10076309975082554 0.017892055534992374 318.00156995752883 100.46178856260559
97.33169327479138 0.4843410207312542 0.10250008817728433 0.018775745774211428 318.10048622561175 101.18570399772256
99.01814146064449 0.5170082040359527 0.10426701939828847 0.020025246310001077 318.2058447860128 101.91428658825437
100.73429318912723 0.5525181669555139 0.1060644095778678 0.02129999675038627 318.31828524079526 102.64750316311726
102.48063871606901 0.5907964457966746 0.10789278377786223 0.022549781036994038 318.43751805132047 103.38670836290729
104.25774423592242 0.6320103592916358 0.10975267611130558 0.023887708108000116 318.5638120290785 104.13237516689382
106.06623539667063 0.676492214395437 0.11164462989845152 0.025339806313660923 318.697770868173 104.88465247088972
107.90674784282342 0.7245234535359056 0.11356919782549418 0.026726883379044414 318.8398212612412 105.64215664334085
109.77980899298537 0.7757858510810522 0.11552694210601787 0.028008654354195556 318.9889635986241 106.39548846211913
111.68603200563659 0.8304189676497289 0.11751843464523576 0.02941848660514751 319.1453310518051 107.14305877628786
113.62612253642692 0.8889903796251314 0.1195442572070575 0.0310000273545607 319.31003653378224 107.89037199216354
115.60075117782822 0.9518318179215621 0.1216050015840337 0.03259969837934959 319.4836179784206 108.6399435927219
117.61049319554543 1.0189345897359714 0.12370126977023699 0.03419210470702347 319.6659546827271 109.3941654142798
119.65602415051524 1.0905481505064962 0.12583367413711752 0.03592218882239359 319.8573917239201 110.15411877028433
121.73815641876267 1.1672766767204164 0.12800283761239192 0.03778190969818496 320.0588603075681 110.92020174565145
123.85759205422588 1.2493614886182018 0.1302093938620144 0.0396255479711905 320.27062777688235 111.69348487044105
126.01496433860267 1.3368161240061027 0.13245398747528928 0.041461386350795104 320.4925793312381 112.47517112638602
128.2110155783424 1.429932568241939 0.13473727415316794 0.04346252473119688 320.7250671173629 113.26594974297757
130.4466887956552 1.52951487508801 0.1370599208997976 0.045590760196347446 320.969220213987 114.06610244230104
132.72270298041246 1.6357091714792171 0.13942260621736857 0.04767926014436641 321.22510082538804 114.87651716166351
135.03976205186157 1.748593799706529 0.14182602030432198 0.04977029748745049 321.49267975935425 115.69799950047124
137.3986835249372 1.8685229353243933 0.14427086525697244 0.05206400529136951 321.77234677231564 116.53110782929468
139.80057355445675 1.9965668028217445 0.14675785527460983 0.05448295484632937 322.0654823434704 117.37614392238619
142.24614757531495 2.1327305435734982 0.1492877168681315 0.05683638595368079 322.37191652081754 118.23384218287305
144.73619757503982 2.2771938463603174 0.15186118907227755 0.059208520968313694 322.69174413674494 119.10477732777403
147.27162660197732 2.430390920319256 0.15447902366151722 0.0618292055008095 323.0254080857181 119.98940983187808
149.85374556019306 2.5937403356179334 0.15714198536966398 0.06457197399617759 323.3745941649684 120.88804723823948
152.4832372283129 2.7670401807274834 0.15985085211327107 0.06721882453614525 323.7388555425644 121.80124809303793
155.16100474728017 2.9506159576823916 0.1626064152188807 0.06990575565196155 324.1184454344821 122.72942464238325
157.8880490867394 3.1450019316856195 0.16540947965419006 0.07289593855263288 324.5138717435153 123.67293532678868
160.66593902373984 3.3520690822739376 0.16826086426320178 0.07600220080988451 324.92718571735776 124.63202719571277
163.4952840125817 3.5713158744339593 0.17116140200542868 0.07897532922519734 325.3576004812541 125.6070903482084
166.37712853614147 3.8032695276021222 0.17411194019922174 0.08202037368123771 325.8055622707938 126.59840218489457
169.31260061973967 4.048620249866702 0.17711334076929286 0.08542133552471287 326.2716886567447 127.60620334892384
172.303551331823 4.309718566586897 0.18016648049850292 0.0889270452590527 326.7583492276527 128.63058410314463
175.35050383107742 4.585737524453315 0.1832722512839939 0.09226446929582366 327.26444376458807 129.67181814230588
178.45466868853612 4.877441713994387 0.18643156039773165 0.09572802473872655 327.7906096931573 130.73004905217363
181.61738960046912 5.18586172672753 0.18964533075154347 0.09956214286511778 328.3377308078966 131.80536363429957
184.84067158507494 5.5134958934314255 0.19291450116672415 0.10348029397253222 328.90808973361146 132.89762523650757
188.12508868773136 5.859506730761704 0.19624002664828616 0.10723125726635341 329.50063467169656 134.00704679883177
191.47199658539387 6.224818666062787 0.19962287866394354 0.11114950466071183 330.116072530961 135.1336328978941
194.88301649425165 6.610906017540677 0.2030640454278977 0.11544544815415358 330.7555888744374 136.2772622126371
198.3602890613904 7.020342674256472 0.2065645321895225 0.11979382346787826 331.42129567013734 137.43754067535426
201.9044613376726 7.452308308070558 0.2101253615270204 0.12397650239191993 332.11220306471756 138.61467605675114
205.5170562570145 7.907903230714149 0.21374757364614289 0.1283699626450635 332.8290718474655 139.80852765902867
209.2000509218192 8.389163756231573 0.21743222668406043 0.1331367755092301 333.57341318817043 141.01869117551004
212.95568685700158 8.89862029273525 0.22118039701847075 0.1379109881763032 334.34705688852574 142.2445530860434
216.7847142491265 9.435507109353031 0.224993179582034 0.1425209986125906 335.149090910276 143.4863497980139
220.6888478651131 10.001107919216421 0.22887168818223044 0.1473848211915132 335.9803024130194 144.74379875149575
224.67051841244387 10.598148441577159 0.23281705582673115 0.15260238957125072 336.84253077264475 146.0161250814302
228.73201076449018 11.228941923303356 0.23683043505437643 0.1577674592771845 337.73719306437926 147.30260528428684
232.87421847820065 11.892825884399452 0.2409129982718618 0.16276966708385543 338.6634726746745 148.60351662363965
237.09907459677976 12.591262929879372 0.2450659380962259 0.1680647442175771 339.6221443059857 149.91845083271977
241.4095830266287 13.327795359770137 0.24929046770324403 0.17367604335428166 340.61534675451054 151.2461733723472
245.80798450797525 14.104290408314728 0.25358782118182577 0.17916063314688135 341.6439533067965 152.5860269646372
250.29536865638684 14.920249387540146 0.2579592538945237 0.18448376658109078 342.70726027181 153.9383214680799
254.87391430339358 15.777295306389933 0.26240604284425445 0.19013115054428797 343.8059831368225 155.30255316107613
259.54734193097937 16.679902122692877 0.2669294870473437 0.19603884001981875 344.9424917462097 156.67695034502995
264.3177234138911 17.62921742422393 0.2715309079130002 0.20173455319505607 346.11701155796936 158.06114921462316
269.1864120746621 18.624978432827973 0.2762116496293318 0.20727097595137622 347.328966229596 159.45546560193614
274.15586021544175 19.66893704821644 0.28097307955601647 0.2131521958171756 348.57896372915343 160.8593430130801
279.2306731431928 20.76658998854091 0.28581658862374093 0.21922189252154145 349.86949367684684 162.27041922778363
284.412585417037 21.918069468750467 0.29074359174052566 0.2249894143101847 351.2000887836266 163.68887481305947
289.7032992122702 23.123430865940225 0.29575552820505524 0.2306016920899494 352.5703075794808 165.1149897852477
295.1055673860831 24.38451504681977 0.300853862127132 0.23656661428271297 353.98060905644974 166.5482047162215
300.6250734626658 25.70790002720107 0.3060400828553784 0.24296360527658933 355.4334521442952 167.985546141962
307.2702500354263 27.342739362371912 0.3122340364534762 0.0020523911058006744 356.9277197298895 169.9992235025436
588.9081440695916 29.15045442238185 1.2248484275154938 0.010784766807265186 358.4631014669581 141.63770311776076
822.4801264596608 32.515244847966834 1.9966770315015843 0.01623204814176596 360.03988091456415 114.13851251673718
1065.3122734434178 36.91796243539392 2.8344250436943295 0.02523459170759726 361.66030746350987 86.55955413487791
1248.0921895927659 42.5076817601565 3.4834208914606664 0.06372858473123683 363.3227610243933 57.99459515151385
1329.0526958592932 48.85584876966373 3.773882752241515 0.7510680451431178 365.0270429856405 31.022345917043452
1337.1358279821281 55.4696812746438 3.796846400126667 0.8779804517309353 366.7732551876847 10.296867863562017
1344.4472700464014 62.28416306511314 3.816777572789488 0.9345667803165365 368.5632457970251 0.0
1351.9281000035628 69.29491673906773 3.837028479356054 0.9368754831579018 370.39513942729127 0.0
1359.6255283988928 76.50417503612667 3.8577611556209117 0.936285127328846 372.26881070045994 0.0
1367.5428513089653 83.91464457218939 3.878977065220953 0.9356791679808767 374.18425749083553 0.0
1375.687855664355 91.53322029456395 3.900689562659915 0.9350581178505841 376.1425479489815 0.0
1384.0571726690173 99.35635392514521 3.9228822705071744 0.9344232592053654 378.1420680020603 0.0
1392.6533759297429 107.38605145457888 3.9455547572722023 0.9337752027216091 380.18264288681297 0.0
1401.479372920543 115.62462209234648 3.9687074735111487 0.9331145664615219 382.2641765278808 0.0
1410.5392506193998 124.0754657004673 3.9923439292481624 0.9324418513123014 384.38684656688184 0.0
1419.831864005334 132.73709495032762 4.016454024138231 0.9317578670051727 386.54960838431725 0.0
1429.3592823030608 141.61101638288432 4.041036136499247 0.9310631165672545 388.75217980057613 0.0
1439.1235514542989 150.69870779465143 4.066088617598961 0.9303459333608659 390.99427615507426 0.0
1449.1282896258804 160.00285527760278 4.0916089284095225 0.9295784756799303 393.27543963785325 0.0
1459.3801031957412 169.52856436762056 4.117595469870358 0.9288079949646182 395.59516773161965 0.0
1469.8738356540348 179.27130556714675 4.144042810902061 0.9280649699506993 397.95311125729603 0.0
1480.6101551654701 189.23125064804358 4.1709460622081185 0.9273136775477901 400.3486982341418 0.0
1491.5886844755846 199.4075989530669 4.198297827238342 0.9264926935366091 402.78113502043635 0.0
1502.8253928950166 209.81327666974988 4.226105129221775 0.9256510422991155 405.2503908250171 0.0
1514.3112324820506 220.44055162223282 4.254360501556288 0.9248611152634343 407.7560864453435 0.0
1526.0435383522893 231.2866427397362 4.283054024462568 0.924023123461561 410.2972643916196 0.0
1538.0321250300703 242.35897654683384 4.3121827574044715 0.9231421085274913 412.8731075256692 0.0
1550.2790199527394 253.65921137214457 4.341750852694038 0.9222992704240571 415.48395412590855 0.0
1562.7786894518074 265.18250914165714 4.371752408594873 0.9214098064657836 418.12942481666244 0.0
1575.5438898671225 276.93825351728356 4.402180210096216 0.9204921028184518 420.80808286670407 0.0
1588.5633832543426 288.91689572620066 4.433024272679505 0.9196071696275236 423.519388423576 0.0
1601.8466394612124 301.12621230830314 4.4642944403496925 0.918666748751134 426.263926491692 0.0
1615.4032524689433 313.5735237119684 4.495991996453314 0.9177406971873623 429.04133904117657 0.0
1629.2135739628916 326.241740622335 4.528089646520643 0.9167786229623918 431.84962364736657 0.0
1643.3018309663737 339.1500509886787 4.560598881302217 0.9158144775980208 434.68879187402194 0.0
1657.6521990383449 352.2860168249103 4.593518883914308 0.9148323841144208 437.55954505588323 0.0
1672.2929485572288 365.6717459884938 4.626860038296221 0.9138347315784241 440.4615602408136 0.0
1687.188921021784 379.2774705021647 4.660581889040662 0.9128310083338533 443.39219174670734 0.0
1702.373788225762 393.1301473041653 4.694707702225119 0.9118005889600109 446.35224304333093 0.0
1717.8325205582064 407.2180639789462 4.729236839744078 0.9107784002711217 449.3424024244641 0.0
1733.5864208810285 421.5576136686314 4.764176929080811 0.9097172731497132 452.3623894048231 0.0
1749.609920094322 436.1262386518863 4.799485484635043 0.9086768973373474 455.4088468583903 0.0
1765.9209557975762 450.93895285763784 4.835187531051922 0.9075886332496115 458.48357591050296 0.0
1782.5318875293817 466.00550795448464 4.87129413017027 0.9065154296537052 461.5871295346198 0.0
1799.4333816131764 481.31818435756827 4.907798851664937 0.9054142787765826 464.7192724425523 0.0
1816.6247287244867 496.8733133907934 4.944664030169239 0.9042812442954649 467.87587687666405 0.0
1834.1141457125311 512.6790230117755 4.981920740443003 0.9031933601288014 471.0599151315838 0.0
1851.9047809477067 528.7376962698238 5.019573406837284 0.902040692722446 474.2716930347005 0.0
1870.018144486643 545.0654956864819 5.057630799014937 0.9008657214446352 477.5110201023164 0.0
1888.4151922568615 561.628355733228 5.0960294731057765 0.899739427190255 480.77294680996494 0.0
1907.123985715253 578.4507316157284 5.134821931880796 0.8985629258399257 484.06176219100337 0.0
1926.1605921458615 595.5445715450313 5.174015728012997 0.8973514462220997 487.37742484726095 0.0
1945.5216068186323 612.9065035616255 5.213604800246057 0.8961632243300031 490.71942709513365 0.0
1965.1792782298248 630.5113340537159 5.253533048414675 0.894979652268395 494.0830324628434 0.0
1985.1659187277276 648.3869640585309 5.2938583126363525 0.8937436734010209 497.47289006040484 0.0
2005.4973291425938 666.544895172882 5.334587398216644 0.8924839797395379 500.8888825459008 0.0
2026.1640732490112 684.9767453296216 5.375706694393818 0.8912480545239365 504.3299917615031 0.0
2047.1447314145134 703.6626740718173 5.417169904113232 0.8900075616902612 507.7922253856572 0.0
2068.472078605857 722.6307573601524 5.4590341611038475 0.8887521643574452 511.2801267663313 0.0
2090.151330457537 741.8844376207628 5.501301451011461 0.8874539325197759 514.7936148893198 0.0
2112.1870502703505 761.4253053189324 5.543959814065489 0.8861388963877239 518.3310928584808 0.0
2134.557052102112 781.2336419415235 5.586970720342745 0.8848419153590896 521.8894715714698 0.0
2157.2926966965715 801.3361966026628 5.63038873879079 0.8835351078224534 525.4730848306887 0.0
2180.3995359304536 821.7365981466171 5.674216329622054 0.8822145046161154 529.0818842067226 0.0
2203.8689542044144 842.4259653798431 5.718429309007439 0.8808812631532774 532.7136335653959 0.0
2227.69306565303 863.3961073681977 5.7630055539651055 0.8795362618479956 536.3662857953279 0.0
2251.9038111224477 884.6738412541812 5.807997230610142 0.8781780745492611 540.0438741161018 0.0
2276.50711120067 906.2629961561287 5.85340725460769 0.876798764663107 543.7463790946406 0.0
2301.4921204145726 928.1522776280491 5.899204134306615 0.8754051684129358 547.4708712870953 0.0
2326.8564869681322 950.3385713520663 5.945378940573759 0.8740110771679568 551.216467733508 0.0
2352.6291693098183 972.8460550206489 5.991978951152877 0.8726096077489238 554.9868210458568 0.0
2378.8164644949434 995.6787633719701 6.039007504325679 0.8711960700143244 558.781937487146 0.0
2405.3990334091404 1018.8183923765031 6.086422234490082 0.8697720783221463 562.5981454122898 0.0
2432.3852780629672 1042.2708447478253 6.1342309650628675 0.8683379015925183 566.4358348263322 0.0
2459.8037890682635 1066.059481356154 6.182476751337382 0.8668925334416855 570.2982070044372 0.0
2487.6612736468196 1090.1885556479133 6.23116334142361 0.8654359629417492 574.1852909518561 0.0
2515.9319398437315 1114.6341977565753 6.280238104534981 0.8639701090040361 578.0926279967849 0.0
2544.6344186143447 1139.41101484038 6.329726237685755 0.862494740212977 582.021979385741 0.0
2573.794732126402 1164.539873890899 6.379664910816897 0.8610090537974209 585.9760320290837 0.0
2603.4200189617536 1190.025255760219 6.430058264273035 0.859505338461986 589.9548350790684 0.0
2633.480222237206 1215.839212015038 6.480844125978929 0.8579861655778345 593.9531011119569 0.0
2664.0055089992165 1242.0060596443143 6.53206652567634 0.8564634175352133 597.9740527294582 0.0
2695.016841143202 1268.5423348665615 6.583754984726965 0.8549360951949758 602.019805726412 0.0
2726.5218286148765 1295.45276151336 6.635914031246228 0.853399504550417 606.0904271513187 0.0
2758.479300042243 1322.700469021194 6.688468142548008 0.8518560572830438 610.1797613821134 0.0
2790.9329686938154 1350.3210133153282 6.741481932989282 0.8503041418605655 614.2925763096104 0.0
2823.9017939299265 1378.3286847919826 6.794978348808164 0.8487436002761477 618.4303648993331 0.0
2857.393862216701 1406.728452580511 6.848962285549626 0.8471655621680974 622.5932101621104 0.0
2891.362874395034 1435.4786305223859 6.903347548154879 0.8455602370946345 626.7740504200112 0.0
2925.872813104401 1464.6306531239723 6.95822344387382 0.8439533379683368 630.9792782513232 0.0
2960.929975431975 1494.1891467692046 7.0136005282889515 0.842358110512361 635.2097160524316 0.0
2996.542968842076 1524.159343179014 7.069484066817066 0.8407464836276262 639.4654611461091 0.0
