e[MeV/fm^3], P[MeV/fm^3], rho[fm^-3], v2[1], mu_q[MeV], mu_e[MeV]
70.21755168181654 0.006206087273093519 0.07407856508846018 0.017597877650005332 316.5185077347417 89.2771661002368
71.43578994790998 0.027644495228360377 0.07535555647246353 0.0175978776500052 316.5894798429086 89.8124074562691
72.67502861766434 0.04945246571785267 0.07665456106626496 0.017597877650005228 316.6616753923034 90.35687548400062
73.93562970314778 0.07163636938565421 0.07797595834102777 0.01759787765000538 316.7351154730202 90.91072923592193
75.21796145691394 0.09420268669514797 0.07932013430936638 0.01759787765000533 316.8098215387112 91.47413050632369
76.5223984795798 0.11715800982215896 0.0806874816381126 0.01759787765000522 316.8858154128541 92.04724387856187
77.84932182925448 0.14050904458066893 0.08207839976302188 0.017597877650005325 316.96311929512683 92.630236773136
79.19911913285509 0.16426261238173973 0.08349329500545777 0.017597877650005436 317.0417557678931 93.22327949659658
80.57218469934486 0.18842565222626206 0.08493258069109116 0.017597877650005332 317.12174780279906 93.82654529129692
81.96891963491473 0.21300522273190858 0.08639667727063695 0.017597877650005284 317.20311876748366 94.44021038599915
83.38973196016327 0.23800850419525207 0.0878860124426853 0.017597877650005242 317.2858924324053 95.06445404735784
84.83503672928572 0.26344280068923775 0.08940102127863886 0.01759787765000527 317.37009297778565 95.69945863228664
86.3052561513196 0.28931554219685157 0.0909421463498059 0.01759787765000538 317.45574500067295 96.34540964122833
87.80081971348744 0.3156342867816875 0.09250983785669148 0.017597877650005325 317.54287352212793 97.00249577234631
89.32216430665855 0.3424067227958098 0.09410455376051008 0.01759787765000531 317.63150399453286 97.67090897664707
90.86973435297011 0.3696406711256137 0.09572675991696154 0.017597877650005242 317.7216623090265 98.3508445140514
92.44398193566516 0.39734408747669764 0.0973769302123309 0.017597877650005228 317.8133748030682 99.04250101043964
94.04536693114535 0.4255250646977123 0.09905554670190979 0.01759787765000531 317.90666826813106 99.74608051566989
95.67435714332068 0.45419183514462985 0.10076309975082554 0.017892055534992374 318.00156995752883 100.46178856260559
97.33169327479138 0.4843410207312542 0.10250008817728433 0.018775745774211428 318.10048622561175 101.18570399772256
99.01814146064449 0.5170082040359527 0.10426701939828847 0.020025246310001077 318.2058447860128 101.91428658825437
100.73429318912723 0.5525181669555139 0.1060644095778678 0.02129999675038627 318.31828524079526 102.64750316311726
102.48063871606901 0.5907964457966746 0.10789278377786223 0.022549781036994038 318.43751805132047 103.38670836290729
104.25774423592242 0.6320103592916358 0.10975267611130558 0.023887708108000116 318.5638120290785 104.13237516689382
106.06623539667063 0.676492214395437 0.11164462989845152 0.025339806313660923 318.697770868173 104.88465247088972
107.90674784282342 0.7245234535359056 0.11356919782549418 0.026726883379044414 318.8398212612412 105.64215664334085
109.77980899298537 0.7757858510810522 0.11552694210601787 0.028008654354195556 318.9889635986241 106.39548846211913
111.68603200563659 0.8304189676497289 0.11751843464523576 0.02941848660514751 319.1453310518051 107.14305877628786
113.62612253642692 0.8889903796251314 0.1195442572070575 0.0310000273545607 319.31003653378224 107.89037199216354
115.60075117782822 0.9518318179215621 0.1216050015840337 0.03259969837934959 319.4836179784206 108.6399435927219
117.61049319554543 1.0189345897359714 0.12370126977023699 0.03419210470702347 319.6659546827271 109.3941654142798
119.65602415051524 1.0905481505064962 0.12583367413711752 0.03592218882239359 319.8573917239201 110.15411877028433
121.73815641876267 1.1672766767204164 0.12800283761239192 0.03778190969818496 320.0588603075681 110.92020174565145
123.85759205422588 1.2493614886182018 0.1302093938620144 0.0396255479711905 320.27062777688235 111.69348487044105
126.01496433860267 1.3368161240061027 0.13245398747528928 0.041461386350795104 320.4925793312381 112.47517112638602
128.2110155783424 1.429932568241939 0.13473727415316794 0.04346252473119688 320.7250671173629 113.26594974297757
130.4466887956552 1.52951487508801 0.1370599208997976 0.045590760196347446 320.969220213987 114.06610244230104
132.72270298041246 1.6357091714792171 0.13942260621736857 0.04767926014436641 321.22510082538804 114.87651716166351
135.03976205186157 1.748593799706529 0.14182602030432198 0.04977029748745049 321.49267975935425 115.69799950047124
137.3986835249372 1.8685229353243933 0.14427086525697244 0.05206400529136951 321.77234677231564 116.53110782929468
139.80057355445675 1.9965668028217445 0.14675785527460983 0.05448295484632937 322.0654823434704 117.37614392238619
142.24614757531495 2.1327305435734982 0.1492877168681315 0.05683638595368079 322.37191652081754 118.23384218287305
144.73619757503982 2.2771938463603174 0.15186118907227755 0.059208520968313694 322.69174413674494 119.10477732777403
147.27162660197732 2.430390920319256 0.15447902366151722 0.0618292055008095 323.0254080857181 119.98940983187808
149.85374556019306 2.5937403356179334 0.15714198536966398 0.06457197399617759 323.3745941649684 120.88804723823948
152.4832372283129 2.7670401807274834 0.15985085211327107 0.06721882453614525 323.7388555425644 121.80124809303793
155.16100474728017 2.9506159576823916 0.1626064152188807 0.06990575565196155 324.1184454344821 122.72942464238325
157.8880490867394 3.1450019316856195 0.16540947965419006 0.07289593855263288 324.5138717435153 123.67293532678868
160.66593902373984 3.3520690822739376 0.16826086426320178 0.07600220080988451 324.92718571735776 124.63202719571277
163.4952840125817 3.5713158744339593 0.17116140200542868 0.07897532922519734 325.3576004812541 125.6070903482084
166.37712853614147 3.8032695276021222 0.17411194019922174 0.08202037368123771 325.8055622707938 126.59840218489457
169.31260061973967 4.048620249866702 0.17711334076929286 0.08542133552471287 326.2716886567447 127.60620334892384
172.303551331823 4.309718566586897 0.18016648049850292 0.0889270452590527 326.7583492276527 128.63058410314463
175.35050383107742 4.585737524453315 0.1832722512839939 0.09226446929582366 327.26444376458807 129.67181814230588
178.45466868853612 4.877441713994387 0.18643156039773165 0.09572802473872655 327.7906096931573 130.73004905217363
181.61738960046912 5.18586172672753 0.18964533075154347 0.09956214286511778 328.3377308078966 131.80536363429957
184.84067158507494 5.5134958934314255 0.19291450116672415 0.10348029397253222 328.90808973361146 132.89762523650757
188.12508868773136 5.859506730761704 0.19624002664828616 0.10723125726635341 329.50063467169656 134.00704679883177
191.47199658539387 6.224818666062787 0.19962287866394354 0.11114950466071183 330.116072530961 135.1336328978941
194.88301649425165 6.610906017540677 0.2030640454278977 0.11544544815415358 330.7555888744374 136.2772622126371
198.3602890613904 7.020342674256472 0.2065645321895225 0.11979382346787826 331.42129567013734 137.43754067535426
201.9044613376726 7.452308308070558 0.2101253615270204 0.12397650239191993 332.11220306471756 138.61467605675114
205.5170562570145 7.907903230714149 0.21374757364614289 0.1283699626450635 332.8290718474655 355.10062045161
209.2000509218192 8.389163756231573 0.21743222668406043 0.1331367755092301 333.57341318817043 341.92583074949994
212.95568685700158 8.89862029273525 0.22118039701847075 0.1379109881763032 334.34705688852574 328.23239132976994
216.7847142491265 9.435507109353031 0.224993179582034 0.1425209986125906 335.149090910276 314.0364452057909
220.6888478651131 10.001107919216421 0.22887168818223044 0.1473848211915132 335.9803024130194 299.3240597076971
224.67051841244387 10.598148441577159 0.23281705582673115 0.15260238957125072 336.84253077264475 284.0626780108248
228.73201076449018 11.228941923303356 0.23683043505437643 0.1577674592771845 337.73719306437926 268.227217982705
232.87421847820065 11.892825884399452 0.2409129982718618 0.16276966708385543 338.6634726746745 251.83213362606426
237.09907459677976 12.591262929879372 0.2450659380962259 0.1680647442175771 339.6221443059857 234.8637127615952
241.4095830266287 13.327795359770137 0.24929046770324403 0.17367604335428166 340.61534675451054 217.28409884609923
245.80798450797525 14.104290408314728 0.25358782118182577 0.17916063314688135 341.6439533067965 199.07783476872572
250.29536865638684 14.920249387540146 0.2579592538945237 0.1845073534747863 342.70726027181 180.2573758115826
257.31344647325653 16.24628123419342 0.2647873977556272 0.0006777932297727801 343.8059831368225 160.8100578999774
390.7869532650342 16.849094824040034 0.7135334021903277 0.008354914523789392 344.9424917462097 140.69393495410657
535.8506088036041 18.66627763193518 1.2069104023512227 0.014147151344405834 346.11701155796936 121.67898505827371
672.3488162838846 20.80545447792371 1.6779380255392504 0.01931060420855593 347.328966229596 102.69380128301566
790.6231362269468 23.4623172865503 2.0988402795349783 0.022909850477624824 348.57896372915343 84.19922569797706
934.1117156680309 26.82730782416449 2.644717793232475 0.031234705065913387 349.86949367684684 65.06968187717794
1036.4681205881586 30.592687698944193 3.0358962806711585 0.40413534635260184 351.2000887836266 46.00116487954065
1046.0114729135817 34.77635615311446 3.0649719036745173 0.4884399221166489 352.5703075794808 27.629004925694368
1054.1904696313543 39.122170034282696 3.0884762355714535 0.5394421659603705 353.98060905644974 11.856713599222106
1062.4180084060877 43.62752229036552 3.111779706314737 0.5504127083730816 355.4334521442952 2.881177488777296
1070.8498872542757 48.29289139335169 3.135460987762798 0.5527592839804116 356.9277197298895 0.0
1079.5937646162163 53.1212365531749 3.1599198433179545 0.5514247164045223 358.4631014669581 0.0
1088.6868208383626 58.128067149081026 3.185219849138419 0.550010864802216 360.03988091456415 0.0
1098.125056723789 63.31321912060361 3.211369332112496 0.5487481297211518 361.66030746350987 0.0
1107.9083584143164 68.67540783938463 3.238356561448103 0.5474464761214874 363.3227610243933 0.0
1118.0456069498623 74.21818601865323 3.266193771778896 0.5461057342748448 365.0270429856405 0.0
1128.5476204127099 79.94613129834259 3.294898223042694 0.5447299248678243 366.7732551876847 0.0
1139.4361445975153 85.86971344050514 3.3245164302637913 0.543321712385819 368.5632457970251 0.0
1150.710523946956 91.98716905378754 3.3550335638658346 0.5418865790120093 370.39513942729127 0.0
1162.3807232177953 98.30249958573643 3.386463586480019 0.5404279431734289 372.26881070045994 0.0
1174.4576338886536 104.82017310815827 3.4188226516909337 0.5389488035153152 374.18425749083553 0.0
1186.9592311593044 111.54842459849591 3.452145389195203 0.5374514498370564 376.1425479489815 0.0
1199.886500255332 118.48631357283844 3.486420865766672 0.5359399366653399 378.1420680020603 0.0
1213.2496110526686 125.63782752188268 3.5216625057641333 0.5344165821993743 380.18264288681297 0.0
1227.059387132112 133.00727210553944 3.5578851775076066 0.5328836355842475 382.2641765278808 0.0
1241.3286586561235 140.59998612907182 3.5951086756267423 0.5313429889284933 384.38684656688184 0.0
1256.062123115172 148.41695600937823 3.6333313594207755 0.5297971573101838 386.54960838431725 0.0
1271.2696078652666 156.4618821805424 3.6725648360237346 0.5282478666754393 388.75217980057613 0.0
1286.961013179105 164.73847846020016 3.712820675796131 0.5266705486795864 390.99427615507426 0.0
1303.1527167219203 173.25297360623458 3.754118709368832 0.5250069833028244 393.27543963785325 0.0
1319.8715037753643 182.0158068904794 3.7964936354247114 0.5233591094330503 395.59516773161965 0.0
1337.1049201638311 191.02136194107518 3.839922543899695 0.5217935790866566 397.95311125729603 0.0
1354.8610226157225 200.27229605632675 3.8844115202517537 0.5202326612585892 400.3486982341418 0.0
1373.1461799653093 209.77037813155556 3.9299623386492466 0.5185536835122511 402.78113502043635 0.0
1392.016075992266 219.53813014986576 3.9766546543084536 0.5168551002286703 405.2503908250171 0.0
1411.4455082418274 229.56469357307347 4.024446510752194 0.515285911105801 407.7560864453435 0.0
1431.4348671094915 239.84920956133507 4.073329203551741 0.5136473928486689 410.2972643916196 0.0
1452.0264085906538 250.4079254788209 4.123355456487134 0.5119493985428072 412.8731075256692 0.0
1473.2269474272116 261.2436262043049 4.174535407348272 0.5103494150914534 415.48395412590855 0.0
1495.0227637344658 272.35017802152765 4.226844150886578 0.5086898686257912 418.12942481666244 0.0
1517.472953047917 283.7499483143497 4.280352127168872 0.5070009787203595 420.80808286670407 0.0
1540.5453536746288 295.4291920696215 4.3350066218395265 0.5053998844381296 423.519388423576 0.0
1564.271276641536 307.40075536544794 4.390854155540822 0.5037257420485526 426.263926491692 0.0
1588.6910982799611 319.6802438580255 4.447945838293313 0.5021010108881798 429.04133904117657 0.0
1613.7546878688872 332.24545010844844 4.506192158649751 0.5004442497610704 431.84962364736657 0.0
1639.5531039452048 345.1325167222335 4.565717038590448 0.49880579334508823 434.68879187402194 0.0
1666.0254160873496 358.3174041935074 4.626438859203337 0.4971696244644175 437.55954505588323 0.0
1693.2822661476505 371.8436010742655 4.688504187464314 0.49552900465472494 440.4615602408136 0.0
1721.2213472810279 385.66759371464093 4.751746918787124 0.49391118505486187 443.39219174670734 0.0
1749.9647502260989 399.8382790503894 4.816337069896077 0.4922726611298458 446.35224304333093 0.0
1779.4530349830213 414.3323541249382 4.882196315831424 0.49067848539372516 449.3424024244641 0.0
1809.7737157515812 429.1838313282989 4.949436812517745 0.4890480454286932 452.3623894048231 0.0
1840.8664903854374 444.3652874782865 5.017944132548518 0.48747784233900404 455.4088468583903 0.0
1872.7862731803257 459.89974067445223 5.087803973114707 0.48586300801815074 458.48357591050296 0.0
1905.5801166304977 475.80581163592154 5.159079446490119 0.48429580072859757 461.5871295346198 0.0
1939.2180271646473 492.0711009766808 5.231724942745869 0.4827176657118102 464.7192724425523 0.0
1973.7455687372506 508.7089963080678 5.305758456976467 0.48111899373191314 467.87587687666405 0.0
2009.168503253905 525.7242355940372 5.38121009364429 0.47961083853653097 471.0599151315838 0.0
2045.5003950451357 543.122036446592 5.458096319384098 0.4780417552320779 474.2716930347005 0.0
2082.835685867924 560.9385651225219 5.536532405721915 0.47646730420364136 477.5110201023164 0.0
2121.0763798421417 579.1301730494162 5.616340861789877 0.47498512839354845 480.77294680996494 0.0
2160.29337087995 597.7283735474548 5.697648559070376 0.47346410806508477 484.06176219100337 0.0
2200.5591476668524 616.7607651142697 5.7805420536891186 0.47192383240175406 487.37742484726095 0.0
2241.871410960758 636.2254146049089 5.865008009446541 0.4704394216386678 490.71942709513365 0.0
2284.1757346500303 656.095858826376 5.950926808911603 0.46898639858986346 494.0830324628434 0.0
2327.557770391995 676.4095886826788 6.038446099107853 0.4674959557151439 497.47289006040484 0.0
2372.092670000491 697.1949038848625 6.127652178571741 0.4660022298059232 500.8888825459008 0.0
2417.759075935708 718.4419539160292 6.218502445571884 0.4645627009031763 504.3299917615031 0.0
2464.5211193607124 740.1321531849806 6.310906850421108 0.4631428370805102 507.7922253856572 0.0
2512.4691675901104 762.3045750374664 6.405016319741682 0.46173057929590744 511.2801267663313 0.0
2561.6335377621513 784.9702133402145 6.500860893128293 0.4602960937298457 514.7936148893198 0.0
2612.0628321979398 808.1453011194506 6.5984759906078825 0.4588676139966168 518.3310928584808 0.0
2663.706984576635 831.8067194598293 6.697762454077387 0.4574838121461342 521.8894715714698 0.0
2716.654258162469 855.9923940226884 6.798865016175282 0.4561137099247796 525.4730848306887 0.0
2770.937478078324 880.7141935455033 6.901815505611452 0.454753078582498 529.0818842067226 0.0
2826.556217972883 905.9688385517499 7.006582522875351 0.45340319966104126 532.7136335653959 0.0
2883.511052080981 931.7536165732986 7.113137503979836 0.4520650084241531 536.3662857953279 0.0
2941.8985068401644 958.1091415776732 7.22163019628049 0.4507371236154736 540.0438741161018 0.0
3001.7542218060976 985.0482608910102 7.332094381681702 0.4494121832347773 543.7463790946406 0.0
3063.0794405859965 1012.5673795919569 7.444490997066206 0.448096663029931 547.4708712870953 0.0
3125.884778190408 1040.6688196188975 7.558814403687771 0.44680361183192474 551.216467733508 0.0
3190.259856061966 1069.3900348066595 7.675200594032555 0.4455262994161444 554.9868210458568 0.0
3256.2431695513083 1098.744866274945 7.793685287728465 0.4442602446250241 558.781937487146 0.0
3323.808411576752 1128.7183559366342 7.914187987537916 0.44300684255498357 562.5981454122898 0.0
3392.9988750167263 1159.3265529599971 8.036753451421848 0.4417662466752885 566.4358348263322 0.0
3463.910963512153 1190.608808973732 8.161518508779004 0.4405375084534926 570.2982070044372 0.0
3536.5863664154845 1222.580072585569 8.288520984148994 0.4393205495365269 574.1852909518561 0.0
3610.9815815628085 1255.2178722067097 8.417650227621499 0.43811686906083125 578.0926279967849 0.0
3687.1690049676477 1288.5507211918984 8.548997962170855 0.4369261487245568 582.021979385741 0.0
3765.242524147638 1322.6162776090541 8.682690280964795 0.4357476220078942 585.9760320290837 0.0
3845.2472278516852 1357.4306668586921 8.818767191023088 0.4345753213886754 589.9548350790684 0.0
3927.1344634482125 1392.968313698307 8.95710010444271 0.4334111868302797 593.9531011119569 0.0
4011.0111110628914 1429.2722864829054 9.09783425298548 0.4322642523787472 597.9740527294582 0.0
4096.957047238867 1466.3741934579173 9.241071675749911 0.4311335287845033 602.019805726412 0.0
4185.021161062396 1504.291471624709 9.386854747158596 0.4300152317130568 606.0904271513187 0.0
4275.114854357145 1542.9825090465636 9.534999539755228 0.428910936999257 610.1797613821134 0.0
4367.388028961896 1582.5082229045547 9.685715167647528 0.4278192966987344 614.2925763096104 0.0
4461.92328410269 1622.9003048688182 9.839096674735016 0.4267400306081175 618.4303648993331 0.0
4558.773355960924 1664.1775194292059 9.995188781847524 0.42566709372701084 622.5932101621104 0.0
4657.842084883539 1706.294112902595 10.153785324267023 0.42459407677125505 626.7740504200112 0.0
4759.358330558522 1749.3420805380915 10.315195812402472 0.42353781474896657 630.9792782513232 0.0
4863.351402465327 1793.332511861815 10.479449899496462 0.4225069577626499 635.2097160524316 0.0
4969.878330030853 1838.285648851732 10.64659485066246 0.4214700162708098 639.4654611461091 0.0
