e[MeV/fm^3], P[MeV/fm^3], rho[fm^-3], v2[1], mu_q[MeV], mu_e[MeV]
70.21755168181654 0.006206087273093519 0.07407856508846018 0.017597877650005332 316.5185077347417 89.2771661002368
71.43578994790998 0.027644495228360377 0.07535555647246353 0.0175978776500052 316.5894798429086 89.8124074562691
72.67502861766434 0.04945246571785267 0.07665456106626496 0.017597877650005228 316.6616753923034 90.35687548400062
73.93562970314778 0.07163636938565421 0.07797595834102777 0.01759787765000538 316.7351154730202 90.91072923592193
75.21796145691394 0.09420268669514797 0.07932013430936638 0.01759787765000533 316.8098215387112 91.47413050632369
76.5223984795798 0.11715800982215896 0.0806874816381126 0.01759787765000522 316.8858154128541 92.04724387856187
77.84932182925448 0.14050904458066893 0.08207839976302188 0.017597877650005325 316.96311929512683 92.630236773136
79.19911913285509 0.16426261238173973 0.08349329500545777 0.017597877650005436 317.0417557678931 93.22327949659658
80.57218469934486 0.18842565222626206 0.08493258069109116 0.017597877650005332 317.12174780279906 93.82654529129692
81.96891963491473 0.21300522273190858 0.08639667727063695 0.017597877650005284 317.20311876748366 94.44021038599915
83.38973196016327 0.23800850419525207 0.0878860124426853 0.017597877650005242 317.2858924324053 95.06445404735784
84.83503672928572 0.26344280068923775 0.08940102127863886 0.01759787765000527 317.37009297778565 95.69945863228664
86.3052561513196 0.28931554219685157 0.0909421463498059 0.01759787765000538 317.45574500067295 96.34540964122833
87.80081971348744 0.3156342867816875 0.09250983785669148 0.017597877650005325 317.54287352212793 97.00249577234631
89.32216430665855 0.3424067227958098 0.09410455376051008 0.01759787765000531 317.63150399453286 97.67090897664707
90.86973435297011 0.3696406711256137 0.09572675991696154 0.017597877650005242 317.7216623090265 98.3508445140514
92.44398193566516 0.39734408747669764 0.0973769302123309 0.017597877650005228 317.8133748030682 99.04250101043964
94.04536693114535 0.4255250646977123 0.09905554670190979 0.01759787765000531 317.90666826813106 99.74608051566989
95.67435714332068 0.45419183514462985 0.10076309975082554 0.017892055534992374 318.00156995752883 100.46178856260559
97.33169327479138 0.4843410207312542 0.10250008817728433 0.018775745774211428 318.10048622561175 101.18570399772256
99.01814146064449 0.5170082040359527 0.10426701939828847 0.020025246310001077 318.2058447860128 101.91428658825437
100.73429318912723 0.5525181669555139 0.1060644095778678 0.02129999675038627 318.31828524079526 102.64750316311726
102.48063871606901 0.5907964457966746 0.10789278377786223 0.022549781036994038 318.43751805132047 103.38670836290729
104.25774423592242 0.6320103592916358 0.10975267611130558 0.023887708108000116 318.5638120290785 104.13237516689382
106.06623539667063 0.676492214395437 0.11164462989845152 0.025339806313660923 318.697770868173 104.88465247088972
107.90674784282342 0.7245234535359056 0.11356919782549418 0.026726883379044414 318.8398212612412 105.64215664334085
109.77980899298537 0.7757858510810522 0.11552694210601787 0.028008654354195556 318.9889635986241 106.39548846211913
111.68603200563659 0.8304189676497289 0.11751843464523576 0.02941848660514751 319.1453310518051 107.14305877628786
113.62612253642692 0.8889903796251314 0.1195442572070575 0.0310000273545607 319.31003653378224 107.89037199216354
115.60075117782822 0.9518318179215621 0.1216050015840337 0.03259969837934959 319.4836179784206 108.6399435927219
117.61049319554543 1.0189345897359714 0.12370126977023699 0.03419210470702347 319.6659546827271 109.3941654142798
119.65602415051524 1.0905481505064962 0.12583367413711752 0.03592218882239359 319.8573917239201 110.15411877028433
121.73815641876267 1.1672766767204164 0.12800283761239192 0.03778190969818496 320.0588603075681 110.92020174565145
123.85759205422588 1.2493614886182018 0.1302093938620144 0.0396255479711905 320.27062777688235 111.69348487044105
126.01496433860267 1.3368161240061027 0.13245398747528928 0.041461386350795104 320.4925793312381 112.47517112638602
128.2110155783424 1.429932568241939 0.13473727415316794 0.04346252473119688 320.7250671173629 113.26594974297757
130.4466887956552 1.52951487508801 0.1370599208997976 0.045590760196347446 320.969220213987 114.06610244230104
132.72270298041246 1.6357091714792171 0.13942260621736857 0.04767926014436641 321.22510082538804 114.87651716166351
135.03976205186157 1.748593799706529 0.14182602030432198 0.04977029748745049 321.49267975935425 115.69799950047124
137.3986835249372 1.8685229353243933 0.14427086525697244 0.05206400529136951 321.77234677231564 116.53110782929468
139.80057355445675 1.9965668028217445 0.14675785527460983 0.05448295484632937 322.0654823434704 117.37614392238619
142.24614757531495 2.1327305435734982 0.1492877168681315 0.05683638595368079 322.37191652081754 118.23384218287305
144.73619757503982 2.2771938463603174 0.15186118907227755 0.059208520968313694 322.69174413674494 119.10477732777403
147.27162660197732 2.430390920319256 0.15447902366151722 0.0618292055008095 323.0254080857181 119.98940983187808
149.85374556019306 2.5937403356179334 0.15714198536966398 0.06457197399617759 323.3745941649684 120.88804723823948
152.4832372283129 2.7670401807274834 0.15985085211327107 0.06721882453614525 323.7388555425644 121.80124809303793
155.16100474728017 2.9506159576823916 0.1626064152188807 0.06990575565196155 324.1184454344821 122.72942464238325
157.8880490867394 3.1450019316856195 0.16540947965419006 0.07289593855263288 324.5138717435153 123.67293532678868
160.66593902373984 3.3520690822739376 0.16826086426320178 0.07600220080988451 324.92718571735776 124.63202719571277
163.4952840125817 3.5713158744339593 0.17116140200542868 0.07897532922519734 325.3576004812541 125.6070903482084
166.37712853614147 3.8032695276021222 0.17411194019922174 0.08202037368123771 325.8055622707938 126.59840218489457
169.31260061973967 4.048620249866702 0.17711334076929286 0.08542133552471287 326.2716886567447 127.60620334892384
172.303551331823 4.309718566586897 0.18016648049850292 0.0889270452590527 326.7583492276527 128.63058410314463
175.35050383107742 4.585737524453315 0.1832722512839939 0.09226446929582366 327.26444376458807 129.67181814230588
178.45466868853612 4.877441713994387 0.18643156039773165 0.09572802473872655 327.7906096931573 130.73004905217363
181.61738960046912 5.18586172672753 0.18964533075154347 0.09956214286511778 328.3377308078966 131.80536363429957
184.84067158507494 5.5134958934314255 0.19291450116672415 0.10348029397253222 328.90808973361146 132.89762523650757
188.12508868773136 5.859506730761704 0.19624002664828616 0.10723125726635341 329.50063467169656 134.00704679883177
191.47199658539387 6.224818666062787 0.19962287866394354 0.11114950466071183 330.116072530961 135.1336328978941
194.88301649425165 6.610906017540677 0.2030640454278977 0.11544544815415358 330.7555888744374 136.2772622126371
198.3602890613904 7.020342674256472 0.2065645321895225 0.11979382346787826 331.42129567013734 137.43754067535426
201.9044613376726 7.452308308070558 0.2101253615270204 0.12397650239191993 332.11220306471756 138.61467605675114
205.5170562570145 7.907903230714149 0.21374757364614289 0.1283699626450635 332.8290718474655 139.80852765902867
209.2000509218192 8.389163756231573 0.21743222668406043 0.1331367755092301 333.57341318817043 141.01869117551004
212.95568685700158 8.89862029273525 0.22118039701847075 0.1379109881763032 334.34705688852574 142.2445530860434
216.7847142491265 9.435507109353031 0.224993179582034 0.1425188764530203 335.149090910276 143.4863497980139
219.63708215999668 9.8474023240625 0.22778326314101272 0.003655215704021643 335.9803024130194 135.77254748195497
439.4378134199287 11.20096440315185 0.9762821869082692 0.008661049772717415 336.84253077264475 119.09744595124627
575.1306474899386 12.585874307620639 1.4522205239419803 0.012225367623596828 337.73719306437926 102.80000692757264
700.6070156189154 14.354149806350115 1.906589647514549 0.017504639884163856 338.6634726746745 86.70755954970623
807.7785400090589 16.542486100030597 2.3053343741199783 0.02619476646178659 339.6221443059857 70.14196678684245
893.9924744587219 19.201415575954833 2.640230972389978 0.05325282578900592 340.61534675451054 53.077689966453924
937.8170938156851 22.03446966672692 2.8080827641989905 0.46845518008365694 341.6439533067965 37.59562157924678
943.5660444679356 25.032129520973353 2.8258754635951977 0.5578706202896986 342.70726027181 23.497067322208782
948.8382370222308 28.149533245918516 2.8415703595455173 0.6075402379968184 343.8059831368225 11.457757591642743
954.0227255176508 31.382157596217297 2.8567219077823958 0.6269008839612682 344.9424917462097 0.02245660658033799
959.3692984653213 34.752578585774444 2.872179521394652 0.6300526835188123 346.11701155796936 0.0
964.910764927612 38.24206254762963 2.888166681357576 0.6291403534874509 347.328966229596 0.0
970.6682869985151 41.860979890599054 2.904719710752654 0.627811565123821 348.57896372915343 0.0
976.6704487557613 45.62455675046341 2.921897321782493 0.6265655480231982 349.86949367684684 0.0
982.8971597920826 49.52295463420378 2.9396660105419525 0.6254982769703714 351.2000887836266 0.0
989.358118895424 53.560396537729616 2.958037596028892 0.6240695042697331 352.5703075794808 0.0
996.0809829355179 57.750133714989985 2.9770563896875153 0.6226368432416427 353.98060905644974 0.0
1003.0588662404006 62.09069020079685 2.9967273006617385 0.621436206622997 355.4334521442952 0.0
1010.2936814493683 66.58210063905459 3.017045991756546 0.6201624595163189 356.9277197298895 0.0
1017.7911967604794 71.22678473793736 3.038018951369128 0.6186339469704585 358.4631014669581 0.0
1025.5797947408505 76.03809737351811 3.0596900161004705 0.6170552293802958 360.03988091456415 0.0
1033.6572329487303 81.01660362353451 3.0820698321164888 0.6156423843743495 361.66030746350987 0.0
1042.0227034299119 86.16063563904197 3.1051465448119955 0.6141834926126979 363.3227610243933 0.0
1050.6830355502339 91.47313306580232 3.1289286808223684 0.6126781381750801 365.0270429856405 0.0
1059.6466934968032 96.95800567481662 3.1534290452224742 0.6111306030385455 366.7732551876847 0.0
1068.931428799671 102.62478096418249 3.17868534545527 0.6095436684357409 368.5632457970251 0.0
1078.5358640919744 108.47126698002911 3.2046829456536012 0.6079233139272313 370.39513942729127 0.0
1088.4676704436147 114.50078207020918 3.2314317819275984 0.6062732240396818 372.26881070045994 0.0
1098.7352872005115 120.71707749830915 3.2589436399171388 0.6045966332314379 374.18425749083553 0.0
1109.3531434788288 127.12747696639993 3.2872459660846527 0.6028959965160059 376.1425479489815 0.0
1120.3212199677769 133.73055070279344 3.316327498982143 0.6011757951178636 378.1420680020603 0.0
1131.6472891437902 140.52955861178162 3.3461976808975153 0.5994385643366433 380.18264288681297 0.0
1143.3396589994402 147.52805152014722 3.376867167863598 0.5976867809662441 382.2641765278808 0.0
1155.4083144336967 154.73054761220692 3.4083507678109877 0.5959225333922431 384.38684656688184 0.0
1167.856347256971 162.1374271977269 3.4406451587455735 0.5941486424047628 386.54960838431725 0.0
1180.6911788273928 169.75163939020712 3.4737582377522007 0.5923670439512163 388.75217980057613 0.0
1193.920277278693 177.5761366651827 3.5076978699202717 0.5905492910017749 390.99427615507426 0.0
1207.5560469906038 185.61591521543104 3.5424775973300964 0.588627823815389 393.27543963785325 0.0
1221.6189222440007 193.87947813386492 3.5781217228117863 0.5867205420878019 395.59516773161965 0.0
1236.0989559619377 202.36186852006952 3.6146128130270654 0.5849043964047729 397.95311125729603 0.0
1251.002012608576 211.0650088705748 3.651954145227889 0.5830897268681712 400.3486982341418 0.0
1266.3325346236554 219.9899825034471 3.690145399265247 0.5811331285485082 402.78113502043635 0.0
1282.1334798011537 229.15554506616425 3.729244648327991 0.5791497327106763 405.2503908250171 0.0
1298.3850158738717 238.55233260415184 3.769220496837998 0.5773130801839299 407.7560864453435 0.0
1315.0868506179438 248.17913885841483 3.8100646432797993 0.5753907597600767 410.2972643916196 0.0
1332.2710905104177 258.0490867408057 3.8518139048714994 0.5733944176914427 412.8731075256692 0.0
1349.9430076568617 268.16450912570974 3.8944763663620714 0.571509112271916 415.48395412590855 0.0
1368.091675605813 278.52001567832195 3.9380330773793752 0.5695486809937211 418.12942481666244 0.0
1386.7617884263761 289.1334921797021 3.9825325242106646 0.5675496158387956 420.80808286670407 0.0
1405.9281038560034 299.99313629215754 4.027935133898773 0.5656498139567372 423.519388423576 0.0
1425.6148807846946 311.1097336052981 4.074276046401088 0.5636587282763807 426.263926491692 0.0
1445.8528428163206 322.4959297898062 4.1215918329209105 0.5617224051616185 429.04133904117657 0.0
1466.6021901839913 334.1322983915931 4.1698130909665245 0.559742705999291 431.84962364736657 0.0
1487.932765853061 346.0486058598194 4.2190302826467985 0.5577812395010264 434.68879187402194 0.0
1509.7979167006683 358.22512474008613 4.269185265383848 0.5558170889080163 437.55954505588323 0.0
1532.2822568117374 370.69746132417686 4.320384346502133 0.553844055872486 440.4615602408136 0.0
1555.3056189971576 383.4283480949446 4.3725009172193054 0.5518930712219783 443.39219174670734 0.0
1578.9619013230629 396.45827079121057 4.425660688944201 0.5499134742080347 446.35224304333093 0.0
1603.2056793301815 409.76817996098237 4.47980789778346 0.547982381889355 449.3424024244641 0.0
1628.1036531848722 423.38573151507734 4.535023822194358 0.5460034075947915 452.3623894048231 0.0
1653.6075352521834 437.2866234608021 4.5912181211056655 0.5440929859080299 455.4088468583903 0.0
1679.7601548672071 451.49041420975453 4.648456998030093 0.5421238406016062 458.48357591050296 0.0
1706.597566420257 466.01241215821585 4.706787634226153 0.5402087444367982 461.5871295346198 0.0
1734.0964747146809 480.8421619733126 4.766176263281081 0.5382755627986171 464.7192724425523 0.0
1762.2890852320684 495.9883775733125 4.826627616324493 0.5363132590814086 467.87587687666405 0.0
1791.1812440874319 511.4561671124738 4.888169708649348 0.5344578535515918 471.0599151315838 0.0
1820.7832558184216 527.2497457666849 4.950815177509784 0.5325229891264893 474.2716930347005 0.0
1851.166783080238 543.3982499473403 5.014647755003692 0.530577627117788 477.5110201023164 0.0
1882.2538912988553 559.8633926765234 5.079527838427495 0.5287421005870065 480.77294680996494 0.0
1914.1009201365437 576.6727881779041 5.145556741192661 0.5268542895769599 484.06176219100337 0.0
1946.762779038674 593.8485883366981 5.212797542437473 0.5249386149451016 487.37742484726095 0.0
1980.2371066630442 611.3886986777737 5.281239474177335 0.523088424508515 490.71942709513365 0.0
2014.4793222520684 629.2689325008928 5.3507856019495765 0.5212734892977267 494.0830324628434 0.0
2049.5571536286243 647.5218860597743 5.42155313293248 0.5194077704936237 497.47289006040484 0.0
2085.5273440093956 666.1701135648502 5.493604802806984 0.5175341588274787 500.8888825459008 0.0
2122.372709235514 685.2048263347907 5.5669074479657885 0.5157246597859579 504.3299917615031 0.0
2160.0631996138814 704.6085774007781 5.6413872258080895 0.5139361853045656 507.7922253856572 0.0
2198.669990355075 724.4151238815529 5.7171635212483 0.5121536643172799 511.2801267663313 0.0
2238.2157240213937 744.6330083305229 5.79425808854157 0.5103392943957132 514.7936148893198 0.0
2278.7358883749503 765.2740946853477 5.872693522146046 0.5085289483412723 518.3310928584808 0.0
2320.1901878141266 786.3177447294769 5.952391171133505 0.506771599431584 521.8894715714698 0.0
2362.648001000329 807.7966165284586 6.033465473593812 0.5050281713538158 525.4730848306887 0.0
2406.1338231321843 829.71991378269 6.115939555478841 0.503293373196108 529.0818842067226 0.0
2450.6455090544846 852.0834047116783 6.199785948671908 0.5015689050140786 532.7136335653959 0.0
2496.181780061459 874.8834081017603 6.284979639034006 0.4998560331520121 536.3662857953279 0.0
2542.8180064306052 898.1545049067062 6.371638111945306 0.49815306153568173 540.0438741161018 0.0
2590.5807605395185 921.9066365740251 6.459785977491938 0.49645056994933334 543.7463790946406 0.0
2639.468606257192 946.1348300216179 6.549388763274131 0.49475696835885685 547.4708712870953 0.0
2689.4885775936646 970.840066532588 6.640440554564528 0.49308912570620755 551.216467733508 0.0
2740.710503918337 996.0541180101737 6.733048024290036 0.4914384830829306 554.9868210458568 0.0
2793.163065828979 1021.7876755759469 6.827237248718479 0.48979935027403343 558.781937487146 0.0
2846.823447673561 1048.0261971628108 6.922942008416852 0.4881736108605601 562.5981454122898 0.0
2901.7241866533104 1074.782341909292 7.020195756494942 0.48656154453491496 566.4358348263322 0.0
2957.9398494037173 1102.0890537935682 7.119104857427662 0.4849619974674031 570.2982070044372 0.0
3015.501472095408 1129.957857133311 7.219696969649902 0.4833749439309827 574.1852909518561 0.0
3074.3726493414993 1158.3676830703714 7.321882267845951 0.48180241865984463 578.0926279967849 0.0
3134.608770862813 1187.3419050790228 7.425731268792142 0.4802440874357714 582.021979385741 0.0
3196.282067386866 1216.911730343405 7.531341454914035 0.47869902612520754 585.9760320290837 0.0
3259.4260810351416 1247.0895674399715 7.638742118149437 0.47715945443429497 589.9548350790684 0.0
3323.9998371603574 1277.8512700061308 7.747828655545339 0.47562799037207704 593.9531011119569 0.0
3390.085678394926 1309.232625640185 7.858713606123894 0.4741165878641631 597.9740527294582 0.0
3457.7448044610674 1341.2596185473278 7.971475736456309 0.47262403331991365 602.019805726412 0.0
3527.0135566746817 1373.945640609174 8.086146102338986 0.4711454292188595 606.0904271513187 0.0
3597.82021926905 1407.2532486900025 8.202577950535309 0.46968293830329877 610.1797613821134 0.0
3670.2805800060823 1441.2333105104458 8.32093358304969 0.4682348551884523 614.2925763096104 0.0
3744.457343659396 1475.9113881193825 8.441285393352063 0.4668008832789958 618.4303648993331 0.0
3820.3896850484844 1511.3018684739352 8.563666181860635 0.4653730328482997 622.5932101621104 0.0
3897.9994225928485 1547.3633360557887 8.68791112297297 0.46394279686959194 626.7740504200112 0.0
3977.462744026379 1584.172124760279 8.814259087634817 0.4625327092862541 630.9792782513232 0.0
4058.801806752845 1621.7370997519342 8.9427333874582 0.4611543745406177 635.2097160524316 0.0
4142.058945394781 1660.0737532657718 9.073368708508413 0.4597673419433441 639.4654611461091 0.0
