e[MeV/fm^3], P[MeV/fm^3], rho[fm^-3], v2[1], mu_q[MeV], mu_e[MeV]
70.21755168181654 0.006206087273093519 0.07407856508846018 0.017597877650005332 316.5185077347417 89.2771661002368
71.43578994790998 0.027644495228360377 0.07535555647246353 0.0175978776500052 316.5894798429086 89.8124074562691
72.67502861766434 0.04945246571785267 0.07665456106626496 0.017597877650005228 316.6616753923034 90.35687548400062
73.93562970314778 0.07163636938565421 0.07797595834102777 0.01759787765000538 316.7351154730202 90.91072923592193
75.21796145691394 0.09420268669514797 0.07932013430936638 0.01759787765000533 316.8098215387112 91.47413050632369
76.5223984795798 0.11715800982215896 0.0806874816381126 0.01759787765000522 316.8858154128541 92.04724387856187
77.84932182925448 0.14050904458066893 0.08207839976302188 0.017597877650005325 316.96311929512683 92.630236773136
79.19911913285509 0.16426261238173973 0.08349329500545777 0.017597877650005436 317.0417557678931 93.22327949659658
80.57218469934486 0.18842565222626206 0.08493258069109116 0.017597877650005332 317.12174780279906 93.82654529129692
81.96891963491473 0.21300522273190858 0.08639667727063695 0.017597877650005284 317.20311876748366 94.44021038599915
83.38973196016327 0.23800850419525207 0.0878860124426853 0.017597877650005242 317.2858924324053 95.06445404735784
84.83503672928572 0.26344280068923775 0.08940102127863886 0.01759787765000527 317.37009297778565 95.69945863228664
86.3052561513196 0.28931554219685157 0.0909421463498059 0.01759787765000538 317.45574500067295 96.34540964122833
87.80081971348744 0.3156342867816875 0.09250983785669148 0.017597877650005325 317.54287352212793 97.00249577234631
89.32216430665855 0.3424067227958098 0.09410455376051008 0.01759787765000531 317.63150399453286 97.67090897664707
90.86973435297011 0.3696406711256137 0.09572675991696154 0.017597877650005242 317.7216623090265 98.3508445140514
92.44398193566516 0.39734408747669764 0.0973769302123309 0.017597877650005228 317.8133748030682 99.04250101043964
94.04536693114535 0.4255250646977123 0.09905554670190979 0.01759787765000531 317.90666826813106 99.74608051566989
95.67435714332068 0.45419183514462985 0.10076309975082554 0.017892055534992374 318.00156995752883 100.46178856260559
97.33169327479138 0.4843410207312542 0.10250008817728433 0.018775745774211428 318.10048622561175 101.18570399772256
99.01814146064449 0.5170082040359527 0.10426701939828847 0.020025246310001077 318.2058447860128 101.91428658825437
100.73429318912723 0.5525181669555139 0.1060644095778678 0.02129999675038627 318.31828524079526 102.64750316311726
102.48063871606901 0.5907964457966746 0.10789278377786223 0.022549781036994038 318.43751805132047 103.38670836290729
104.25774423592242 0.6320103592916358 0.10975267611130558 0.023887708108000116 318.5638120290785 104.13237516689382
106.06623539667063 0.676492214395437 0.11164462989845152 0.025339806313660923 318.697770868173 104.88465247088972
107.90674784282342 0.7245234535359056 0.11356919782549418 0.026726883379044414 318.8398212612412 105.64215664334085
109.77980899298537 0.7757858510810522 0.11552694210601787 0.028008654354195556 318.9889635986241 106.39548846211913
111.68603200563659 0.8304189676497289 0.11751843464523576 0.02941848660514751 319.1453310518051 107.14305877628786
113.62612253642692 0.8889903796251314 0.1195442572070575 0.0310000273545607 319.31003653378224 107.89037199216354
115.60075117782822 0.9518318179215621 0.1216050015840337 0.03259969837934959 319.4836179784206 108.6399435927219
117.61049319554543 1.0189345897359714 0.12370126977023699 0.03419210470702347 319.6659546827271 109.3941654142798
119.65602415051524 1.0905481505064962 0.12583367413711752 0.03592218882239359 319.8573917239201 110.15411877028433
121.73815641876267 1.1672766767204164 0.12800283761239192 0.03778190969818496 320.0588603075681 110.92020174565145
123.85759205422588 1.2493614886182018 0.1302093938620144 0.0396255479711905 320.27062777688235 111.69348487044105
126.01496433860267 1.3368161240061027 0.13245398747528928 0.041461386350795104 320.4925793312381 112.47517112638602
128.2110155783424 1.429932568241939 0.13473727415316794 0.04346252473119688 320.7250671173629 113.26594974297757
130.4466887956552 1.52951487508801 0.1370599208997976 0.045590760196347446 320.969220213987 114.06610244230104
132.72270298041246 1.6357091714792171 0.13942260621736857 0.04767926014436641 321.22510082538804 114.87651716166351
135.03976205186157 1.748593799706529 0.14182602030432198 0.04977029748745049 321.49267975935425 115.69799950047124
137.3986835249372 1.8685229353243933 0.14427086525697244 0.05206400529136951 321.77234677231564 116.53110782929468
139.80057355445675 1.9965668028217445 0.14675785527460983 0.05448295484632937 322.0654823434704 117.37614392238619
142.24614757531495 2.1327305435734982 0.1492877168681315 0.05683638595368079 322.37191652081754 118.23384218287305
144.73619757503982 2.2771938463603174 0.15186118907227755 0.059208520968313694 322.69174413674494 119.10477732777403
147.27162660197732 2.430390920319256 0.15447902366151722 0.0618292055008095 323.0254080857181 119.98940983187808
149.85374556019306 2.5937403356179334 0.15714198536966398 0.06457197399617759 323.3745941649684 120.88804723823948
152.4832372283129 2.7670401807274834 0.15985085211327107 0.06721882453614525 323.7388555425644 121.80124809303793
155.16100474728017 2.9506159576823916 0.1626064152188807 0.06990575565196155 324.1184454344821 122.72942464238325
157.8880490867394 3.1450019316856195 0.16540947965419006 0.07289593855263288 324.5138717435153 123.67293532678868
160.66593902373984 3.3520690822739376 0.16826086426320178 0.07600220080988451 324.92718571735776 124.63202719571277
163.4952840125817 3.5713158744339593 0.17116140200542868 0.07897532922519734 325.3576004812541 125.6070903482084
166.37712853614147 3.8032695276021222 0.17411194019922174 0.08202037368123771 325.8055622707938 126.59840218489457
169.31260061973967 4.048620249866702 0.17711334076929286 0.08542133552471287 326.2716886567447 127.60620334892384
172.303551331823 4.309718566586897 0.18016648049850292 0.0889270452590527 326.7583492276527 128.63058410314463
175.35050383107742 4.585737524453315 0.1832722512839939 0.09226446929582366 327.26444376458807 129.67181814230588
178.45466868853612 4.877441713994387 0.18643156039773165 0.09572802473872655 327.7906096931573 130.73004905217363
181.61738960046912 5.18586172672753 0.18964533075154347 0.09956214286511778 328.3377308078966 131.80536363429957
184.84067158507494 5.5134958934314255 0.19291450116672415 0.10348029397253222 328.90808973361146 132.89762523650757
188.12508868773136 5.859506730761704 0.19624002664828616 0.10723125726635341 329.50063467169656 134.00704679883177
191.47199658539387 6.224818666062787 0.19962287866394354 0.11114950466071183 330.116072530961 135.1336328978941
194.88301649425165 6.610906017540677 0.2030640454278977 0.11544544815415358 330.7555888744374 136.2772622126371
198.3602890613904 7.020342674256472 0.2065645321895225 0.11979382346787826 331.42129567013734 137.43754067535426
201.9044613376726 7.452308308070558 0.2101253615270204 0.12397650239191993 332.11220306471756 138.61467605675114
205.5170562570145 7.907903230714149 0.21374757364614289 0.1283699626450635 332.8290718474655 139.80852765902867
209.2000509218192 8.389163756231573 0.21743222668406043 0.1331367755092301 333.57341318817043 141.01869117551004
212.95568685700158 8.89862029273525 0.22118039701847075 0.1379109881763032 334.34705688852574 142.2445530860434
216.7847142491265 9.435507109353031 0.224993179582034 0.1425209986125906 335.149090910276 143.4863497980139
220.6888478651131 10.001107919216421 0.22887168818223044 0.1473848211915132 335.9803024130194 144.74379875149575
224.67051841244387 10.598148441577159 0.23281705582673115 0.15260238957125072 336.84253077264475 146.0161250814302
228.73201076449018 11.228941923303356 0.23683043505437643 0.1577674592771845 337.73719306437926 147.30260528428684
232.87421847820065 11.892825884399452 0.2409129982718618 0.16276966708385543 338.6634726746745 148.60351662363965
237.09907459677976 12.591262929879372 0.2450659380962259 0.1680647442175771 339.6221443059857 149.91845083271977
241.4095830266287 13.327795359770137 0.24929046770324403 0.17367604335428166 340.61534675451054 151.2461733723472
245.80798450797525 14.104290408314728 0.25358782118182577 0.17916063314688135 341.6439533067965 152.5860269646372
250.29536865638684 14.920249387540146 0.2579592538945237 0.18448376658109078 342.70726027181 153.9383214680799
254.87391430339358 15.777295306389933 0.26240604284425445 0.19013115054428797 343.8059831368225 155.30255316107613
259.54734193097937 16.679902122692877 0.2669294870473437 0.19603884001981875 344.9424917462097 156.67695034502995
264.3177234138911 17.62921742422393 0.2715309079130002 0.20173455319505607 346.11701155796936 158.06114921462316
269.1864120746621 18.624978432827973 0.2762116496293318 0.20727097595137622 347.328966229596 159.45546560193614
274.15586021544175 19.66893704821644 0.28097307955601647 0.2131521958171756 348.57896372915343 160.8593430130801
279.2306731431928 20.76658998854091 0.28581658862374093 0.21922189252154145 349.86949367684684 162.27041922778363
284.412585417037 21.918069468750467 0.29074359174052566 0.2249894143101847 351.2000887836266 163.68887481305947
289.7032992122702 23.123430865940225 0.29575552820505524 0.2306016920899494 352.5703075794808 165.1149897852477
295.1055673860831 24.38451504681977 0.300853862127132 0.23656661428271297 353.98060905644974 166.5482047162215
300.6250734626658 25.70790002720107 0.3060400828553784 0.24263779812409947 355.4334521442952 167.985546141962
306.2629978571605 27.092417065261266 0.3113157054123131 0.24831998114039466 356.9277197298895 169.42797804232237
312.0214966673664 28.538529352055203 0.3166822709369256 0.2538541104542591 358.4631014669581 170.8756920374787
317.9036494111742 30.048126085066315 0.3221413471348811 0.2597359108053192 360.03988091456415 172.3281747479247
323.9164360611114 31.628890065835524 0.32769452873648597 0.2656390932017807 361.66030746350987 173.78185544558517
330.06021547034334 33.278110584552124 0.3333434379625472 0.2710787578055842 363.3227610243933 175.23867305073648
336.3377248306841 34.996751726455315 0.3390897249982634 0.27638164452897485 365.0270429856405 176.69867300893014
342.75239563416363 36.78671837750218 0.3449350684752844 0.2820159576097043 366.7732551876847 178.16142771359964
349.3127469329602 38.65679115669434 0.35088117596208035 0.28759239956345484 368.5632457970251 179.62281308437977
356.0179982424811 40.60254779373834 0.3569297844627652 0.2926507180164095 370.39513942729127 181.08586093941702
362.87161894726887 42.62554485678177 0.3630826609245175 0.2976058496429581 372.26881070045994 182.55041400308298
369.8776838050342 44.72802159039085 0.3693416027537498 0.3028324596598386 374.18425749083553 184.01597196044224
377.04571989459646 46.91882012835673 0.3757084383411748 0.30793255850782497 376.1425479489815 185.47847044374714
384.37423920137996 49.19272886637786 0.3821850275959231 0.3125215544923945 378.1420680020603 424.13668528562687
391.8673537720589 51.551645656583794 0.38877326248886857 0.31704011341831206 380.18264288681297 378.2286749700349
399.53022857376277 53.998550771733285 0.3954750676053199 0.32173794710659864 382.2641765278808 331.3991914845633
407.3724291860139 56.54109433027862 0.4022924007072386 0.3266880966172394 384.38684656688184 283.6442383215148
423.6063713192833 61.90431642776781 0.4163009311837797 0.002753835492718055 386.54960838431725 234.9873168985959
546.6850640098851 62.32365863026026 0.7730562561601665 0.0040603773222750595 388.75217980057613 185.43477557605794
1248.3258237461791 67.78558882251956 2.825577522541103 0.011587722210850714 390.99427615507426 135.62481247455432
1875.0452519344733 77.17687030617137 4.7018320981725275 0.022913286890024448 393.27543963785325 85.524247314747
2345.0842056902725 90.74201818355834 6.156191592589416 0.4934974394125011 395.59516773161965 33.269143265176275
2373.1179615137016 105.3534658173706 6.227982998166482 0.5423242145441096 397.95311125729603 2.642332020640976
2399.784211426705 120.35081419078014 6.294796720346701 0.5615735937091155 400.3486982341418 0.0
2427.2232293111856 135.73624508002328 6.36314973744672 0.5597217544768793 402.78113502043635 0.0
2455.5160228994014 151.54340148760252 6.433157060661057 0.557825076054288 405.2503908250171 0.0
2484.6263253201164 167.75568189830813 6.5047602519859575 0.5560700216678702 407.7560864453435 0.0
2514.5539837237116 184.37122294066472 6.577945054944495 0.5542344565949398 410.2972643916196 0.0
2545.3584419472695 201.41381310856553 6.652781767891955 0.5523294730648245 412.8731075256692 0.0
2577.049400791362 218.88762675758937 6.729285112271136 0.5505316974406642 415.48395412590855 0.0
2609.6069622087884 236.78316671605637 6.807420025147163 0.5486637666172016 418.12942481666244 0.0
2643.1140122577667 255.13296882879885 6.887279589544458 0.5467602066041923 420.80808286670407 0.0
2677.524347687865 273.91607953300917 6.968790228267352 0.5449525663695676 423.519388423576 0.0
2712.8825764341436 293.15178935640034 7.052017140730733 0.5430594545454777 426.263926491692 0.0
2749.2455540419965 312.8629938210155 7.137029529137624 0.5412196091015802 429.04133904117657 0.0
2786.540718856712 333.01541852112837 7.223699818198729 0.5393401197518823 431.84962364736657 0.0
2824.89695382515 353.6626562616623 7.312197929990708 0.5374790276915222 434.68879187402194 0.0
2864.2281189043842 374.7691417011075 7.402413672342606 0.5356170313549864 437.55954505588323 0.0
2904.690517811708 396.3991115526424 7.494547201727322 0.5337476728698869 440.4615602408136 0.0
2946.137324500917 418.4863515955771 7.588364374127963 0.531900834453209 443.39219174670734 0.0
2988.741648160248 441.1036191107955 7.684100229955793 0.5300280040678995 446.35224304333093 0.0
3032.4195593417503 464.216526205352 7.781649060203092 0.5282026038611871 449.3424024244641 0.0
3077.2944205738186 487.87508389580296 7.881163949429422 0.5263331344436599 452.3623894048231 0.0
3123.2784540163943 512.0365996933905 7.982479874260009 0.5245298088144983 455.4088468583903 0.0
3170.4502338694506 536.7359122727878 8.085718697221633 0.5226723930065216 458.48357591050296 0.0
3218.8763184499767 562.0005972338308 8.190968288583708 0.520867179289132 461.5871295346198 0.0
3268.513910973969 587.811979618543 8.298165548498165 0.519046359992382 464.7192724425523 0.0
3319.424233221347 614.1871764359206 8.40732513327127 0.5171993118878735 467.87587687666405 0.0
3371.617145088732 641.1346353544882 8.51849553086511 0.5154541648616622 471.0599151315838 0.0
3425.1117290927773 668.6619938423904 8.63170006090236 0.5136356551823562 474.2716930347005 0.0
3480.040737632543 696.8221065681495 8.747096300607812 0.5118084559001472 477.5110201023164 0.0
3536.2621626235036 725.5474887410761 8.864428901749301 0.510085696504917 480.77294680996494 0.0
3593.878692860406 754.8868257194057 8.983882214568712 0.5083151427839301 484.06176219100337 0.0
3652.9921101042496 784.8803525640204 9.105574809739677 0.5065196644290495 487.37742484726095 0.0
3713.5984494523886 815.5246066831924 9.229487173547529 0.5047867823635679 490.71942709513365 0.0
3775.617295232166 846.7775214365488 9.355443819116045 0.5030881044819289 494.0830324628434 0.0
3839.172307360314 878.696714360347 9.483658454077078 0.5013431346969988 497.47289006040484 0.0
3904.3687890956758 911.3232519790083 9.614249112480842 0.49959193873401997 500.8888825459008 0.0
3971.1755554249207 944.6417274989126 9.747154918519708 0.49790185176140245 504.3299917615031 0.0
4039.5388122765876 978.6220517541224 9.882242728620255 0.4962325356974002 507.7922253856572 0.0
4109.5886925920495 1013.3240196502195 10.01973049046499 0.49456989002720597 511.2801267663313 0.0
4181.367382552569 1048.7633236532865 10.159659194380641 0.4928787023336145 514.7936148893198 0.0
4254.941544034527 1084.9622486769422 10.302073530249807 0.4911923607328479 518.3310928584808 0.0
4330.238054901056 1121.884625283493 10.446830057913479 0.4895565000843929 521.8894715714698 0.0
4407.383852505633 1159.5883643969682 10.594137724801064 0.48793466755592974 525.4730848306887 0.0
4486.4245887466495 1198.090384922083 10.744040053413876 0.486321916132213 529.0818842067226 0.0
4567.357495373941 1237.3840112317562 10.896488571646634 0.48471980845856333 532.7136335653959 0.0
4650.181338510864 1277.463507148358 11.051439153542399 0.48312950151302836 536.3662857953279 0.0
4735.034339277406 1318.390424516587 11.209106892894706 0.4815494008928294 540.0438741161018 0.0
4821.9660365538875 1360.1830519970247 11.369538060625512 0.47997076192490873 543.7463790946406 0.0
4910.975344826588 1402.8336760528705 11.532671996104064 0.47840135729456 547.4708712870953 0.0
5002.075971531846 1446.3446350234583 11.698498828614257 0.4768568000411717 551.216467733508 0.0
5095.396072736291 1490.7725509133602 11.867213870442672 0.47532912884434975 554.9868210458568 0.0
5190.989132007244 1536.137104004354 12.03886611166627 0.47381304853011663 558.781937487146 0.0
5288.814771694867 1582.4134843149004 12.21333628371971 0.47231027950608606 562.5981454122898 0.0
5388.933477022599 1629.624822537899 12.390686699405581 0.47082105748556025 566.4358348263322 0.0
5491.482450610186 1677.8300913432201 12.571112723887467 0.4693442942673016 570.2982070044372 0.0
5596.519585094961 1727.0505191991329 12.754666288456379 0.4678799444875459 574.1852909518561 0.0
5703.979686294412 1777.2497553492176 12.941184875180518 0.4664298628342971 578.0926279967849 0.0
5813.965066073941 1828.4699409065556 13.13079851382421 0.4649937177332619 582.021979385741 0.0
5926.608882165392 1880.767132501167 13.323686602317645 0.4635706348648201 585.9760320290837 0.0
6041.973718479397 1934.164202412122 13.519904113206366 0.4621534365775819 589.9548350790684 0.0
6159.986353709876 1988.619580799406 13.719261924974424 0.4607445124870013 593.9531011119569 0.0
6280.798511083252 2044.197492656186 13.921966974769852 0.4593548402840666 597.9740527294582 0.0
6404.523177565761 2100.944740323376 14.12816429621516 0.4579832780388218 602.019805726412 0.0
6531.228178878755 2158.886025542762 14.337912151191807 0.4566252965041695 606.0904271513187 0.0
6660.783629761725 2217.9558970973626 14.550943439309057 0.455282858954277 610.1797613821134 0.0
6793.40268258999 2278.245491900847 14.767556431286842 0.4539543767130283 614.2925763096104 0.0
6929.201483797432 2339.801154427092 14.987885059659142 0.4526395557931657 618.4303648993331 0.0
7068.253165238689 2402.649437889362 15.211990842147587 0.4513310587038326 622.5932101621104 0.0
7210.416345589306 2466.718085553499 15.439573992828933 0.4500210837476999 626.7740504200112 0.0
7356.015749037592 2532.144155779576 15.67107437153014 0.4487302417980441 630.9792782513232 0.0
7505.092480059871 2598.9437696655177 15.906534630272864 0.4474691400961106 635.2097160524316 0.0
7657.725589251847 2667.145538458211 16.146019809921356 0.4462002499038249 639.4654611461091 0.0
