e[MeV/fm^3], P[MeV/fm^3], rho[fm^-3], v2[1], mu_q[MeV], mu_e[MeV]
70.21755168181654 0.006206087273093519 0.07407856508846018 0.017597877650005332 316.5185077347417 89.2771661002368
71.43578994790998 0.027644495228360377 0.07535555647246353 0.0175978776500052 316.5894798429086 89.8124074562691
72.67502861766434 0.04945246571785267 0.07665456106626496 0.017597877650005228 316.6616753923034 90.35687548400062
73.93562970314778 0.07163636938565421 0.07797595834102777 0.01759787765000538 316.7351154730202 90.91072923592193
75.21796145691394 0.09420268669514797 0.07932013430936638 0.01759787765000533 316.8098215387112 91.47413050632369
76.5223984795798 0.11715800982215896 0.0806874816381126 0.01759787765000522 316.8858154128541 92.04724387856187
77.84932182925448 0.14050904458066893 0.08207839976302188 0.017597877650005325 316.96311929512683 92.630236773136
79.19911913285509 0.16426261238173973 0.08349329500545777 0.017597877650005436 317.0417557678931 93.22327949659658
80.57218469934486 0.18842565222626206 0.08493258069109116 0.017597877650005332 317.12174780279906 93.82654529129692
81.96891963491473 0.21300522273190858 0.08639667727063695 0.017597877650005284 317.20311876748366 94.44021038599915
83.38973196016327 0.23800850419525207 0.0878860124426853 0.017597877650005242 317.2858924324053 95.06445404735784
84.83503672928572 0.26344280068923775 0.08940102127863886 0.01759787765000527 317.37009297778565 95.69945863228664
86.3052561513196 0.28931554219685157 0.0909421463498059 0.01759787765000538 317.45574500067295 96.34540964122833
87.80081971348744 0.3156342867816875 0.09250983785669148 0.017597877650005325 317.54287352212793 97.00249577234631
89.32216430665855 0.3424067227958098 0.09410455376051008 0.01759787765000531 317.63150399453286 97.67090897664707
90.86973435297011 0.3696406711256137 0.09572675991696154 0.017597877650005242 317.7216623090265 98.3508445140514
92.44398193566516 0.39734408747669764 0.0973769302123309 0.017597877650005228 317.8133748030682 99.04250101043964
94.04536693114535 0.4255250646977123 0.09905554670190979 0.01759787765000531 317.90666826813106 99.74608051566989
95.67435714332068 0.45419183514462985 0.10076309975082554 0.017892055534992374 318.00156995752883 100.46178856260559
97.33169327479138 0.4843410207312542 0.10250008817728433 0.018775745774211428 318.10048622561175 101.18570399772256
99.01814146064449 0.5170082040359527 0.10426701939828847 0.020025246310001077 318.2058447860128 101.91428658825437
100.73429318912723 0.5525181669555139 0.1060644095778678 0.02129999675038627 318.31828524079526 102.64750316311726
102.48063871606901 0.5907964457966746 0.10789278377786223 0.022549781036994038 318.43751805132047 103.38670836290729
104.25774423592242 0.6320103592916358 0.10975267611130558 0.023887708108000116 318.5638120290785 104.13237516689382
106.06623539667063 0.676492214395437 0.11164462989845152 0.025339806313660923 318.697770868173 104.88465247088972
107.90674784282342 0.7245234535359056 0.11356919782549418 0.026726883379044414 318.8398212612412 105.64215664334085
109.77980899298537 0.7757858510810522 0.11552694210601787 0.028008654354195556 318.9889635986241 106.39548846211913
111.68603200563659 0.8304189676497289 0.11751843464523576 0.02941848660514751 319.1453310518051 107.14305877628786
113.62612253642692 0.8889903796251314 0.1195442572070575 0.0310000273545607 319.31003653378224 107.89037199216354
115.60075117782822 0.9518318179215621 0.1216050015840337 0.03259969837934959 319.4836179784206 108.6399435927219
117.61049319554543 1.0189345897359714 0.12370126977023699 0.03419210470702347 319.6659546827271 109.3941654142798
119.65602415051524 1.0905481505064962 0.12583367413711752 0.03592218882239359 319.8573917239201 110.15411877028433
121.73815641876267 1.1672766767204164 0.12800283761239192 0.03778190969818496 320.0588603075681 110.92020174565145
123.85759205422588 1.2493614886182018 0.1302093938620144 0.0396255479711905 320.27062777688235 111.69348487044105
126.01496433860267 1.3368161240061027 0.13245398747528928 0.041461386350795104 320.4925793312381 112.47517112638602
128.2110155783424 1.429932568241939 0.13473727415316794 0.04346252473119688 320.7250671173629 113.26594974297757
130.4466887956552 1.52951487508801 0.1370599208997976 0.045590760196347446 320.969220213987 114.06610244230104
132.72270298041246 1.6357091714792171 0.13942260621736857 0.04767926014436641 321.22510082538804 114.87651716166351
135.03976205186157 1.748593799706529 0.14182602030432198 0.04977029748745049 321.49267975935425 115.69799950047124
137.3986835249372 1.8685229353243933 0.14427086525697244 0.05206400529136951 321.77234677231564 116.53110782929468
139.80057355445675 1.9965668028217445 0.14675785527460983 0.05448295484632937 322.0654823434704 117.37614392238619
142.24614757531495 2.1327305435734982 0.1492877168681315 0.05683638595368079 322.37191652081754 118.23384218287305
144.73619757503982 2.2771938463603174 0.15186118907227755 0.059208520968313694 322.69174413674494 119.10477732777403
147.27162660197732 2.430390920319256 0.15447902366151722 0.0618292055008095 323.0254080857181 119.98940983187808
149.85374556019306 2.5937403356179334 0.15714198536966398 0.06457197399617759 323.3745941649684 120.88804723823948
152.4832372283129 2.7670401807274834 0.15985085211327107 0.06721882453614525 323.7388555425644 121.80124809303793
155.16100474728017 2.9506159576823916 0.1626064152188807 0.06990575565196155 324.1184454344821 122.72942464238325
157.8880490867394 3.1450019316856195 0.16540947965419006 0.07289593855263288 324.5138717435153 123.67293532678868
160.66593902373984 3.3520690822739376 0.16826086426320178 0.07600220080988451 324.92718571735776 124.63202719571277
163.4952840125817 3.5713158744339593 0.17116140200542868 0.07897532922519734 325.3576004812541 125.6070903482084
166.37712853614147 3.8032695276021222 0.17411194019922174 0.08202037368123771 325.8055622707938 126.59840218489457
169.31260061973967 4.048620249866702 0.17711334076929286 0.08542133552471287 326.2716886567447 127.60620334892384
172.303551331823 4.309718566586897 0.18016648049850292 0.0889270452590527 326.7583492276527 128.63058410314463
175.35050383107742 4.585737524453315 0.1832722512839939 0.09226446929582366 327.26444376458807 129.67181814230588
178.45466868853612 4.877441713994387 0.18643156039773165 0.09572802473872655 327.7906096931573 130.73004905217363
181.61738960046912 5.18586172672753 0.18964533075154347 0.09956214286511778 328.3377308078966 131.80536363429957
184.84067158507494 5.5134958934314255 0.19291450116672415 0.10348029397253222 328.90808973361146 132.89762523650757
188.12508868773136 5.859506730761704 0.19624002664828616 0.10723125726635341 329.50063467169656 134.00704679883177
191.47199658539387 6.224818666062787 0.19962287866394354 0.11114950466071183 330.116072530961 135.1336328978941
194.88301649425165 6.610906017540677 0.2030640454278977 0.11544544815415358 330.7555888744374 136.2772622126371
198.3602890613904 7.020342674256472 0.2065645321895225 0.11979382346787826 331.42129567013734 137.43754067535426
201.9044613376726 7.452308308070558 0.2101253615270204 0.12397650239191993 332.11220306471756 138.61467605675114
205.5170562570145 7.907903230714149 0.21374757364614289 0.1283699626450635 332.8290718474655 139.80852765902867
209.2000509218192 8.389163756231573 0.21743222668406043 0.1331367755092301 333.57341318817043 141.01869117551004
212.95568685700158 8.89862029273525 0.22118039701847075 0.1379109881763032 334.34705688852574 142.2445530860434
216.7847142491265 9.435507109353031 0.224993179582034 0.1425209986125906 335.149090910276 143.4863497980139
220.6888478651131 10.001107919216421 0.22887168818223044 0.1473848211915132 335.9803024130194 144.74379875149575
224.67051841244387 10.598148441577159 0.23281705582673115 0.15260238957125072 336.84253077264475 146.0161250814302
228.73201076449018 11.228941923303356 0.23683043505437643 0.1577674592771845 337.73719306437926 147.30260528428684
232.87421847820065 11.892825884399452 0.2409129982718618 0.16276966708385543 338.6634726746745 148.60351662363965
237.09907459677976 12.591262929879372 0.2450659380962259 0.1680647442175771 339.6221443059857 149.91845083271977
241.4095830266287 13.327795359770137 0.24929046770324403 0.17367604335428166 340.61534675451054 151.2461733723472
245.80798450797525 14.104290408314728 0.25358782118182577 0.17916063314688135 341.6439533067965 152.5860269646372
250.29536865638684 14.920249387540146 0.2579592538945237 0.18448376658109078 342.70726027181 153.9383214680799
254.87391430339358 15.777295306389933 0.26240604284425445 0.19013115054428797 343.8059831368225 155.30255316107613
259.54734193097937 16.679902122692877 0.2669294870473437 0.19603884001981875 344.9424917462097 156.67695034502995
264.3177234138911 17.62921742422393 0.2715309079130002 0.20173455319505607 346.11701155796936 158.06114921462316
269.1864120746621 18.624978432827973 0.2762116496293318 0.20727097595137622 347.328966229596 159.45546560193614
274.15586021544175 19.66893704821644 0.28097307955601647 0.2131521958171756 348.57896372915343 160.8593430130801
279.2306731431928 20.76658998854091 0.28581658862374093 0.21922189252154145 349.86949367684684 162.27041922778363
284.412585417037 21.918069468750467 0.29074359174052566 0.2249894143101847 351.2000887836266 163.68887481305947
289.7032992122702 23.123430865940225 0.29575552820505524 0.2306016920899494 352.5703075794808 165.1149897852477
295.1055673860831 24.38451504681977 0.300853862127132 0.23656661428271297 353.98060905644974 166.5482047162215
300.6250734626658 25.70790002720107 0.3060400828553784 0.24296360527658933 355.4334521442952 182.52113352594216
308.7949362281583 27.72181853192708 0.3136502144318416 0.028264663412500113 356.9277197298895 173.6009988815681
334.85927673898635 28.56815728505634 0.40996686322039544 0.03667760917465085 358.4631014669581 164.43928618262342
374.4220848275692 30.271833608645498 0.5556431536903886 0.04807813873937289 360.03988091456415 155.587436707993
410.6363770887426 32.179211297840396 0.68999425126956 0.05850918973841812 361.66030746350987 146.91154821981888
443.62534091457627 34.28486582781346 0.8134072390746743 0.07053861486686042 363.3227610243933 138.42904098113448
473.6282934216988 36.58431766632677 0.9266479748805646 0.0841771327296833 365.0270429856405 130.14575169841808
500.9604751005621 39.07270937434173 1.030723699689261 0.0993640338246412 366.7732551876847 122.06059169204498
525.9673942026551 41.74788876200093 1.126736574829278 0.11613690881737115 368.5632457970251 114.16153612874564
548.8802981238147 44.60121596081627 1.2152834585148053 0.13447806865318324 370.39513942729127 106.46171072106117
569.9254565441383 47.62363513705174 1.2969503835967795 0.15243696460599088 372.26881070045994 98.99114386851383
589.7737007780901 50.814366472875534 1.37487490456067 0.16937534932364184 374.18425749083553 91.71167034400966
608.7043340292176 54.17636892262813 1.4502579210736104 0.1860956141767982 376.1425479489815 84.59166803526149
626.878251876326 57.70675403895174 1.523800016211706 0.20237438133011065 378.1420680020603 77.6272718199424
644.4727802085393 61.40572816604485 1.59639181749723 0.2175928729717702 380.18264288681297 70.80798522914569
661.6834444510203 65.2745281624075 1.6692040313633132 0.23078576447697574 382.2641765278808 64.12121473212282
678.7559635414435 69.31614915339765 1.7439848020516628 0.24034708932626936 384.38684656688184 57.55031961668873
696.0382486766825 73.53313109328381 1.8236355630900463 0.2434850142574545 386.54960838431725 51.076387735140216
714.1482658212435 77.93276118542026 1.9138067994238457 0.23540808532725732 388.75217980057613 44.666232181285295
734.3979549352202 82.52918475534317 2.027244094899279 0.239742146350713 390.99427615507426 38.261051758265054
753.5338307702973 87.34750958228054 2.1375468456501987 0.43796156505991757 393.27543963785325 31.785058557328284
762.9581864178053 92.33909885580775 2.161726229308055 0.5296696069504154 395.59516773161965 25.520181415273928
772.641000699375 97.46800819337376 2.1862986571651364 0.5293743313821357 397.95311125729603 19.54140864350888
782.5979262768063 102.7356963897036 2.2113372659225985 0.5285160551950847 400.3486982341418 13.820905852016999
792.8398481650313 108.14311602697431 2.236891890511802 0.5271854422577009 402.78113502043635 8.335980816175464
803.4021371111319 113.70286342374023 2.263038366583489 0.5256046403646879 405.2503908250171 3.1098013878085884
814.2746002055687 119.40883491231118 2.2897844910135707 0.5240263964714496 407.7560864453435 0.07334641884792809
825.4585359267161 125.2605038210281 2.3171356666592025 0.522344447177626 410.2972643916196 0.0
836.9773966735117 131.26691870025772 2.3451218384962367 0.5205978797310102 412.8731075256692 0.0
848.834955067901 137.42963802538225 2.3737486425300194 0.5189515582356403 415.48395412590855 0.0
861.0235868061268 143.74520443862627 2.4030023234965796 0.5172432845066579 418.12942481666244 0.0
873.5759061461549 150.22605783312858 2.432921296357678 0.5155042686711653 420.80808286670407 0.0
886.4740756856154 156.86447702632475 2.463476497673038 0.5138550322309605 423.519388423576 0.0
899.7354314298426 163.6676544818669 2.494693598525061 0.5121299374877664 426.263926491692 0.0
913.3822749009781 170.6442848482984 2.526600606580977 0.5104552239782763 429.04133904117657 0.0
927.3867588557815 177.7818599840381 2.5591479574662133 0.5087468096075076 431.84962364736657 0.0
941.7992315848053 185.10056195662455 2.5924037305506813 0.5070567866804367 434.68879187402194 0.0
956.5860116685825 192.5869731409681 2.6263232263905443 0.5053684153005813 437.55954505588323 0.0
971.8082516424292 200.26535768828128 2.6609868992285763 0.5036749833524405 440.4615602408136 0.0
987.4092215753175 208.1112824309473 2.696302981992363 0.502004389633596 443.39219174670734 0.0
1003.4564527395692 216.15207134873646 2.7323650318717467 0.5003119389008877 446.35224304333093 0.0
1019.9170958200442 224.37472502119766 2.769130156048796 0.49866464260423626 449.3424024244641 0.0
1036.8394991673454 232.79820197524202 2.8066599137917563 0.49697936178336555 452.3623894048231 0.0
1054.190125612307 241.40702715981075 2.844890787671988 0.49535575950528354 455.4088468583903 0.0
1071.9994070069629 250.21410992659918 2.8838702090038666 0.4936854426836881 458.48357591050296 0.0
1090.29335693005 259.2298448826298 2.9236329579351836 0.4920638744474708 461.5871295346198 0.0
1109.0553637769115 268.4472849821339 2.964153932855207 0.49043040082567035 464.7192724425523 0.0
1128.3103587625212 277.87368743650313 3.0054422131693257 0.48877516601921656 467.87587687666405 0.0
1148.0616649208591 287.511811021664 3.047514918939394 0.48721312073583434 471.0599151315838 0.0
1168.3167732071915 297.3645610393688 3.0903811567049106 0.4855874063358163 474.2716930347005 0.0
1189.1278294165015 307.4520703829553 3.134104215876156 0.48395564230060284 477.5110201023164 0.0
1210.4403839047473 317.74974548466565 3.1785856227624327 0.4824189921089541 480.77294680996494 0.0
1232.2938244000309 328.2753389168469 3.2238959148730024 0.4808415514813875 484.06176219100337 0.0
1254.7281664964723 339.04420609486795 3.2700826357584956 0.4792436487869747 487.37742484726095 0.0
1277.7420821272474 350.0552196909001 3.317138360502431 0.47770320746424044 490.71942709513365 0.0
1301.3052064481847 361.29337712282273 3.3649964505441026 0.4761948637172271 494.0830324628434 0.0
1325.465093884214 372.779774173858 3.4137389272217193 0.4746471803365706 497.47289006040484 0.0
1350.2632127832746 384.5301410394175 3.46341317801439 0.4730956241688915 500.8888825459008 0.0
1375.687677536287 396.53891314401454 3.513995600706669 0.47159989220099696 504.3299917615031 0.0
1401.7184127270723 408.7955102722207 3.5654359456931197 0.4701241450945126 507.7922253856572 0.0
1428.4055640952995 421.32189825258286 3.617818015454911 0.4686558648963288 511.2801267663313 0.0
1455.765837038182 434.1241668877074 3.67115829770358 0.46716401790540285 514.7936148893198 0.0
1483.8259347224216 447.2112374124684 3.7254759401155675 0.4656779864759466 518.3310928584808 0.0
1512.557993076093 460.57004951944793 3.7807158655905777 0.46423799870652793 521.8894715714698 0.0
1542.0109770467932 474.2219135863722 3.836958432967532 0.46281185173273975 525.4730848306887 0.0
1572.2029720816877 488.1734022116141 3.8942211192832454 0.4613951557922409 529.0818842067226 0.0
1603.133569107449 502.42253904206524 3.9524862386575457 0.45998925428751924 532.7136335653959 0.0
1634.8029217920393 516.9676722039209 4.011737699881253 0.4585951309652545 536.3662857953279 0.0
1667.264531065822 531.8315855178314 4.072058558136368 0.4572113564955673 540.0438741161018 0.0
1700.5380308726906 547.0213914514823 4.133467369222965 0.45583026268157756 543.7463790946406 0.0
1734.6238809772974 562.5348918736906 4.195942101859565 0.45445861105600294 547.4708712870953 0.0
1769.5278454586569 578.373294673316 4.2594794866267645 0.45311001669121787 551.216467733508 0.0
1805.2995839047585 594.5575995830347 4.324154947891336 0.45177747574112903 554.9868210458568 0.0
1841.960301556606 611.0954673787426 4.389988111056039 0.4504563260429837 558.781937487146 0.0
1879.4952007397242 627.9783352343483 4.456934037130728 0.4491480333793447 562.5981454122898 0.0
1917.9281563588877 645.2151109190839 4.525017391855102 0.44785276824781306 566.4358348263322 0.0
1957.3125338200414 662.8278167426148 4.594313971373574 0.44656955035050494 570.2982070044372 0.0
1997.6712955227574 680.8247243083271 4.66484456196518 0.44529830755577393 574.1852909518561 0.0
2038.9800977385348 699.1930434450686 4.736547505941645 0.4440406159084418 578.0926279967849 0.0
2081.2789583243543 717.9486838072686 4.809473538105518 0.4427961530370226 582.021979385741 0.0
2124.6198127258376 737.1126896409162 4.883692456068249 0.4415641276896132 585.9760320290837 0.0
2169.0274933892288 756.6939815028182 4.959226249088041 0.4403383071951499 589.9548350790684 0.0
2214.474749700297 776.6779868157932 5.0360032431590165 0.4391207287264276 593.9531011119569 0.0
2261.020715277133 797.0887824139413 5.11410385475203 0.43792084971784107 597.9740527294582 0.0
2308.709551245029 817.9440117703268 5.193584555314645 0.4367376462696573 602.019805726412 0.0
2357.568180435676 839.2533185249348 5.274468638238769 0.435567170153524 606.0904271513187 0.0
2407.5472549873652 860.9931674913771 5.356653857754091 0.43441108033152176 610.1797613821134 0.0
2458.7297396896897 883.1976373783731 5.440256027382305 0.43326797525506855 614.2925763096104 0.0
2511.1612455550703 905.8843716566579 5.525327654154208 0.43213757055822377 618.4303648993331 0.0
2564.8708115045624 929.0637457978655 5.611893323676649 0.43101354013305304 622.5932101621104 0.0
2619.804845156931 952.7098587819642 5.699838396868657 0.42988917249818925 626.7740504200112 0.0
2676.0899550782633 976.8741293577361 5.789334160015524 0.4287821192421202 630.9792782513232 0.0
2733.7423173271086 1001.5627234554024 5.880397064915223 0.42770145353476785 635.2097160524316 0.0
2792.793332097564 1026.7868308603004 5.973053097779316 0.42661434452390523 639.4654611461091 0.0
