e[MeV/fm^3], P[MeV/fm^3], rho[fm^-3], v2[1], mu_q[MeV], mu_e[MeV]
70.21755168181654 0.006206087273093519 0.07407856508846018 0.017597877650005332 316.5185077347417 89.2771661002368
71.43578994790998 0.027644495228360377 0.07535555647246353 0.0175978776500052 316.5894798429086 89.8124074562691
72.67502861766434 0.04945246571785267 0.07665456106626496 0.017597877650005228 316.6616753923034 90.35687548400062
73.93562970314778 0.07163636938565421 0.07797595834102777 0.01759787765000538 316.7351154730202 90.91072923592193
75.21796145691394 0.09420268669514797 0.07932013430936638 0.01759787765000533 316.8098215387112 91.47413050632369
76.5223984795798 0.11715800982215896 0.0806874816381126 0.01759787765000522 316.8858154128541 92.04724387856187
77.84932182925448 0.14050904458066893 0.08207839976302188 0.017597877650005325 316.96311929512683 92.630236773136
79.19911913285509 0.16426261238173973 0.08349329500545777 0.017597877650005436 317.0417557678931 93.22327949659658
80.57218469934486 0.18842565222626206 0.08493258069109116 0.017597877650005332 317.12174780279906 93.82654529129692
81.96891963491473 0.21300522273190858 0.08639667727063695 0.017597877650005284 317.20311876748366 94.44021038599915
83.38973196016327 0.23800850419525207 0.0878860124426853 0.017597877650005242 317.2858924324053 95.06445404735784
84.83503672928572 0.26344280068923775 0.08940102127863886 0.01759787765000527 317.37009297778565 95.69945863228664
86.3052561513196 0.28931554219685157 0.0909421463498059 0.01759787765000538 317.45574500067295 96.34540964122833
87.80081971348744 0.3156342867816875 0.09250983785669148 0.017597877650005325 317.54287352212793 97.00249577234631
89.32216430665855 0.3424067227958098 0.09410455376051008 0.01759787765000531 317.63150399453286 97.67090897664707
90.86973435297011 0.3696406711256137 0.09572675991696154 0.017597877650005242 317.7216623090265 98.3508445140514
92.44398193566516 0.39734408747669764 0.0973769302123309 0.017597877650005228 317.8133748030682 99.04250101043964
94.04536693114535 0.4255250646977123 0.09905554670190979 0.01759787765000531 317.90666826813106 99.74608051566989
95.67435714332068 0.45419183514462985 0.10076309975082554 0.017892055534992374 318.00156995752883 100.46178856260559
97.33169327479138 0.4843410207312542 0.10250008817728433 0.018775745774211428 318.10048622561175 101.18570399772256
99.01814146064449 0.5170082040359527 0.10426701939828847 0.020025246310001077 318.2058447860128 101.91428658825437
100.73429318912723 0.5525181669555139 0.1060644095778678 0.02129999675038627 318.31828524079526 102.64750316311726
102.48063871606901 0.5907964457966746 0.10789278377786223 0.022549781036994038 318.43751805132047 103.38670836290729
104.25774423592242 0.6320103592916358 0.10975267611130558 0.023887708108000116 318.5638120290785 104.13237516689382
106.06623539667063 0.676492214395437 0.11164462989845152 0.025339806313660923 318.697770868173 104.88465247088972
107.90674784282342 0.7245234535359056 0.11356919782549418 0.026726883379044414 318.8398212612412 105.64215664334085
109.77980899298537 0.7757858510810522 0.11552694210601787 0.028008654354195556 318.9889635986241 106.39548846211913
111.68603200563659 0.8304189676497289 0.11751843464523576 0.02941848660514751 319.1453310518051 107.14305877628786
113.62612253642692 0.8889903796251314 0.1195442572070575 0.0310000273545607 319.31003653378224 107.89037199216354
115.60075117782822 0.9518318179215621 0.1216050015840337 0.03259969837934959 319.4836179784206 108.6399435927219
117.61049319554543 1.0189345897359714 0.12370126977023699 0.03419210470702347 319.6659546827271 109.3941654142798
119.65602415051524 1.0905481505064962 0.12583367413711752 0.03592218882239359 319.8573917239201 110.15411877028433
121.73815641876267 1.1672766767204164 0.12800283761239192 0.03778190969818496 320.0588603075681 110.92020174565145
123.85759205422588 1.2493614886182018 0.1302093938620144 0.0396255479711905 320.27062777688235 111.69348487044105
126.01496433860267 1.3368161240061027 0.13245398747528928 0.041461386350795104 320.4925793312381 112.47517112638602
128.2110155783424 1.429932568241939 0.13473727415316794 0.04346252473119688 320.7250671173629 113.26594974297757
130.4466887956552 1.52951487508801 0.1370599208997976 0.045590760196347446 320.969220213987 114.06610244230104
132.72270298041246 1.6357091714792171 0.13942260621736857 0.04767926014436641 321.22510082538804 114.87651716166351
135.03976205186157 1.748593799706529 0.14182602030432198 0.04977029748745049 321.49267975935425 115.69799950047124
137.3986835249372 1.8685229353243933 0.14427086525697244 0.05206400529136951 321.77234677231564 116.53110782929468
139.80057355445675 1.9965668028217445 0.14675785527460983 0.05448295484632937 322.0654823434704 117.37614392238619
142.24614757531495 2.1327305435734982 0.1492877168681315 0.05683638595368079 322.37191652081754 118.23384218287305
144.73619757503982 2.2771938463603174 0.15186118907227755 0.059208520968313694 322.69174413674494 119.10477732777403
147.27162660197732 2.430390920319256 0.15447902366151722 0.0618292055008095 323.0254080857181 119.98940983187808
149.85374556019306 2.5937403356179334 0.15714198536966398 0.06457197399617759 323.3745941649684 120.88804723823948
152.4832372283129 2.7670401807274834 0.15985085211327107 0.06721882453614525 323.7388555425644 121.80124809303793
155.16100474728017 2.9506159576823916 0.1626064152188807 0.06990575565196155 324.1184454344821 122.72942464238325
157.8880490867394 3.1450019316856195 0.16540947965419006 0.07289593855263288 324.5138717435153 471.2994048101636
160.66593902373984 3.3520690822739376 0.16826086426320178 0.07600220080988451 324.92718571735776 466.38022202854023
163.4952840125817 3.5713158744339593 0.17116140200542868 0.07897532922519734 325.3576004812541 461.2575089592682
166.37712853614147 3.8032695276021222 0.17411194019922174 0.08202037368123771 325.8055622707938 455.92595459288
169.31260061973967 4.048620249866702 0.17711334076929286 0.08542133552471287 326.2716886567447 450.3782087218343
172.303551331823 4.309718566586897 0.18016648049850292 0.0889270452590527 326.7583492276527 444.5860689626831
175.35050383107742 4.585737524453315 0.1832722512839939 0.09226446929582366 327.26444376458807 438.56262990781266
178.45466868853612 4.877441713994387 0.18643156039773165 0.09572802473872655 327.7906096931573 432.30030504124187
181.61738960046912 5.18586172672753 0.18964533075154347 0.09956214286511778 328.3377308078966 425.7885756117546
184.84067158507494 5.5134958934314255 0.19291450116672415 0.10348029397253222 328.90808973361146 419.0002742614806
188.12508868773136 5.859506730761704 0.19624002664828616 0.10723125726635341 329.50063467169656 411.94791929349327
191.47199658539387 6.224818666062787 0.19962287866394354 0.11114950466071183 330.116072530961 404.6230972162052
194.88301649425165 6.610906017540677 0.2030640454278977 0.11544544815415358 330.7555888744374 397.01169768826367
198.3602890613904 7.020342674256472 0.2065645321895225 0.11979382346787826 331.42129567013734 389.08858447587295
201.9044613376726 7.452308308070558 0.2101253615270204 0.12397650239191993 332.11220306471756 380.8655386216069
205.5170562570145 7.907903230714149 0.21374757364614289 0.1283699626450635 332.8290718474655 372.3335053588715
209.2000509218192 8.389163756231573 0.21743222668406043 0.1331367755092301 333.57341318817043 363.4744990378272
212.95568685700158 8.89862029273525 0.22118039701847075 0.1379109881763032 334.34705688852574 354.2667417134885
216.7847142491265 9.435507109353031 0.224993179582034 0.1425209986125906 335.149090910276 344.7210882883418
220.6888478651131 10.001107919216421 0.22887168818223044 0.1473848211915132 335.9803024130194 334.8281701414677
224.67051841244387 10.598148441577159 0.23281705582673115 0.15260238957125072 336.84253077264475 324.5660953776627
228.73201076449018 11.228941923303356 0.23683043505437643 0.1577674592771845 337.73719306437926 313.9179982423216
232.87421847820065 11.892825884399452 0.2409129982718618 0.16276966708385543 338.6634726746745 302.89359791156926
237.09907459677976 12.591262929879372 0.2450659380962259 0.1680647442175771 339.6221443059857 291.48367402698557
241.4095830266287 13.327795359770137 0.24929046770324403 0.17367604335428166 340.61534675451054 279.6627710509058
245.80798450797525 14.104290408314728 0.25358782118182577 0.17916063314688135 341.6439533067965 267.4204952961571
250.29536865638684 14.920249387540146 0.2579592538945237 0.18448376658109078 342.70726027181 254.76522195698703
254.87391430339358 15.777295306389933 0.26240604284425445 0.19013115054428797 343.8059831368225 241.6884354426128
259.54734193097937 16.679902122692877 0.2669294870473437 0.19603884001981875 344.9424917462097 228.1619303247487
264.3177234138911 17.62921742422393 0.2715309079130002 0.20173455319505607 346.11701155796936 214.18302324602004
269.1864120746621 18.624978432827973 0.2762116496293318 0.20727097595137622 347.328966229596 199.75857372318214
274.15586021544175 19.66893704821644 0.28097307955601647 0.2128797473539592 348.57896372915343 184.88134583821534
281.70484345314895 21.312417862293337 0.288190014554571 0.011399769293053669 349.86949367684684 169.5217086141353
340.5735807988343 22.054345762548074 0.49170573287310293 0.013806407489642847 351.2000887836266 154.0433110533457
439.389299540566 23.61823015191785 0.8329175514115361 0.021133088739102246 352.5703075794808 138.78719789085662
520.5361938653388 25.686746955179544 1.11724186013372 0.029717982156575062 353.98060905644974 124.10310613070875
591.9622457838809 28.075133168494837 1.370040106919494 0.0388000201896658 355.4334521442952 109.66282360357991
654.2318454041683 30.782250814820596 1.5933800845677228 0.04940586334321867 356.9277197298895 95.5387404624641
709.3411813092117 33.79427934245728 1.7943857727796102 0.06153102461064813 358.4631014669581 81.77402198074098
759.1436617186528 37.16812119865783 1.981269805151043 0.07120027526934275 360.03988091456415 68.41244970880999
808.425482190098 40.84552903580073 2.172136276660664 0.07213882035658054 361.66030746350987 55.17415125295749
866.3643924346269 44.85616600676503 2.4104746548113076 0.07964718303260265 363.3227610243933 41.90566992177972
915.8627036936615 49.239427897166856 2.6163797334354393 0.15270318201053645 365.0270429856405 28.457940087097224
941.1950417165677 53.93943003562465 2.713083455788029 0.3409128316896064 366.7732551876847 15.18128113570761
953.0105767181053 58.823794145505 2.745312420880811 0.413950386722723 368.5632457970251 4.3712163391209735
965.2131520607434 63.8821809790449 2.7783435913918595 0.41420574579374625 370.39513942729127 0.0
977.8669480072119 69.11914390956649 2.812421786985256 0.4135093197330786 372.26881070045994 0.0
990.9872052993148 74.53965428695254 2.8475755581679683 0.41278163326607986 374.18425749083553 0.0
1004.5955577874804 80.15186621652067 2.883847451236708 0.4120478516129107 376.1425479489815 0.0
1018.6951908578635 85.9563085938783 2.921230440447748 0.4113100393637952 378.1420680020603 0.0
1033.299309616836 91.9576344418142 2.9597439740438225 0.410569386911944 380.18264288681297 0.0
1048.421879293897 98.16079228453302 2.999409103165261 0.4098270331342806 382.2641765278808 0.0
1064.0791167356192 104.57163424918299 3.0402523206433973 0.4090839269931341 384.38684656688184 0.0
1080.2783511453276 111.19236017989469 3.082276599282055 0.40834130176358796 386.54960838431725 0.0
1097.0325631953492 118.02747562756926 3.125499413124591 0.40759999445923567 388.75217980057613 0.0
1114.354850284859 125.08152045846779 3.1699381979564145 0.4068483749943068 390.99427615507426 0.0
1132.266755546377 132.36199947028797 3.2156226851373773 0.4060590341947332 393.27543963785325 0.0
1150.8031490864034 139.88117151536403 3.26260339835798 0.40528019127615966 395.59516773161965 0.0
1169.9489171295227 147.6333827639322 3.310850399828901 0.404543465710395 397.95311125729603 0.0
1189.7152436780304 155.62234953402807 3.3603749800259024 0.40381185356499616 400.3486982341418 0.0
1210.1114468850715 163.85102929927942 3.411183577659992 0.4030284207471686 402.78113502043635 0.0
1231.2088404725691 172.3448587230905 3.463386542195892 0.40223878430924076 405.2503908250171 0.0
1252.9761082981508 181.09236576426326 3.5169277381585307 0.401512508572766 407.7560864453435 0.0
1275.4152141993684 190.09378954145373 3.5717999310655344 0.40075744529953283 410.2972643916196 0.0
1298.5814895796061 199.36848325182655 3.628080161290688 0.3999780435512914 412.8731075256692 0.0
1322.483624620734 208.91955928157572 3.685780759043808 0.39924663654221826 415.48395412590855 0.0
1347.1048919050136 218.74078581036395 3.74486917714261 0.3984915027226794 418.12942481666244 0.0
1372.5231842407427 228.8592498456157 3.8054500755141354 0.39772580602513585 420.80808286670407 0.0
1398.6983748454072 239.26030424646788 3.867453241149772 0.39700315199416103 423.519388423576 0.0
1425.6703065089084 249.95824263510968 3.9309400985621568 0.3962506982181848 426.263926491692 0.0
1453.4917366432558 260.97155362412303 3.9959831544505278 0.3955231838112203 429.04133904117657 0.0
1482.1012414774725 272.2774519240312 4.062468629176318 0.3947848381544352 431.84962364736657 0.0
1511.6164361876847 283.91757698289234 4.130567905645522 0.3940570860911592 434.68879187402194 0.0
1541.9584184959406 295.864059639184 4.200164552531943 0.3933339385283787 437.55954505588323 0.0
1573.270713627358 308.1675201498034 4.271462961192781 0.3926111465754021 440.4615602408136 0.0
1605.4253628959336 320.7813493904342 4.344246617058302 0.39190188622639877 443.39219174670734 0.0
1638.5794388296954 333.76135236170035 4.418746700916736 0.39118589439345364 446.35224304333093 0.0
1672.6557537509727 347.0803322687942 4.494851402059486 0.3904925138540021 449.3424024244641 0.0
1707.7683904620058 360.77835223327804 4.572717295356159 0.3897858554294906 452.3623894048231 0.0
1743.8444810256035 374.8280453069073 4.652202929220876 0.38910815584608116 455.4088468583903 0.0
1780.9532033747112 389.2544518716166 4.733417825441107 0.3884139306489347 458.48357591050296 0.0
1819.1554184635038 404.07909336226123 4.8164465263486 0.38774265252918383 461.5871295346198 0.0
1858.4130995880093 419.28828450855616 4.9012271157450105 0.3870695683649288 464.7192724425523 0.0
1898.7918644510335 434.903142331103 4.987805214756798 0.38639011282655655 467.87587687666405 0.0
1940.295634161281 450.9261573150909 5.076207554922416 0.38575163917401056 471.0599151315838 0.0
1982.9421732548406 467.36354352764715 5.166455385482381 0.3850900317258237 474.2716930347005 0.0
2026.8553769064824 484.2585694770455 5.25870914465588 0.384428433981153 477.5110201023164 0.0
2071.9155055954934 501.5667057364187 5.352748125548074 0.38380803746218994 480.77294680996494 0.0
2118.209283078795 519.3201726812703 5.44872632567642 0.3831737854962709 484.06176219100337 0.0
2165.832039159448 537.5521913697966 5.546763707887482 0.38253376561747654 487.37742484726095 0.0
2214.7822777509014 556.261772678106 5.646844373942945 0.3819192186282079 490.71942709513365 0.0
2264.996694845485 575.4243182412837 5.748826615089401 0.38131983308701134 494.0830324628434 0.0
2316.5809056629064 595.0787904328092 5.852891364754663 0.3807072571603687 497.47289006040484 0.0
2369.6341945541317 615.2596500876591 5.959158612069201 0.3800954160344254 500.8888825459008 0.0
2424.1309548063846 635.9572135525182 6.067574532072714 0.3795078871215294 504.3299917615031 0.0
2480.0311174707604 657.1553385548274 6.178034587462455 0.3789303848844634 507.7922253856572 0.0
2537.4468067075563 678.8951615818571 6.290724780570975 0.3783579240206665 511.2801267663313 0.0
2596.4186868358643 701.1906107977558 6.40568708240847 0.37777847310646884 514.7936148893198 0.0
2657.0139496923675 724.0640975080079 6.522978520378381 0.3772033355091837 518.3310928584808 0.0
2719.1726005075952 747.4929209394444 6.642477420090227 0.3766480852403644 521.8894715714698 0.0
2783.0044963729847 771.5172742972139 6.764362266787554 0.3761001387686811 525.4730848306887 0.0
2848.5537159334995 796.1522401827652 6.888677343531474 0.3755577439566764 529.0818842067226 0.0
2915.824192372446 821.3978112685013 7.015390439918847 0.3750213639409079 532.7136335653959 0.0
2984.8209070110206 847.254427707417 7.144472319487625 0.37449132048774914 536.3662857953279 0.0
3055.6652438799183 873.76609732471 7.276109915348702 0.3739670171069456 540.0438741161018 0.0
3128.4051176681896 900.9491983927758 7.410350067634762 0.37344552344940496 543.7463790946406 0.0
3203.0480288577687 928.8045462373582 7.547153445080329 0.3729293318190541 547.4708712870953 0.0
3279.610419358096 957.3371103070052 7.686516683626476 0.3724235159499054 551.216467733508 0.0
3358.205358100458 986.5877659172663 7.8286095972743786 0.37192537156422745 554.9868210458568 0.0
3438.884650941781 1016.5742059845713 7.973481578312483 0.37143309090211574 558.781937487146 0.0
3521.6208249161045 1047.284671879912 8.121039696154073 0.3709471683662082 562.5981454122898 0.0
3606.4714460974205 1078.7390324592463 8.271343921110336 0.37046761446068643 566.4358348263322 0.0
3693.5594895508425 1110.9813126279046 8.424567492056688 0.3699940150674239 570.2982070044372 0.0
3782.941118855317 1144.0306758684883 8.580762599591509 0.36952629429145833 574.1852909518561 0.0
3874.567640556 1177.867541175373 8.739798547546199 0.3690649815946143 578.0926279967849 0.0
3968.532902764854 1212.5250326916423 8.9017933991664 0.3686099079587457 582.021979385741 0.0
4064.9576320027104 1248.046066558361 9.066908122507858 0.36816073518066794 585.9760320290837 0.0
4163.902632521759 1284.4513714958282 9.23519782680934 0.3677151605399116 589.9548350790684 0.0
4265.314084573166 1321.7190749202703 9.406511160017665 0.3672738811729088 593.9531011119569 0.0
4369.329134636068 1359.8980199404537 9.581032879639945 0.3668402822953425 597.9740527294582 0.0
4476.0511140502 1399.0247445009645 9.758893541541182 0.3664139417153196 602.019805726412 0.0
4585.546020811097 1439.1217274053563 9.940151440764716 0.36599338144927884 606.0904271513187 0.0
4697.708694079214 1480.1488384520635 10.12458301884824 0.3655791519302243 610.1797613821134 0.0
4812.730744546532 1522.1745499711783 10.312453658638082 0.36517070556095454 614.2925763096104 0.0
4930.72045862072 1565.2367052914444 10.503887366088017 0.36476789806892107 618.4303648993331 0.0
5051.74909227212 1609.3595548382978 10.698945602676083 0.3643684487082739 622.5932101621104 0.0
5175.703360872828 1654.4995791329259 10.897378593990574 0.3639699554907523 626.7740504200112 0.0
5302.877255123167 1700.7613773664298 11.099582470522389 0.3635786240955712 630.9792782513232 0.0
5433.309427322676 1748.1583881807042 11.305594131999225 0.36319762927349153 635.2097160524316 0.0
5567.07700687196 1796.7168393146285 11.515478488413466 0.36281462717215973 639.4654611461091 0.0
