e[MeV/fm^3], P[MeV/fm^3], rho[fm^-3], v2[1], mu_q[MeV], mu_e[MeV]
70.21755168181654 0.006206087273093519 0.07407856508846018 0.017597877650005332 316.5185077347417 89.2771661002368
71.43578994790998 0.027644495228360377 0.07535555647246353 0.0175978776500052 316.5894798429086 89.8124074562691
72.67502861766434 0.04945246571785267 0.07665456106626496 0.017597877650005228 316.6616753923034 90.35687548400062
73.93562970314778 0.07163636938565421 0.07797595834102777 0.01759787765000538 316.7351154730202 90.91072923592193
75.21796145691394 0.09420268669514797 0.07932013430936638 0.01759787765000533 316.8098215387112 91.47413050632369
76.5223984795798 0.11715800982215896 0.0806874816381126 0.01759787765000522 316.8858154128541 92.04724387856187
77.84932182925448 0.14050904458066893 0.08207839976302188 0.017597877650005325 316.96311929512683 92.630236773136
79.19911913285509 0.16426261238173973 0.08349329500545777 0.017597877650005436 317.0417557678931 93.22327949659658
80.57218469934486 0.18842565222626206 0.08493258069109116 0.017597877650005332 317.12174780279906 93.82654529129692
81.96891963491473 0.21300522273190858 0.08639667727063695 0.017597877650005284 317.20311876748366 94.44021038599915
83.38973196016327 0.23800850419525207 0.0878860124426853 0.017597877650005242 317.2858924324053 95.06445404735784
84.83503672928572 0.26344280068923775 0.08940102127863886 0.01759787765000527 317.37009297778565 95.69945863228664
86.3052561513196 0.28931554219685157 0.0909421463498059 0.01759787765000538 317.45574500067295 96.34540964122833
87.80081971348744 0.3156342867816875 0.09250983785669148 0.017597877650005325 317.54287352212793 97.00249577234631
89.32216430665855 0.3424067227958098 0.09410455376051008 0.01759787765000531 317.63150399453286 97.67090897664707
90.86973435297011 0.3696406711256137 0.09572675991696154 0.017597877650005242 317.7216623090265 98.3508445140514
92.44398193566516 0.39734408747669764 0.0973769302123309 0.017597877650005228 317.8133748030682 99.04250101043964
94.04536693114535 0.4255250646977123 0.09905554670190979 0.01759787765000531 317.90666826813106 99.74608051566989
95.67435714332068 0.45419183514462985 0.10076309975082554 0.017892055534992374 318.00156995752883 100.46178856260559
97.33169327479138 0.4843410207312542 0.10250008817728433 0.018775745774211428 318.10048622561175 101.18570399772256
99.01814146064449 0.5170082040359527 0.10426701939828847 0.020025246310001077 318.2058447860128 101.91428658825437
100.73429318912723 0.5525181669555139 0.1060644095778678 0.02129999675038627 318.31828524079526 102.64750316311726
102.48063871606901 0.5907964457966746 0.10789278377786223 0.022549781036994038 318.43751805132047 103.38670836290729
104.25774423592242 0.6320103592916358 0.10975267611130558 0.023887708108000116 318.5638120290785 104.13237516689382
106.06623539667063 0.676492214395437 0.11164462989845152 0.025339806313660923 318.697770868173 104.88465247088972
107.90674784282342 0.7245234535359056 0.11356919782549418 0.026726883379044414 318.8398212612412 105.64215664334085
109.77980899298537 0.7757858510810522 0.11552694210601787 0.028008654354195556 318.9889635986241 106.39548846211913
111.68603200563659 0.8304189676497289 0.11751843464523576 0.02941848660514751 319.1453310518051 107.14305877628786
113.62612253642692 0.8889903796251314 0.1195442572070575 0.0310000273545607 319.31003653378224 107.89037199216354
115.60075117782822 0.9518318179215621 0.1216050015840337 0.03259969837934959 319.4836179784206 108.6399435927219
117.61049319554543 1.0189345897359714 0.12370126977023699 0.03419210470702347 319.6659546827271 109.3941654142798
119.65602415051524 1.0905481505064962 0.12583367413711752 0.03592218882239359 319.8573917239201 110.15411877028433
121.73815641876267 1.1672766767204164 0.12800283761239192 0.03778190969818496 320.0588603075681 110.92020174565145
123.85759205422588 1.2493614886182018 0.1302093938620144 0.0396255479711905 320.27062777688235 111.69348487044105
126.01496433860267 1.3368161240061027 0.13245398747528928 0.041461386350795104 320.4925793312381 112.47517112638602
128.2110155783424 1.429932568241939 0.13473727415316794 0.04346252473119688 320.7250671173629 113.26594974297757
130.4466887956552 1.52951487508801 0.1370599208997976 0.045590760196347446 320.969220213987 114.06610244230104
132.72270298041246 1.6357091714792171 0.13942260621736857 0.04767926014436641 321.22510082538804 114.87651716166351
135.03976205186157 1.748593799706529 0.14182602030432198 0.04977029748745049 321.49267975935425 115.69799950047124
137.3986835249372 1.8685229353243933 0.14427086525697244 0.05206400529136951 321.77234677231564 116.53110782929468
139.80057355445675 1.9965668028217445 0.14675785527460983 0.05448295484632937 322.0654823434704 117.37614392238619
142.24614757531495 2.1327305435734982 0.1492877168681315 0.05683638595368079 322.37191652081754 118.23384218287305
144.73619757503982 2.2771938463603174 0.15186118907227755 0.059208520968313694 322.69174413674494 119.10477732777403
147.27162660197732 2.430390920319256 0.15447902366151722 0.0618292055008095 323.0254080857181 119.98940983187808
149.85374556019306 2.5937403356179334 0.15714198536966398 0.06457197399617759 323.3745941649684 120.88804723823948
152.4832372283129 2.7670401807274834 0.15985085211327107 0.06721882453614525 323.7388555425644 121.80124809303793
155.16100474728017 2.9506159576823916 0.1626064152188807 0.06990575565196155 324.1184454344821 122.72942464238325
157.8880490867394 3.1450019316856195 0.16540947965419006 0.07289593855263288 324.5138717435153 123.67293532678868
160.66593902373984 3.3520690822739376 0.16826086426320178 0.07600220080988451 324.92718571735776 124.63202719571277
163.4952840125817 3.5713158744339593 0.17116140200542868 0.07897532922519734 325.3576004812541 125.6070903482084
166.37712853614147 3.8032695276021222 0.17411194019922174 0.08202037368123771 325.8055622707938 126.59840218489457
169.31260061973967 4.048620249866702 0.17711334076929286 0.08542133552471287 326.2716886567447 127.60620334892384
172.303551331823 4.309718566586897 0.18016648049850292 0.0889270452590527 326.7583492276527 128.63058410314463
175.35050383107742 4.585737524453315 0.1832722512839939 0.09226446929582366 327.26444376458807 129.67181814230588
178.45466868853612 4.877441713994387 0.18643156039773165 0.09572802473872655 327.7906096931573 130.73004905217363
181.61738960046912 5.18586172672753 0.18964533075154347 0.09956214286511778 328.3377308078966 131.80536363429957
184.84067158507494 5.5134958934314255 0.19291450116672415 0.10348029397253222 328.90808973361146 132.89762523650757
188.12508868773136 5.859506730761704 0.19624002664828616 0.10723125726635341 329.50063467169656 134.00704679883177
191.47199658539387 6.224818666062787 0.19962287866394354 0.11114950466071183 330.116072530961 135.1336328978941
194.88301649425165 6.610906017540677 0.2030640454278977 0.11544544815415358 330.7555888744374 136.2772622126371
198.3602890613904 7.020342674256472 0.2065645321895225 0.11979382346787826 331.42129567013734 137.43754067535426
201.9044613376726 7.452308308070558 0.2101253615270204 0.12397650239191993 332.11220306471756 138.61467605675114
205.5170562570145 7.907903230714149 0.21374757364614289 0.1283699626450635 332.8290718474655 139.80852765902867
209.2000509218192 8.389163756231573 0.21743222668406043 0.1331367755092301 333.57341318817043 141.01869117551004
212.95568685700158 8.89862029273525 0.22118039701847075 0.1379109881763032 334.34705688852574 142.2445530860434
216.7847142491265 9.435507109353031 0.224993179582034 0.1425209986125906 335.149090910276 143.4863497980139
220.6888478651131 10.001107919216421 0.22887168818223044 0.1473848211915132 335.9803024130194 144.74379875149575
224.67051841244387 10.598148441577159 0.23281705582673115 0.15250966543846767 336.84253077264475 151.22314066677666
231.79610287440818 11.717749104999022 0.23970426511171922 0.07321555090893006 337.73719306437926 149.41055465742716
234.2622013527576 11.902669417770712 0.24907386161634 0.0767543828914905 338.6634726746745 147.53391195338313
242.80333822447582 12.610581177764828 0.2777189035924086 0.08778527561972227 339.6221443059857 145.72988852492344
251.00773630190298 13.369444074935029 0.3051916700618086 0.09752055365119972 340.61534675451054 144.01207688056198
258.91803968810683 14.179192584683566 0.3315702555561005 0.10719995386410974 341.6439533067965 142.37318404816003
266.584877735474 15.036995485510223 0.3570347211067741 0.1191297823849693 342.70726027181 140.80094062214852
273.85219414642313 15.952656962121367 0.3809361058856337 0.12910261365617015 343.8059831368225 139.34383405432018
281.1057971450552 16.91159904254043 0.40468876717831537 0.14279740031357746 344.9424917462097 137.90404994702172
287.8491061323366 17.940946606572357 0.42634738979619297 0.15622390096700123 346.11701155796936 136.62631097524186
294.5802026816834 19.01653595850197 0.4477878744900748 0.16635757652102745 347.328966229596 135.37767009026038
301.13483352310965 20.14884191679849 0.4683501178294515 0.18068084662593842 348.57896372915343 134.2091023792892
307.4924948038091 21.346462117173044 0.48786774687687345 0.19319671831978003 349.86949367684684 133.1420982105595
313.8190540937685 22.599092467637217 0.5070088173267947 0.2040134970510068 351.2000887836266 132.1250245143419
320.06824501187316 23.911159385770567 0.5255564468385298 0.21780276694306844 352.5703075794808 131.17818391095457
326.1934910391258 25.29235369302965 0.5432343797493732 0.23040836048310043 353.98060905644974 130.33287944108295
332.32822476292205 26.736054580865776 0.5605982437892435 0.2404692144955871 355.4334521442952 129.54351276183596
338.46560308707296 28.24344601352372 0.577600478579662 0.2507583374095068 356.9277197298895 128.81611272241295
344.61139137963573 29.81624770141893 0.5942384883567748 0.26214954514807687 358.4631014669581 128.15365841128008
350.74908058191045 31.46345313588391 0.6103573262671405 0.27278330660507333 360.03988091456415 127.57733167765727
356.9466004023441 33.18161682015554 0.6262559023965685 0.28147952113828323 361.66030746350987 127.06028577959172
363.2078406069484 34.97088276582049 0.6419368506689448 0.28981941647472853 363.3227610243933 126.60340062044625
369.54337457393535 36.833012029456505 0.6574211722507567 0.2977340267219546 365.0270429856405 126.20664759179944
375.96594314334163 38.77007277309691 0.6727378435359543 0.30516369497957596 366.7732551876847 125.86922408377112
382.4949801473688 40.78613650384777 0.6879326713059856 0.31208595291016517 368.5632457970251 125.58963280355889
389.1363345245806 42.88111497636174 0.703020621781548 0.3184855685250434 370.39513942729127 125.36663381337593
395.90207936602053 45.056867774697345 0.7180321646093678 0.3243727717241258 372.26881070045994 125.19837050602757
402.8043773496193 47.31542533020995 0.7329980539433266 0.32976835024864837 374.18425749083553 125.08280880772497
409.85884431143813 49.66015178666444 0.7479560007037838 0.3347008174287902 376.1425479489815 125.01779974005257
417.0710273244952 52.0912266676112 0.7629221321102988 0.339195694678049 378.1420680020603 125.00120356654908
424.45124315898863 54.610550312052695 0.7779226122215155 0.34328546616559663 380.18264288681297 125.03075032979181
432.0097031944954 57.2201510291138 0.7929829270055769 0.34700216765306147 382.2641765278808 125.10416147348157
439.75726746318713 59.92244275059116 0.8081292812552062 0.35037731723332843 384.38684656688184 125.2191874632721
447.7000018934704 62.71830223381011 0.8233780885167619 0.3534392787652938 386.54960838431725 125.37352293627251
455.8464320229398 65.60957845569664 0.8387502600360768 0.3562160982951883 388.75217980057613 125.56491357672512
464.20480244471673 68.5981373131447 0.854265729346558 0.3587699581136996 390.99427615507426 125.79114199356377
472.78519950383384 71.68724701098567 0.8699395229570578 0.36119154644439355 393.27543963785325 126.05087808194617
481.6018070495081 74.88234966191244 0.8857852827392722 0.3633532408547522 395.59516773161965 126.34351515768842
490.6544298990469 78.18054771714193 0.9018306432583861 0.36520298290499076 397.95311125729603 126.66412377962857
499.9493626756522 81.58335739598238 0.918090587320975 0.36687772785763695 400.3486982341418 127.01062029656656
509.49184799773093 85.0919705723129 0.9345779861778769 0.36849773701692623 402.78113502043635 127.38094333590173
519.3087626761363 88.71770588489787 0.951312380516278 0.36997736407331683 405.2503908250171 127.77548116072953
529.3924872482103 92.45510377924045 0.9683114240837232 0.37120564511112697 407.7560864453435 128.1898483864513
539.7451809924022 96.30412989625113 0.9855853048324023 0.3723595796613113 410.2972643916196 128.62186343560595
550.3880021264098 100.27332011384529 1.0031526022268646 0.37343603839314987 412.8731075256692 129.07067474795642
561.3268351355824 104.36379188504952 1.021033059316589 0.3743464508344232 415.48395412590855 129.5339952454447
572.5573172092539 108.57256452889906 1.039235299681915 0.3751855878943129 418.12942481666244 130.00947474317786
584.1088843838241 112.91156347594962 1.0577843540681349 0.37595053317982785 420.80808286670407 130.49590527401517
595.9681347877492 117.3740800261723 1.0766809317584183 0.3765903767065364 423.519388423576 130.99094620872324
608.1520932664557 121.96620234982885 1.0959504366726993 0.37717996574438484 426.263926491692 131.49318425074753
620.6821045448062 126.69589147995227 1.1156193521368225 0.3776836426307302 429.04133904117657 132.00096013545118
633.5348377168322 131.5529901462202 1.135670432884095 0.3781233622631044 431.84962364736657 132.51254562726612
646.756972044923 136.5555724795631 1.1561553711664763 0.3785004667206806 434.68879187402194 133.02595982594724
660.3197562998588 141.69119880066992 1.1770568960516934 0.3788110578263746 437.55954505588323 133.54074583416102
674.2801907554941 146.98179739660014 1.198438553752795 0.37907190865850904 440.4615602408136 134.05428770336508
688.5878492451628 152.40690975581526 1.2202494477155525 0.3792711876899464 443.39219174670734 134.56624532411578
703.3061956296222 157.99060453268265 1.24256512726617 0.3794270100364088 446.35224304333093 135.07390221242025
718.406246290771 163.72085930265655 1.26536218844737 0.3795284628548474 449.3424024244641 135.5777783818814
733.9342428775556 169.6148572591777 1.2886968465866289 0.37958929952543574 452.3623894048231 136.07529280139653
749.8605651855246 175.6605958653438 1.3125349887015179 0.37960503072805984 455.4088468583903 136.56579974193352
766.2147654622219 181.8687045817995 1.3369184731900374 0.3795803481845885 458.48357591050296 137.04824885298254
783.0226825155132 188.2482627736991 1.361883392703766 0.37951895401228963 461.5871295346198 137.52124032297812
800.2698284056086 194.79321282238072 1.387416321504584 0.37941902552021745 464.7192724425523 137.98504778130547
817.982003776682 201.51243673421317 1.4135456063355774 0.37928262189259154 467.87587687666405 138.43646979905603
836.163103627552 208.4068384184605 1.4402842986786721 0.3791211665065157 471.0599151315838 138.8763563511347
854.8213626668268 215.4789343906733 1.4676457825691638 0.37892029403109984 474.2716930347005 139.30432506862135
874.0083767638392 222.74705956218077 1.495696274363214 0.3786874488428884 477.5110201023164 139.71768113300297
893.6743026844814 230.19194171908646 1.5243703935391446 0.37843916434252556 480.77294680996494 140.11681548636096
913.8571673888207 237.82726806614926 1.5537230849451242 0.3781566034413908 484.06176219100337 140.50170485409834
934.5972249170868 245.6670446688242 1.5838066766310153 0.37784271820521464 487.37742484726095 140.87045987662208
955.8947434823472 253.71068047148998 1.6146228029609484 0.3775141269811968 490.71942709513365 141.2230297953268
977.7229943903321 261.9474541752793 1.6461335852622128 0.37716903999424645 494.0830324628434 141.5589498891136
1000.128089348389 270.39392379109483 1.678403853225533 0.3767911388794811 497.47289006040484 141.87815425154625
1023.1523300893665 279.06457718166297 1.7114879903442548 0.3763891387376219 500.8888825459008 142.17890056039735
1046.785810929546 287.9551378849759 1.7453730451524607 0.3759799229677645 504.3299917615031 142.46159385902664
1071.0117406359589 297.0585086457618 1.7800336243731418 0.3755565824318454 507.7922253856572 142.72577678258287
1095.87908780393 306.39216413169174 1.8155372200322324 0.3751167466481906 511.2801267663313 142.9714076467286
1121.4058506893734 315.96188785598605 1.851906574338998 0.37465095127776227 514.7936148893198 143.19807800536555
1147.6209903838176 325.77698384669003 1.889176365887789 0.3741689477617465 518.3310928584808 143.40441722721533
1174.4996565779106 335.8276232681403 1.9273110571211995 0.3736850915269878 521.8894715714698 143.59083846716027
1202.0899651416114 346.1308798530774 1.9663758758843102 0.3731905747080395 525.4730848306887 143.75743785620597
1230.4115086988982 356.6930335486379 2.006394648008325 0.3726848477026907 529.0818842067226 143.90393318654506
1259.4665744774059 367.5138979403033 2.047366515915392 0.3721692437764812 532.7136335653959 144.03000187986453
1289.2579531515755 378.59348725624363 2.089291227574039 0.3716449938340247 536.3662857953279 144.1354071673661
1319.8387153001017 389.9504844866493 2.132238929039203 0.3711124123240399 540.0438741161018 144.22010094290718
1351.230220364546 401.59172982972564 2.176234672724656 0.3705692077320686 543.7463790946406 144.28390807620016
1383.4363517034908 413.5173622780261 2.221277637645332 0.3700187781596167 547.4708712870953 144.32640083020553
1416.4650236194334 425.7293788984898 2.267374365183646 0.36946750569154396 551.216467733508 144.34768681370022
1450.365813116095 438.2451421168131 2.3145890915996685 0.36891355249498403 554.9868210458568 144.34785743516116
1485.1618374424886 451.0720667307477 2.362948017055391 0.3683558106140614 558.781937487146 144.32682305696497
1520.842045492284 464.20497738945716 2.4124296438782658 0.3677956328487797 562.5981454122898 144.284561045586
1557.432082061123 477.6522364836871 2.4630632827071888 0.3672338151639716 566.4358348263322 144.22107276731913
1594.985809088359 491.43253231997994 2.5149168019371992 0.36667062603313383 570.2982070044372 144.1362995680415
1633.5282901282178 505.5539233604736 2.568017709238892 0.3661066955124923 574.1852909518561 144.0302224436392
1673.039386351099 520.0079234401535 2.622331059732018 0.3655433674513864 578.0926279967849 143.90299190005075
1713.560433992317 534.8085741873236 2.6779063560338603 0.36498112290325135 582.021979385741 143.75461908330212
1755.1443712717582 549.974095993218 2.734808409741984 0.3644201986139137 585.9760320290837 143.58505057542226
1797.818307343377 565.5132346100565 2.793066094865341 0.36385827741175714 589.9548350790684 143.39432251886169
1841.5599654397513 581.4165236219145 2.852639228466387 0.3632967848890365 593.9531011119569 143.18257407186314
1886.4294047130738 597.7047301732836 2.913601145209388 0.362740609460535 597.9740527294582 142.94977888844718
1932.472074312121 614.3933890021082 2.9760054711448825 0.3621898211703112 602.019805726412 142.69603564935977
1979.7173512907439 631.4920148006671 3.0398826054486365 0.3616430728765323 606.0904271513187 142.42142553250733
2028.1207466912217 648.9834386060046 3.1051630630445155 0.3611015855783437 610.1797613821134 142.12650241164087
2077.7658280673268 666.896805883517 3.1719499893925596 0.3605651232949407 614.2925763096104 141.81107425778896
2128.700221116799 685.2482008649276 3.240297273349612 0.3600339457925523 618.4303648993331 141.47514663998663
2180.955571391988 704.0479183508761 3.3102368186889035 0.3595054484343576 622.5932101621104 141.1188311416854
2234.483940627698 723.2773519863239 3.381691829766618 0.35897681972367845 626.7740504200112 140.7426986911163
2289.413318744189 742.9809936661248 3.4548191329970472 0.3584566780113958 630.9792782513232 140.34609400746564
2345.7610228770623 763.1646413162388 3.5296347516202164 0.3579496311609711 635.2097160524316 139.92952662029046
