e[MeV/fm^3], P[MeV/fm^3], rho[fm^-3], v2[1], mu_q[MeV], mu_e[MeV]
70.21755168181654 0.006206087273093519 0.07407856508846018 0.017597877650005332 316.5185077347417 89.2771661002368
71.43578994790998 0.027644495228360377 0.07535555647246353 0.0175978776500052 316.5894798429086 89.8124074562691
72.67502861766434 0.04945246571785267 0.07665456106626496 0.017597877650005228 316.6616753923034 90.35687548400062
73.93562970314778 0.07163636938565421 0.07797595834102777 0.01759787765000538 316.7351154730202 90.91072923592193
75.21796145691394 0.09420268669514797 0.07932013430936638 0.01759787765000533 316.8098215387112 91.47413050632369
76.5223984795798 0.11715800982215896 0.0806874816381126 0.01759787765000522 316.8858154128541 92.04724387856187
77.84932182925448 0.14050904458066893 0.08207839976302188 0.017597877650005325 316.96311929512683 92.630236773136
79.19911913285509 0.16426261238173973 0.08349329500545777 0.017597877650005436 317.0417557678931 93.22327949659658
80.57218469934486 0.18842565222626206 0.08493258069109116 0.017597877650005332 317.12174780279906 93.82654529129692
81.96891963491473 0.21300522273190858 0.08639667727063695 0.017597877650005284 317.20311876748366 94.44021038599915
83.38973196016327 0.23800850419525207 0.0878860124426853 0.017597877650005242 317.2858924324053 95.06445404735784
84.83503672928572 0.26344280068923775 0.08940102127863886 0.01759787765000527 317.37009297778565 95.69945863228664
86.3052561513196 0.28931554219685157 0.0909421463498059 0.01759787765000538 317.45574500067295 96.34540964122833
87.80081971348744 0.3156342867816875 0.09250983785669148 0.017597877650005325 317.54287352212793 97.00249577234631
89.32216430665855 0.3424067227958098 0.09410455376051008 0.01759787765000531 317.63150399453286 97.67090897664707
90.86973435297011 0.3696406711256137 0.09572675991696154 0.017597877650005242 317.7216623090265 98.3508445140514
92.44398193566516 0.39734408747669764 0.0973769302123309 0.017597877650005228 317.8133748030682 99.04250101043964
94.04536693114535 0.4255250646977123 0.09905554670190979 0.01759787765000531 317.90666826813106 99.74608051566989
95.67435714332068 0.45419183514462985 0.10076309975082554 0.017892055534992374 318.00156995752883 100.46178856260559
97.33169327479138 0.4843410207312542 0.10250008817728433 0.018775745774211428 318.10048622561175 101.18570399772256
99.01814146064449 0.5170082040359527 0.10426701939828847 0.020025246310001077 318.2058447860128 101.91428658825437
100.73429318912723 0.5525181669555139 0.1060644095778678 0.02129999675038627 318.31828524079526 102.64750316311726
102.48063871606901 0.5907964457966746 0.10789278377786223 0.022549781036994038 318.43751805132047 103.38670836290729
104.25774423592242 0.6320103592916358 0.10975267611130558 0.023887708108000116 318.5638120290785 104.13237516689382
106.06623539667063 0.676492214395437 0.11164462989845152 0.025339806313660923 318.697770868173 104.88465247088972
107.90674784282342 0.7245234535359056 0.11356919782549418 0.026726883379044414 318.8398212612412 105.64215664334085
109.77980899298537 0.7757858510810522 0.11552694210601787 0.028008654354195556 318.9889635986241 106.39548846211913
111.68603200563659 0.8304189676497289 0.11751843464523576 0.02941848660514751 319.1453310518051 107.14305877628786
113.62612253642692 0.8889903796251314 0.1195442572070575 0.0310000273545607 319.31003653378224 107.89037199216354
115.60075117782822 0.9518318179215621 0.1216050015840337 0.03259969837934959 319.4836179784206 108.6399435927219
117.61049319554543 1.0189345897359714 0.12370126977023699 0.03419210470702347 319.6659546827271 109.3941654142798
119.65602415051524 1.0905481505064962 0.12583367413711752 0.03592218882239359 319.8573917239201 110.15411877028433
121.73815641876267 1.1672766767204164 0.12800283761239192 0.03778190969818496 320.0588603075681 110.92020174565145
123.85759205422588 1.2493614886182018 0.1302093938620144 0.0396255479711905 320.27062777688235 111.69348487044105
126.01496433860267 1.3368161240061027 0.13245398747528928 0.041461386350795104 320.4925793312381 112.47517112638602
128.2110155783424 1.429932568241939 0.13473727415316794 0.04346252473119688 320.7250671173629 113.26594974297757
130.4466887956552 1.52951487508801 0.1370599208997976 0.045590760196347446 320.969220213987 114.06610244230104
132.72270298041246 1.6357091714792171 0.13942260621736857 0.04767926014436641 321.22510082538804 114.87651716166351
135.03976205186157 1.748593799706529 0.14182602030432198 0.04977029748745049 321.49267975935425 115.69799950047124
137.3986835249372 1.8685229353243933 0.14427086525697244 0.05206400529136951 321.77234677231564 116.53110782929468
139.80057355445675 1.9965668028217445 0.14675785527460983 0.05448295484632937 322.0654823434704 117.37614392238619
142.24614757531495 2.1327305435734982 0.1492877168681315 0.05683638595368079 322.37191652081754 118.23384218287305
144.73619757503982 2.2771938463603174 0.15186118907227755 0.059208520968313694 322.69174413674494 119.10477732777403
147.27162660197732 2.430390920319256 0.15447902366151722 0.0618292055008095 323.0254080857181 119.98940983187808
149.85374556019306 2.5937403356179334 0.15714198536966398 0.06457197399617759 323.3745941649684 120.88804723823948
152.4832372283129 2.7670401807274834 0.15985085211327107 0.06721882453614525 323.7388555425644 121.80124809303793
155.16100474728017 2.9506159576823916 0.1626064152188807 0.06990575565196155 324.1184454344821 122.72942464238325
157.8880490867394 3.1450019316856195 0.16540947965419006 0.07289593855263288 324.5138717435153 123.67293532678868
160.66593902373984 3.3520690822739376 0.16826086426320178 0.07600220080988451 324.92718571735776 124.63202719571277
163.4952840125817 3.5713158744339593 0.17116140200542868 0.07897532922519734 325.3576004812541 125.6070903482084
166.37712853614147 3.8032695276021222 0.17411194019922174 0.08202037368123771 325.8055622707938 126.59840218489457
169.31260061973967 4.048620249866702 0.17711334076929286 0.08542133552471287 326.2716886567447 127.60620334892384
172.303551331823 4.309718566586897 0.18016648049850292 0.0889270452590527 326.7583492276527 128.63058410314463
175.35050383107742 4.585737524453315 0.1832722512839939 0.09226446929582366 327.26444376458807 129.67181814230588
178.45466868853612 4.877441713994387 0.18643156039773165 0.09572802473872655 327.7906096931573 130.73004905217363
181.61738960046912 5.18586172672753 0.18964533075154347 0.09956214286511778 328.3377308078966 131.80536363429957
184.84067158507494 5.5134958934314255 0.19291450116672415 0.10348029397253222 328.90808973361146 132.89762523650757
188.12508868773136 5.859506730761704 0.19624002664828616 0.10723125726635341 329.50063467169656 134.00704679883177
191.47199658539387 6.224818666062787 0.19962287866394354 0.11114950466071183 330.116072530961 135.1336328978941
194.88301649425165 6.610906017540677 0.2030640454278977 0.11544544815415358 330.7555888744374 136.2772622126371
198.3602890613904 7.020342674256472 0.2065645321895225 0.11979382346787826 331.42129567013734 137.43754067535426
201.9044613376726 7.452308308070558 0.2101253615270204 0.12397650239191993 332.11220306471756 138.61467605675114
205.5170562570145 7.907903230714149 0.21374757364614289 0.1283699626450635 332.8290718474655 139.80852765902867
209.2000509218192 8.389163756231573 0.21743222668406043 0.1331367755092301 333.57341318817043 141.01869117551004
212.95568685700158 8.89862029273525 0.22118039701847075 0.1379109881763032 334.34705688852574 142.2445530860434
216.7847142491265 9.435507109353031 0.224993179582034 0.1425209986125906 335.149090910276 143.4863497980139
220.6888478651131 10.001107919216421 0.22887168818223044 0.1473848211915132 335.9803024130194 144.74379875149575
224.67051841244387 10.598148441577159 0.23281705582673115 0.15260238957125072 336.84253077264475 146.0161250814302
228.73201076449018 11.228941923303356 0.23683043505437643 0.1577674592771845 337.73719306437926 147.30260528428684
232.87421847820065 11.892825884399452 0.2409129982718618 0.16276966708385543 338.6634726746745 148.60351662363965
237.09907459677976 12.591262929879372 0.2450659380962259 0.1680647442175771 339.6221443059857 149.91845083271977
241.4095830266287 13.327795359770137 0.24929046770324403 0.17367604335428166 340.61534675451054 151.2461733723472
245.80798450797525 14.104290408314728 0.25358782118182577 0.17916063314688135 341.6439533067965 331.94731500058157
250.29536865638684 14.920249387540146 0.2579592538945237 0.18448376658109078 342.70726027181 317.49211459849045
254.87391430339358 15.777295306389933 0.26240604284425445 0.19013115054428797 343.8059831368225 302.5554502835783
259.54734193097937 16.679902122692877 0.2669294870473437 0.19603884001981875 344.9424917462097 287.10510504184856
264.3177234138911 17.62921742422393 0.2715309079130002 0.20173455319505607 346.11701155796936 271.13801386889065
269.1864120746621 18.624978432827973 0.2762116496293318 0.20727097595137622 347.328966229596 254.6620118929316
274.15586021544175 19.66893704821644 0.28097307955601647 0.2131521958171756 348.57896372915343 237.6688340498938
279.2306731431928 20.76658998854091 0.28581658862374093 0.21922189252154145 349.86949367684684 220.12463502494765
284.412585417037 21.918069468750467 0.29074359174052566 0.22520071417586252 351.2000887836266 202.0357674115405
295.18277052236874 24.40262681548482 0.30094713637314713 0.007224241116776248 352.5703075794808 183.40823280441697
309.9971091103137 24.51541075648395 0.34912807052128064 0.008002080372986525 353.98060905644974 164.2357914044005
452.91228755569756 26.19523875782856 0.8344236699297642 0.014982851555752949 355.4334521442952 145.18739030499717
578.9314879214184 28.442155742005337 1.2629789164995953 0.022328723056371458 356.9277197298895 126.45235781014303
685.6892558004494 31.232790323198078 1.6313964639460847 0.03302158596020169 358.4631014669581 108.12274052189382
772.8236153772747 34.59951852298501 1.9396294590465841 0.04155060024305973 360.03988091456415 90.56909439597874
858.7938018152049 38.418652693842546 2.254329686948145 0.04205279675432902 361.66030746350987 73.1868936451115
970.2206769217194 42.76202060940454 2.689222857253934 0.052627732284904694 363.3227610243933 55.53744713909425
1048.7264240237023 47.648497926019935 2.996770619716206 0.27903167373458926 365.0270429856405 37.64991800389689
1065.0516547278228 52.939711757233034 3.0479195455014927 0.39002712873875023 366.7732551876847 20.366468147916507
1077.5099999955305 58.42547914800505 3.0820216003598166 0.44271516199609273 368.5632457970251 6.373698905207034
1090.2617683551175 64.10202825437979 3.1165445854961065 0.4447915281550796 370.39513942729127 0.0
1103.4748047102607 69.97406030811614 3.1521289220836866 0.4439446892533816 372.26881070045994 0.0
1117.1686436958887 76.0467351114684 3.1888195591505824 0.4429883444901659 374.18425749083553 0.0
1131.3653467300653 82.32876190607351 3.226659690765604 0.4420231635613088 376.1425479489815 0.0
1146.0677178971182 88.82030552018232 3.2656407898010467 0.44105184304795664 378.1420680020603 0.0
1161.289008746228 95.52614277387039 3.3057819572352574 0.4400759365073674 380.18264288681297 0.0
1177.0432518365385 102.45137152250894 3.347103958462833 0.43909693491380697 382.2641765278808 0.0
1193.3468120890852 109.6020875179236 3.3896332162234435 0.4381160837946969 384.38684656688184 0.0
1210.20679105571 116.98030551287381 3.4333716622357127 0.43713500868474897 386.54960838431725 0.0
1227.63616947868 124.59060758384297 3.4783363364400364 0.4361548166230689 388.75217980057613 0.0
1245.6480406457106 132.4376067466006 3.524544238308083 0.4351600973240175 390.99427615507426 0.0
1264.2639661527721 140.52895267482495 3.5720243830633884 0.43411448557910237 393.27543963785325 0.0
1283.5189199920767 148.87721250316193 3.6208263453175142 0.4330819064496638 395.59516773161965 0.0
1303.3975164932306 157.47637388583598 3.670920118630146 0.4321042452031252 397.95311125729603 0.0
1323.910829653612 166.33010949143406 3.722316333924148 0.43113252284101833 400.3486982341418 0.0
1345.0679939039526 175.44124842988555 3.7750205995067247 0.43009096132747215 402.78113502043635 0.0
1366.9407772014606 184.83610068419173 3.8291422266058177 0.4290403126557183 405.2503908250171 0.0
1389.497462176946 194.50261156009367 3.8846252209387506 0.4280730459529818 407.7560864453435 0.0
1412.7397187545125 204.44073884158098 3.9414614829690984 0.4270664907235471 410.2972643916196 0.0
1436.722976549131 214.67025993817708 3.999726554604046 0.42602661295032007 412.8731075256692 0.0
1461.4559879679953 225.19440305256344 4.059432978664595 0.42504990810389387 415.48395412590855 0.0
1486.921741987495 236.0065563635449 4.120548134572874 0.42404051288235056 418.12942481666244 0.0
1513.1981649195689 247.13429993524315 4.183174328737117 0.4230162037430514 420.80808286670407 0.0
1540.2446516011228 258.5622742571826 4.247241463272421 0.422048545594536 423.519388423576 0.0
1568.1013511049741 270.30531661053317 4.312810965659124 0.42104007652796316 426.263926491692 0.0
1596.821136537204 282.3823447639826 4.379954328475287 0.4200642531530825 429.04133904117657 0.0
1626.341612005197 294.76924052430286 4.448556867243134 0.4190728940404185 431.84962364736657 0.0
1656.7809309994582 307.5088790335953 4.518788403092781 0.41809506732113544 434.68879187402194 0.0
1688.059870323875 320.57260671359654 4.590534249436688 0.41712239690713027 437.55954505588323 0.0
1720.3224842240586 334.0124246909352 4.663996607116364 0.4161495470222931 440.4615602408136 0.0
1753.4393595464999 347.7795139672394 4.73895837517487 0.41519390951171165 443.39219174670734 0.0
1787.5684163842845 361.93146091013693 4.81564939039657 0.41422853795717884 446.35224304333093 0.0
1822.6321981249346 376.44034511773003 4.893959533495653 0.41329272708213427 449.3424024244641 0.0
1858.7450916281985 391.34721372599273 4.974043666170762 0.4123382874072652 452.3623894048231 0.0
1895.8328537441232 406.6228949344224 5.055758371764116 0.411422146224786 455.4088468583903 0.0
1933.9653407014334 422.2935214025415 5.13921391240324 0.41048288495597696 458.48357591050296 0.0
1973.2036724895474 438.38123896738574 5.2244945870521455 0.4095739677814718 461.5871295346198 0.0
2013.5094994802705 454.87181609557484 5.31153881717017 0.40866178388763963 464.7192724425523 0.0
2054.9473350573076 471.7856605232514 5.400387790042631 0.4077402888043178 467.87587687666405 0.0
2097.521847087143 489.1260356187442 5.491070876156404 0.4068736589798734 471.0599151315838 0.0
2141.2508294460417 506.89929361903705 5.583609423506244 0.405974870151093 474.2716930347005 0.0
2186.258345114524 525.1496141370372 5.6781622045326765 0.40507545169951253 477.5110201023164 0.0
2232.4226893184205 543.8297928800276 5.774505730565363 0.40423135413485856 480.77294680996494 0.0
2279.8319852187306 562.9739691418977 5.872796746808701 0.4033677208573172 484.06176219100337 0.0
2328.581643211416 582.6160183986725 5.973154067054324 0.40249559329514817 487.37742484726095 0.0
2378.66985333826 602.754632802093 6.0755614425402396 0.4016575354406742 490.71942709513365 0.0
2430.031570822022 623.3631005242005 6.179873862651605 0.4008395373198512 494.0830324628434 0.0
2482.7739314321066 644.4825376205897 6.286275109844319 0.4000029003161609 497.47289006040484 0.0
2536.9962107299293 666.1479954426283 6.394883948803389 0.3991666777708449 500.8888825459008 0.0
2592.672273322588 688.3491127549479 6.505646057657006 0.3983630846920967 504.3299917615031 0.0
2649.7605675194663 711.0680310062945 6.618453977908739 0.3975726382198719 507.7922253856572 0.0
2708.374680665435 734.3480229180362 6.733496410863025 0.3967885399792408 511.2801267663313 0.0
2768.55514843535 758.2031361907934 6.850814858077437 0.39599429544846476 514.7936148893198 0.0
2830.3685506692555 782.6555798954812 6.970464263379224 0.395205430320992 518.3310928584808 0.0
2893.7536485119604 807.6810555519301 7.092321067861423 0.39444330562947005 521.8894715714698 0.0
2958.8216581694696 833.3217758219072 7.216566320993454 0.39369069477765795 525.4730848306887 0.0
3025.61650862059 859.5929430797412 7.343243846378627 0.39294521039013386 529.0818842067226 0.0
3094.141218868648 886.4936662182678 7.472319552382399 0.3922075043926512 532.7136335653959 0.0
3164.399911467732 914.0235632802733 7.603762477685931 0.3914780352225682 536.3662857953279 0.0
3236.515204494733 942.2286069787464 7.737761748770586 0.3907559976694541 540.0438741161018 0.0
3310.534838478428 971.1252947119098 7.874363750560949 0.3900373645971742 543.7463790946406 0.0
3386.465122851417 1000.7133045242641 8.013526661239368 0.3893255883781803 547.4708712870953 0.0
3464.32200579 1030.9972170375638 8.155246285350843 0.3886276796047854 551.216467733508 0.0
3544.219626959138 1062.0196601278883 8.299694417976585 0.3879399285388532 554.9868210458568 0.0
3626.209593473115 1093.79844539818 8.446919997361226 0.3872598577751294 558.781937487146 0.0
3710.262955173797 1126.320181233656 8.596827375728907 0.38658816527159434 562.5981454122898 0.0
3796.437196085647 1159.6050064037822 8.749476344912349 0.38592488070542785 566.4358348263322 0.0
3884.8561688266864 1193.698566463601 8.90504165358035 0.3852694459714323 570.2982070044372 0.0
3975.575809584193 1228.6201419540319 9.063575034295699 0.38462177016372134 574.1852909518561 0.0
4068.5456457120126 1264.348090464287 9.224942656944533 0.38398260081623814 578.0926279967849 0.0
4163.859879589403 1300.916460223142 9.389263203273735 0.38335171814315583 582.021979385741 0.0
4261.639896902576 1338.3695576374837 9.556698763732268 0.38272866713450515 585.9760320290837 0.0
4361.946243477202 1376.728226204287 9.727303981915627 0.38211026272028636 589.9548350790684 0.0
4464.722979841451 1415.9681627830416 9.900923755834944 0.38149748497724456 593.9531011119569 0.0
4570.108061132155 1456.1398493339655 10.077744266472386 0.3808950467459207 597.9740527294582 0.0
4678.205252932989 1497.2808854346983 10.257896917553257 0.38030237584263027 602.019805726412 0.0
4789.080258959584 1539.4138609835575 10.441439526199817 0.3797174329624369 606.0904271513187 0.0
4902.625512796988 1582.4956201256232 10.628144607638609 0.3791409964209276 610.1797613821134 0.0
5019.033910134955 1626.5970782293118 10.818279725876298 0.3785723168291213 614.2925763096104 0.0
5138.413895098126 1671.756895838969 11.01196918860626 0.37801120520783194 618.4303648993331 0.0
5260.836393023538 1717.9994306701249 11.20927396543725 0.3774544921772467 622.5932101621104 0.0
5386.185335273876 1765.2777127554984 11.409939715824896 0.37689883544057423 626.7740504200112 0.0
5514.75637942715 1813.6997859922396 11.614365121121649 0.37635290211590977 630.9792782513232 0.0
5646.588186513659 1863.2793357181076 11.822587537545589 0.3758211299829197 635.2097160524316 0.0
5781.757513578588 1914.0426915986832 12.03467136503986 0.3752864915885219 639.4654611461091 0.0
