e[MeV/fm^3], P[MeV/fm^3], rho[fm^-3], v2[1], mu_q[MeV], mu_e[MeV]
70.21755168181654 0.006206087273093519 0.07407856508846018 0.017597877650005332 316.5185077347417 89.2771661002368
71.43578994790998 0.027644495228360377 0.07535555647246353 0.0175978776500052 316.5894798429086 89.8124074562691
72.67502861766434 0.04945246571785267 0.07665456106626496 0.017597877650005228 316.6616753923034 90.35687548400062
73.93562970314778 0.07163636938565421 0.07797595834102777 0.01759787765000538 316.7351154730202 90.91072923592193
75.21796145691394 0.09420268669514797 0.07932013430936638 0.01759787765000533 316.8098215387112 91.47413050632369
76.5223984795798 0.11715800982215896 0.0806874816381126 0.01759787765000522 316.8858154128541 92.04724387856187
77.84932182925448 0.14050904458066893 0.08207839976302188 0.017597877650005325 316.96311929512683 92.630236773136
79.19911913285509 0.16426261238173973 0.08349329500545777 0.017597877650005436 317.0417557678931 93.22327949659658
80.57218469934486 0.18842565222626206 0.08493258069109116 0.017597877650005332 317.12174780279906 93.82654529129692
81.96891963491473 0.21300522273190858 0.08639667727063695 0.017597877650005284 317.20311876748366 94.44021038599915
83.38973196016327 0.23800850419525207 0.0878860124426853 0.017597877650005242 317.2858924324053 95.06445404735784
84.83503672928572 0.26344280068923775 0.08940102127863886 0.01759787765000527 317.37009297778565 95.69945863228664
86.3052561513196 0.28931554219685157 0.0909421463498059 0.01759787765000538 317.45574500067295 96.34540964122833
87.80081971348744 0.3156342867816875 0.09250983785669148 0.017597877650005325 317.54287352212793 97.00249577234631
89.32216430665855 0.3424067227958098 0.09410455376051008 0.01759787765000531 317.63150399453286 97.67090897664707
90.86973435297011 0.3696406711256137 0.09572675991696154 0.017597877650005242 317.7216623090265 98.3508445140514
92.44398193566516 0.39734408747669764 0.0973769302123309 0.017597877650005228 317.8133748030682 99.04250101043964
94.04536693114535 0.4255250646977123 0.09905554670190979 0.01759787765000531 317.90666826813106 99.74608051566989
95.67435714332068 0.45419183514462985 0.10076309975082554 0.017892055534992374 318.00156995752883 100.46178856260559
97.33169327479138 0.4843410207312542 0.10250008817728433 0.018775745774211428 318.10048622561175 101.18570399772256
99.01814146064449 0.5170082040359527 0.10426701939828847 0.020025246310001077 318.2058447860128 101.91428658825437
100.73429318912723 0.5525181669555139 0.1060644095778678 0.02129999675038627 318.31828524079526 102.64750316311726
102.48063871606901 0.5907964457966746 0.10789278377786223 0.022549781036994038 318.43751805132047 103.38670836290729
104.25774423592242 0.6320103592916358 0.10975267611130558 0.023887708108000116 318.5638120290785 104.13237516689382
106.06623539667063 0.676492214395437 0.11164462989845152 0.025339806313660923 318.697770868173 104.88465247088972
107.90674784282342 0.7245234535359056 0.11356919782549418 0.026726883379044414 318.8398212612412 105.64215664334085
109.77980899298537 0.7757858510810522 0.11552694210601787 0.028008654354195556 318.9889635986241 106.39548846211913
111.68603200563659 0.8304189676497289 0.11751843464523576 0.02941848660514751 319.1453310518051 107.14305877628786
113.62612253642692 0.8889903796251314 0.1195442572070575 0.0310000273545607 319.31003653378224 107.89037199216354
115.60075117782822 0.9518318179215621 0.1216050015840337 0.03259969837934959 319.4836179784206 108.6399435927219
117.61049319554543 1.0189345897359714 0.12370126977023699 0.03419210470702347 319.6659546827271 109.3941654142798
119.65602415051524 1.0905481505064962 0.12583367413711752 0.03592218882239359 319.8573917239201 110.15411877028433
121.73815641876267 1.1672766767204164 0.12800283761239192 0.03778190969818496 320.0588603075681 110.92020174565145
123.85759205422588 1.2493614886182018 0.1302093938620144 0.0396255479711905 320.27062777688235 111.69348487044105
126.01496433860267 1.3368161240061027 0.13245398747528928 0.041461386350795104 320.4925793312381 112.47517112638602
128.2110155783424 1.429932568241939 0.13473727415316794 0.04346252473119688 320.7250671173629 113.26594974297757
130.4466887956552 1.52951487508801 0.1370599208997976 0.045590760196347446 320.969220213987 114.06610244230104
132.72270298041246 1.6357091714792171 0.13942260621736857 0.04767926014436641 321.22510082538804 114.87651716166351
135.03976205186157 1.748593799706529 0.14182602030432198 0.04977029748745049 321.49267975935425 115.69799950047124
137.3986835249372 1.8685229353243933 0.14427086525697244 0.05206400529136951 321.77234677231564 116.53110782929468
139.80057355445675 1.9965668028217445 0.14675785527460983 0.05448295484632937 322.0654823434704 117.37614392238619
142.24614757531495 2.1327305435734982 0.1492877168681315 0.05683638595368079 322.37191652081754 118.23384218287305
144.73619757503982 2.2771938463603174 0.15186118907227755 0.059208520968313694 322.69174413674494 119.10477732777403
147.27162660197732 2.430390920319256 0.15447902366151722 0.0618292055008095 323.0254080857181 119.98940983187808
149.85374556019306 2.5937403356179334 0.15714198536966398 0.06457197399617759 323.3745941649684 120.88804723823948
152.4832372283129 2.7670401807274834 0.15985085211327107 0.06721882453614525 323.7388555425644 121.80124809303793
155.16100474728017 2.9506159576823916 0.1626064152188807 0.06990575565196155 324.1184454344821 122.72942464238325
157.8880490867394 3.1450019316856195 0.16540947965419006 0.07289593855263288 324.5138717435153 123.67293532678868
160.66593902373984 3.3520690822739376 0.16826086426320178 0.07600220080988451 324.92718571735776 124.63202719571277
163.4952840125817 3.5713158744339593 0.17116140200542868 0.07897532922519734 325.3576004812541 125.6070903482084
166.37712853614147 3.8032695276021222 0.17411194019922174 0.08202037368123771 325.8055622707938 126.59840218489457
169.31260061973967 4.048620249866702 0.17711334076929286 0.08542133552471287 326.2716886567447 127.60620334892384
172.303551331823 4.309718566586897 0.18016648049850292 0.0889270452590527 326.7583492276527 128.63058410314463
175.35050383107742 4.585737524453315 0.1832722512839939 0.09226446929582366 327.26444376458807 129.67181814230588
178.45466868853612 4.877441713994387 0.18643156039773165 0.09572802473872655 327.7906096931573 130.73004905217363
181.61738960046912 5.18586172672753 0.18964533075154347 0.09956214286511778 328.3377308078966 131.80536363429957
184.84067158507494 5.5134958934314255 0.19291450116672415 0.10348029397253222 328.90808973361146 132.89762523650757
188.12508868773136 5.859506730761704 0.19624002664828616 0.10723125726635341 329.50063467169656 134.00704679883177
191.47199658539387 6.224818666062787 0.19962287866394354 0.11114950466071183 330.116072530961 135.1336328978941
194.88301649425165 6.610906017540677 0.2030640454278977 0.11544544815415358 330.7555888744374 136.2772622126371
198.3602890613904 7.020342674256472 0.2065645321895225 0.11979382346787826 331.42129567013734 137.43754067535426
201.9044613376726 7.452308308070558 0.2101253615270204 0.12397650239191993 332.11220306471756 138.61467605675114
205.5170562570145 7.907903230714149 0.21374757364614289 0.1283699626450635 332.8290718474655 139.80852765902867
209.2000509218192 8.389163756231573 0.21743222668406043 0.1331367755092301 333.57341318817043 141.01869117551004
212.95568685700158 8.89862029273525 0.22118039701847075 0.1379109881763032 334.34705688852574 142.2445530860434
216.7847142491265 9.435507109353031 0.224993179582034 0.1425209986125906 335.149090910276 143.4863497980139
220.6888478651131 10.001107919216421 0.22887168818223044 0.1473848211915132 335.9803024130194 144.74379875149575
224.67051841244387 10.598148441577159 0.23281705582673115 0.15260238957125072 336.84253077264475 146.0161250814302
228.73201076449018 11.228941923303356 0.23683043505437643 0.1577674592771845 337.73719306437926 147.30260528428684
232.87421847820065 11.892825884399452 0.2409129982718618 0.16276966708385543 338.6634726746745 148.60351662363965
237.09907459677976 12.591262929879372 0.2450659380962259 0.1680647442175771 339.6221443059857 149.91845083271977
241.4095830266287 13.327795359770137 0.24929046770324403 0.17367604335428166 340.61534675451054 151.2461733723472
245.80798450797525 14.104290408314728 0.25358782118182577 0.17916063314688135 341.6439533067965 152.5860269646372
250.29536865638684 14.920249387540146 0.2579592538945237 0.18448376658109078 342.70726027181 153.9383214680799
254.87391430339358 15.777295306389933 0.26240604284425445 0.19013115054428797 343.8059831368225 155.30255316107613
259.54734193097937 16.679902122692877 0.2669294870473437 0.19603884001981875 344.9424917462097 156.67695034502995
264.3177234138911 17.62921742422393 0.2715309079130002 0.20173455319505607 346.11701155796936 158.06114921462316
269.1864120746621 18.624978432827973 0.2762116496293318 0.20727097595137622 347.328966229596 159.45546560193614
274.15586021544175 19.66893704821644 0.28097307955601647 0.2131521958171756 348.57896372915343 160.8593430130801
279.2306731431928 20.76658998854091 0.28581658862374093 0.21922189252154145 349.86949367684684 162.27041922778363
284.412585417037 21.918069468750467 0.29074359174052566 0.2249894143101847 351.2000887836266 163.68887481305947
289.7032992122702 23.123430865940225 0.29575552820505524 0.2306016920899494 352.5703075794808 165.1149897852477
295.1055673860831 24.38451504681977 0.300853862127132 0.23656661428271297 353.98060905644974 166.5482047162215
300.6250734626658 25.70790002720107 0.3060400828553784 0.24263779812409947 355.4334521442952 167.985546141962
306.2629978571605 27.092417065261266 0.3113157054123131 0.24831998114039466 356.9277197298895 169.42797804232237
312.0214966673664 28.538529352055203 0.3166822709369256 0.2538541104542591 358.4631014669581 170.8756920374787
317.9036494111742 30.048126085066315 0.3221413471348811 0.2597359108053192 360.03988091456415 172.3281747479247
323.9164360611114 31.628890065835524 0.32769452873648597 0.2656390932017807 361.66030746350987 173.78185544558517
330.06021547034334 33.278110584552124 0.3333434379625472 0.2710787578055842 363.3227610243933 175.23867305073648
336.3377248306841 34.996751726455315 0.3390897249982634 0.27638164452897485 365.0270429856405 176.69867300893014
342.75239563416363 36.78671837750218 0.3449350684752844 0.2820159576097043 366.7732551876847 178.16142771359964
349.3127469329602 38.65679115669434 0.35088117596208035 0.28809765186581515 368.5632457970251 179.62281308437977
357.83023991423505 41.13296850962542 0.35854731501227705 0.00222744927351836 370.39513942729127 184.25787472111008
936.9900204986534 44.22786812300296 2.129065114392361 0.008460100922921529 372.26881070045994 139.35925287659512
1507.1713178764342 50.80098402678981 3.912534248505863 0.017506982824026615 374.18425749083553 93.36178793466681
1947.4970526503896 60.54283727963061 5.336121070243656 0.5184086270879242 376.1425479489815 45.006951343890385
1967.356729417808 71.28279490151206 5.391142268963987 0.6209844806886893 378.1420680020603 9.640103160782598
1983.4588561436626 82.32891838257905 5.4336325959467136 0.6859681197996395 380.18264288681297 0.0
2000.0161066555181 93.6860533697161 5.477062192564398 0.6850317586788863 382.2641765278808 0.0
2017.081533106297 105.36059171922825 5.521580267378862 0.6831966418500506 384.38684656688184 0.0
2034.657803089049 117.35220240963241 5.567178383683749 0.6813460386776118 386.54960838431725 0.0
2052.753688682629 129.66470827122285 5.613863996238243 0.6794818646490981 388.75217980057613 0.0
2071.3779994337765 142.3019215234682 5.661644513173606 0.6775740245474506 390.99427615507426 0.0
2090.545475674074 155.270384296734 5.710532836394606 0.6755508682826581 393.27543963785325 0.0
2110.2807173358624 168.58149254436884 5.760553573484631 0.6735367175302351 395.59516773161965 0.0
2130.5707961060366 182.22784108709072 5.811685840603715 0.6716125130715573 397.95311125729603 0.0
2151.4221685680327 196.21152466686632 5.863930659270973 0.6696839899576865 400.3486982341418 0.0
2172.8392914281612 210.5332837295606 5.917284059489745 0.6675974930892314 402.78113502043635 0.0
2194.8749031845614 225.2190703379059 5.971810174537092 0.6654763366962815 405.2503908250171 0.0
2217.503833262921 240.25530011233693 6.027472531025364 0.6635054101549711 407.7560864453435 0.0
2240.724466486954 255.6393480321659 6.084257579146226 0.6614355344426661 410.2972643916196 0.0
2264.5751769572457 271.3885790813855 6.142202344367077 0.6592793193168625 412.8731075256692 0.0
2289.062471161288 287.50624518106457 6.2013173178589005 0.657236446724669 415.48395412590855 0.0
2314.1722118974644 303.9843366830718 6.261579798741899 0.6551043719451934 418.12942481666244 0.0
2339.957372884299 320.8461590228935 6.323036904874738 0.6529239614489049 420.80808286670407 0.0
2366.3860536031816 338.0746874117749 6.385642379640733 0.6508443880120112 423.519388423576 0.0
2393.4882593727125 355.6850129583153 6.449437782612112 0.6486574900228108 426.263926491692 0.0
2421.300811697044 373.69394865956576 6.514461960564505 0.646524266755991 429.04133904117657 0.0
2449.7724632774853 392.07280039314236 6.580628977064505 0.6443348086391794 431.84962364736657 0.0
2478.9881071865157 410.8621035083183 6.64803900944918 0.6421595511737248 434.68879187402194 0.0
2508.8912148902837 430.03512872988273 6.716630903071109 0.639972414710491 437.55954505588323 0.0
2539.584102636918 449.6399497424491 6.786520849362448 0.6377695176150358 440.4615602408136 0.0
2570.9657159276694 469.62299943963416 6.857556664272971 0.6355823165891357 443.39219174670734 0.0
2603.1507282924063 490.0398308147553 6.929881149014815 0.6333569254554137 446.35224304333093 0.0
2636.08428542091 510.86477974587956 7.003435721258416 0.6311775321396356 449.3424024244641 0.0
2669.8465598410344 532.1348032953772 7.078309065237586 0.6289373967352629 452.3623894048231 0.0
2704.374523730106 553.8134283528083 7.1543858963051346 0.6267671001617945 455.4088468583903 0.0
2739.721751399253 575.9284674047074 7.231747697732386 0.6245225160711501 458.48357591050296 0.0
2775.931995590392 598.5007086144403 7.310449212356798 0.6223325983989856 461.5871295346198 0.0
2812.97632597653 621.5154331138284 7.390451996269485 0.620113807106697 464.7192724425523 0.0
2850.888048891864 644.9799538034179 7.471742482748147 0.617854669970221 467.87587687666405 0.0
2889.677313735397 668.9035959768287 7.554365223140453 0.6157112297786558 471.0599151315838 0.0
2929.3564371614116 693.2919348709858 7.638335599775897 0.6134680593436848 474.2716930347005 0.0
2970.010880742547 718.1833611661834 7.723745425271089 0.6112058281529471 477.5110201023164 0.0
3011.5400117862746 743.5211360370365 7.810417634923064 0.6090638746736747 480.77294680996494 0.0
3054.0164998244186 769.3461241499558 7.8984839078219125 0.6068534116044919 484.06176219100337 0.0
3097.505624311208 795.6873460194113 7.988013876618868 0.6046031604517026 487.37742484726095 0.0
3142.0032451777683 822.5409571070444 8.078993311995776 0.6024225767129696 490.71942709513365 0.0
3187.449135258738 849.869312782081 8.171293346824758 0.6002764884849245 494.0830324628434 0.0
3233.929954499227 877.7201764879973 8.265064892840734 0.5980629275123199 497.47289006040484 0.0
3281.5127681969225 906.122769929988 8.36037685732377 0.5958330103457197 500.8888825459008 0.0
3330.17498159211 935.0637922671468 8.457187896639077 0.5936722165634158 504.3299917615031 0.0
3379.874665103507 964.5152708450534 8.555398093007078 0.591529631316897 507.7922253856572 0.0
3430.70230887656 994.5262684713226 8.655160287097585 0.5893873680746253 511.2801267663313 0.0
3482.6841396339114 1025.1074041298916 8.756498190840679 0.5871996637443502 514.7936148893198 0.0
3535.859487357074 1056.2718611890978 8.859429541605737 0.585010022530474 518.3310928584808 0.0
3590.175338638023 1087.988389959269 8.963853213663741 0.5828775619567779 521.8894715714698 0.0
3645.7196112790252 1120.304253239124 9.069915617871564 0.5807553179422769 525.4730848306887 0.0
3702.520633537502 1153.2308525019325 9.177642133070824 0.5786369731539409 529.0818842067226 0.0
3760.5719304236104 1186.759406573517 9.286992171880472 0.5765246822751244 532.7136335653959 0.0
3819.8682911111086 1220.8820483985965 9.397928724180709 0.5744200871316743 536.3662857953279 0.0
3880.5041802156725 1255.6480844093128 9.510600204887927 0.5723211965303356 540.0438741161018 0.0
3942.5102781555806 1291.0697854413058 9.625033767859295 0.5702163941870957 543.7463790946406 0.0
4005.879755272814 1327.1364114559358 9.741177915194585 0.5681162052756221 547.4708712870953 0.0
4070.6188078895107 1363.8474597855732 9.859022080149426 0.5660416424876757 551.216467733508 0.0
4136.814644513579 1401.2480052701248 9.97870097602259 0.5639822586696503 554.9868210458568 0.0
4204.50033396388 1439.3512032114197 10.100243496738086 0.5619311124733049 558.781937487146 0.0
4273.642529660028 1478.1328710725352 10.223559623486304 0.5598906740270717 562.5981454122898 0.0
4344.2793653458175 1517.609137828288 10.34868816338951 0.5578614156720736 566.4358348263322 0.0
4416.502819697599 1557.8259028986727 10.475761432832927 0.5558420039963927 570.2982070044372 0.0
4490.348625008357 1598.7972997800516 10.604810180739365 0.5538325221303779 574.1852909518561 0.0
4565.7660615294635 1640.4895921585849 10.735714674605314 0.5518356706771215 578.0926279967849 0.0
4642.822172414144 1682.9343799320202 10.868560992608009 0.5498511551812975 582.021979385741 0.0
4721.605233138117 1726.174523323416 11.003469277091593 0.5478779249841903 585.9760320290837 0.0
4802.1538070423985 1770.2251916714586 11.140472176967693 0.5459060961156261 589.9548350790684 0.0
4884.410303539594 1815.0474304351212 11.279429828097822 0.543939131583139 593.9531011119569 0.0
4968.4756028133625 1860.690580604578 11.420481478836273 0.5419924950769932 597.9740527294582 0.0
5054.423965546335 1907.1899175447097 11.563723953898384 0.5400647793948945 602.019805726412 0.0
5142.297112262891 1954.5617576099608 11.709191936227315 0.5381498330291503 606.0904271513187 0.0
5231.999863744101 2002.7488685771054 11.856694951213615 0.5362505931177868 610.1797613821134 0.0
5323.67470988021 2051.821869767853 12.00643436788986 0.5343649840620284 614.2925763096104 0.0
5417.39650041934 2101.8144933551876 12.158497120177692 0.5324927502149723 618.4303648993331 0.0
5513.2101514546 2152.7442161563463 12.312919894932657 0.5306235196826581 622.5932101621104 0.0
5611.0112069173065 2204.5472905856004 12.469488086929017 0.5287461726582148 626.7740504200112 0.0
5711.015240611848 2257.328747832732 12.62849521967668 0.5268904640182352 630.9792782513232 0.0
5813.248504476568 2311.1001240927253 12.789970843728778 0.5250717623650267 635.2097160524316 0.0
5917.759473056751 2365.8801803222423 12.953953798445003 0.5232403329819633 639.4654611461091 0.0
