e[MeV/fm^3], P[MeV/fm^3], rho[fm^-3], v2[1], mu_q[MeV], mu_e[MeV]
70.21755168181654 0.006206087273093519 0.07407856508846018 0.017597877650005332 316.5185077347417 89.2771661002368
71.43578994790998 0.027644495228360377 0.07535555647246353 0.0175978776500052 316.5894798429086 89.8124074562691
72.67502861766434 0.04945246571785267 0.07665456106626496 0.017597877650005228 316.6616753923034 90.35687548400062
73.93562970314778 0.07163636938565421 0.07797595834102777 0.01759787765000538 316.7351154730202 90.91072923592193
75.21796145691394 0.09420268669514797 0.07932013430936638 0.01759787765000533 316.8098215387112 91.47413050632369
76.5223984795798 0.11715800982215896 0.0806874816381126 0.01759787765000522 316.8858154128541 92.04724387856187
77.84932182925448 0.14050904458066893 0.08207839976302188 0.017597877650005325 316.96311929512683 92.630236773136
79.19911913285509 0.16426261238173973 0.08349329500545777 0.017597877650005436 317.0417557678931 93.22327949659658
80.57218469934486 0.18842565222626206 0.08493258069109116 0.017597877650005332 317.12174780279906 93.82654529129692
81.96891963491473 0.21300522273190858 0.08639667727063695 0.017597877650005284 317.20311876748366 94.44021038599915
83.38973196016327 0.23800850419525207 0.0878860124426853 0.017597877650005242 317.2858924324053 95.06445404735784
84.83503672928572 0.26344280068923775 0.08940102127863886 0.01759787765000527 317.37009297778565 95.69945863228664
86.3052561513196 0.28931554219685157 0.0909421463498059 0.01759787765000538 317.45574500067295 96.34540964122833
87.80081971348744 0.3156342867816875 0.09250983785669148 0.017597877650005325 317.54287352212793 97.00249577234631
89.32216430665855 0.3424067227958098 0.09410455376051008 0.01759787765000531 317.63150399453286 97.67090897664707
90.86973435297011 0.3696406711256137 0.09572675991696154 0.017597877650005242 317.7216623090265 98.3508445140514
92.44398193566516 0.39734408747669764 0.0973769302123309 0.017597877650005228 317.8133748030682 99.04250101043964
94.04536693114535 0.4255250646977123 0.09905554670190979 0.01759787765000531 317.90666826813106 99.74608051566989
95.67435714332068 0.45419183514462985 0.10076309975082554 0.017892055534992374 318.00156995752883 100.46178856260559
97.33169327479138 0.4843410207312542 0.10250008817728433 0.018775745774211428 318.10048622561175 101.18570399772256
99.01814146064449 0.5170082040359527 0.10426701939828847 0.020025246310001077 318.2058447860128 101.91428658825437
100.73429318912723 0.5525181669555139 0.1060644095778678 0.02129999675038627 318.31828524079526 102.64750316311726
102.48063871606901 0.5907964457966746 0.10789278377786223 0.022549781036994038 318.43751805132047 103.38670836290729
104.25774423592242 0.6320103592916358 0.10975267611130558 0.023887708108000116 318.5638120290785 104.13237516689382
106.06623539667063 0.676492214395437 0.11164462989845152 0.025339806313660923 318.697770868173 104.88465247088972
107.90674784282342 0.7245234535359056 0.11356919782549418 0.026726883379044414 318.8398212612412 105.64215664334085
109.77980899298537 0.7757858510810522 0.11552694210601787 0.028008654354195556 318.9889635986241 106.39548846211913
111.68603200563659 0.8304189676497289 0.11751843464523576 0.02941848660514751 319.1453310518051 107.14305877628786
113.62612253642692 0.8889903796251314 0.1195442572070575 0.0310000273545607 319.31003653378224 107.89037199216354
115.60075117782822 0.9518318179215621 0.1216050015840337 0.03259969837934959 319.4836179784206 108.6399435927219
117.61049319554543 1.0189345897359714 0.12370126977023699 0.03419210470702347 319.6659546827271 109.3941654142798
119.65602415051524 1.0905481505064962 0.12583367413711752 0.03592218882239359 319.8573917239201 110.15411877028433
121.73815641876267 1.1672766767204164 0.12800283761239192 0.03778190969818496 320.0588603075681 110.92020174565145
123.85759205422588 1.2493614886182018 0.1302093938620144 0.0396255479711905 320.27062777688235 111.69348487044105
126.01496433860267 1.3368161240061027 0.13245398747528928 0.041461386350795104 320.4925793312381 112.47517112638602
128.2110155783424 1.429932568241939 0.13473727415316794 0.04346252473119688 320.7250671173629 113.26594974297757
130.4466887956552 1.52951487508801 0.1370599208997976 0.045590760196347446 320.969220213987 114.06610244230104
132.72270298041246 1.6357091714792171 0.13942260621736857 0.04767926014436641 321.22510082538804 114.87651716166351
135.03976205186157 1.748593799706529 0.14182602030432198 0.04977029748745049 321.49267975935425 115.69799950047124
137.3986835249372 1.8685229353243933 0.14427086525697244 0.05206400529136951 321.77234677231564 116.53110782929468
139.80057355445675 1.9965668028217445 0.14675785527460983 0.05448295484632937 322.0654823434704 117.37614392238619
142.24614757531495 2.1327305435734982 0.1492877168681315 0.05683638595368079 322.37191652081754 118.23384218287305
144.73619757503982 2.2771938463603174 0.15186118907227755 0.059208520968313694 322.69174413674494 119.10477732777403
147.27162660197732 2.430390920319256 0.15447902366151722 0.0618292055008095 323.0254080857181 119.98940983187808
149.85374556019306 2.5937403356179334 0.15714198536966398 0.06457197399617759 323.3745941649684 120.88804723823948
152.4832372283129 2.7670401807274834 0.15985085211327107 0.06721882453614525 323.7388555425644 121.80124809303793
155.16100474728017 2.9506159576823916 0.1626064152188807 0.06990575565196155 324.1184454344821 122.72942464238325
157.8880490867394 3.1450019316856195 0.16540947965419006 0.07289593855263288 324.5138717435153 123.67293532678868
160.66593902373984 3.3520690822739376 0.16826086426320178 0.07600220080988451 324.92718571735776 124.63202719571277
163.4952840125817 3.5713158744339593 0.17116140200542868 0.07897532922519734 325.3576004812541 125.6070903482084
166.37712853614147 3.8032695276021222 0.17411194019922174 0.08202037368123771 325.8055622707938 126.59840218489457
169.31260061973967 4.048620249866702 0.17711334076929286 0.08542133552471287 326.2716886567447 127.60620334892384
172.303551331823 4.309718566586897 0.18016648049850292 0.0889270452590527 326.7583492276527 128.63058410314463
175.35050383107742 4.585737524453315 0.1832722512839939 0.09226446929582366 327.26444376458807 129.67181814230588
178.45466868853612 4.877441713994387 0.18643156039773165 0.09572802473872655 327.7906096931573 130.73004905217363
181.61738960046912 5.18586172672753 0.18964533075154347 0.09956214286511778 328.3377308078966 131.80536363429957
184.84067158507494 5.5134958934314255 0.19291450116672415 0.10348029397253222 328.90808973361146 132.89762523650757
188.12508868773136 5.859506730761704 0.19624002664828616 0.10723125726635341 329.50063467169656 134.00704679883177
191.47199658539387 6.224818666062787 0.19962287866394354 0.11114950466071183 330.116072530961 135.1336328978941
194.88301649425165 6.610906017540677 0.2030640454278977 0.11544544815415358 330.7555888744374 136.2772622126371
198.3602890613904 7.020342674256472 0.2065645321895225 0.11979382346787826 331.42129567013734 137.43754067535426
201.9044613376726 7.452308308070558 0.2101253615270204 0.12397650239191993 332.11220306471756 138.61467605675114
205.5170562570145 7.907903230714149 0.21374757364614289 0.1283699626450635 332.8290718474655 139.80852765902867
209.2000509218192 8.389163756231573 0.21743222668406043 0.1331367755092301 333.57341318817043 141.01869117551004
212.95568685700158 8.89862029273525 0.22118039701847075 0.1379109881763032 334.34705688852574 142.2445530860434
216.7847142491265 9.435507109353031 0.224993179582034 0.1425209986125906 335.149090910276 143.4863497980139
220.6888478651131 10.001107919216421 0.22887168818223044 0.1473848211915132 335.9803024130194 144.74379875149575
224.67051841244387 10.598148441577159 0.23281705582673115 0.15260238957125072 336.84253077264475 146.0161250814302
228.73201076449018 11.228941923303356 0.23683043505437643 0.1577674592771845 337.73719306437926 147.30260528428684
232.87421847820065 11.892825884399452 0.2409129982718618 0.16276966708385543 338.6634726746745 148.60351662363965
237.09907459677976 12.591262929879372 0.2450659380962259 0.1680647442175771 339.6221443059857 149.91845083271977
241.4095830266287 13.327795359770137 0.24929046770324403 0.17367604335428166 340.61534675451054 151.2461733723472
245.80798450797525 14.104290408314728 0.25358782118182577 0.17916063314688135 341.6439533067965 152.5860269646372
250.29536865638684 14.920249387540146 0.2579592538945237 0.18448376658109078 342.70726027181 153.9383214680799
254.87391430339358 15.777295306389933 0.26240604284425445 0.19013115054428797 343.8059831368225 155.30255316107613
259.54734193097937 16.679902122692877 0.2669294870473437 0.19603884001981875 344.9424917462097 156.67695034502995
264.3177234138911 17.62921742422393 0.2715309079130002 0.20173455319505607 346.11701155796936 158.06114921462316
269.1864120746621 18.624978432827973 0.2762116496293318 0.20727097595137622 347.328966229596 159.45546560193614
274.15586021544175 19.66893704821644 0.28097307955601647 0.2131521958171756 348.57896372915343 160.8593430130801
279.2306731431928 20.76658998854091 0.28581658862374093 0.21922189252154145 349.86949367684684 162.27041922778363
284.412585417037 21.918069468750467 0.29074359174052566 0.2249894143101847 351.2000887836266 163.68887481305947
289.7032992122702 23.123430865940225 0.29575552820505524 0.2306016920899494 352.5703075794808 165.1149897852477
295.1055673860831 24.38451504681977 0.300853862127132 0.23656661428271297 353.98060905644974 166.5482047162215
300.6250734626658 25.70790002720107 0.3060400828553784 0.24263779812409947 355.4334521442952 167.985546141962
306.2629978571605 27.092417065261266 0.3113157054123131 0.24831998114039466 356.9277197298895 169.42797804232237
312.0214966673664 28.538529352055203 0.3166822709369256 0.2538541104542591 358.4631014669581 170.8756920374787
317.9036494111742 30.048126085066315 0.3221413471348811 0.2597359108053192 360.03988091456415 172.3281747479247
323.9164360611114 31.628890065835524 0.32769452873648597 0.2656390932017807 361.66030746350987 173.78185544558517
330.06021547034334 33.278110584552124 0.3333434379625472 0.2710787578055842 363.3227610243933 175.23867305073648
336.3377248306841 34.996751726455315 0.3390897249982634 0.27638164452897485 365.0270429856405 176.69867300893014
342.75239563416363 36.78671837750218 0.3449350684752844 0.2820159576097043 366.7732551876847 178.16142771359964
349.3127469329602 38.65679115669434 0.35088117596208035 0.28759239956345484 368.5632457970251 657.9369942930184
356.0179982424811 40.60254779373834 0.3569297844627652 0.2926507180164095 370.39513942729127 619.1015582936554
362.87161894726887 42.62554485678177 0.3630826609245175 0.2976058496429581 372.26881070045994 579.3804524331507
369.8776838050342 44.72802159039085 0.3693416027537498 0.3028324596598386 374.18425749083553 538.7737217754277
377.04571989459646 46.91882012835673 0.3757084383411748 0.30793255850782497 376.1425479489815 497.25872194192755
384.37423920137996 49.19272886637786 0.3821850275959231 0.3125215544923945 378.1420680020603 454.8696706521415
391.8673537720589 51.551645656583794 0.38877326248886857 0.31704011341831206 380.18264288681297 411.6102728195249
399.53022857376277 53.998550771733285 0.3954750676053199 0.32173794710659864 382.2641765278808 367.4825652045006
407.3724291860139 56.54109433027862 0.4022924007072386 0.3262560177033471 384.38684656688184 322.482781873515
415.3926093188036 59.174483419942426 0.40922725330514964 0.33043474137261875 386.54960838431725 276.6330683556646
430.9711654715477 64.38001311153575 0.4226013333603363 0.0023440531606579024 388.75217980057613 229.93940674949394
618.5362014278651 65.05470382504119 0.969065377288709 0.004850152412523387 390.99427615507426 182.40783174922177
1254.8179413294633 70.8454436093417 2.8329360267186923 0.01296757926457913 393.27543963785325 134.7349769856144
1843.4090630552453 80.58335305558624 4.61073270397878 0.02444937775029163 395.59516773161965 86.23573894432528
2276.962687458388 93.707940985331 5.955329650135167 0.5170439170553092 397.95311125729603 36.5850074787029
2303.2329799477743 108.06567657519223 6.022926425222635 0.5845495368261795 400.3486982341418 4.789272569081666
2327.0068774281117 122.78048681228317 6.082173987136182 0.6183641547853775 402.78113502043635 0.0
2351.451175027436 137.8812859384248 6.142659550171629 0.6168065600209824 405.2503908250171 0.0
2376.5753600075805 153.35333247707246 6.204458944523916 0.6148836017435038 407.7560864453435 0.0
2402.3783895330057 169.19430262162584 6.2675583639183 0.6128678538442145 410.2972643916196 0.0
2428.9067975715166 185.42404190938078 6.332007752082444 0.6107715624186194 412.8731075256692 0.0
2456.1683269735513 202.04615707298962 6.397819235227455 0.6087889754635385 415.48395412590855 0.0
2484.146614727233 219.05206993757525 6.464965325783251 0.6067239793512025 418.12942481666244 0.0
2512.9062211138007 236.46865289409604 6.533510993357178 0.6046155271768807 420.80808286670407 0.0
2542.409714787369 254.27737357622684 6.603399396561403 0.6026085417243223 423.519388423576 0.0
2572.6927518854113 272.49493877225507 6.6746812527419905 0.6005019159858316 426.263926491692 0.0
2603.7999124616813 291.1405095267003 6.74740718782167 0.5984504307365084 429.04133904117657 0.0
2635.671711906949 310.1832575721735 6.821475153929406 0.5963493574734935 431.84962364736657 0.0
2668.410073461244 329.66875215160263 6.897012376733732 0.5942650678884922 434.68879187402194 0.0
2701.947004395874 349.566856010867 6.973938672107162 0.5921741244617396 437.55954505588323 0.0
2736.405724241888 369.9318771376149 7.0524028009742405 0.5900712139817292 440.4615602408136 0.0
2771.667476466255 390.70539441368055 7.132220841995542 0.5879880178300141 443.39219174670734 0.0
2807.869554886824 411.9495898641938 7.213571354757989 0.5858716726322326 446.35224304333093 0.0
2844.945847639408 433.63543371133295 7.296377468402142 0.5838035850718812 449.3424024244641 0.0
2882.9932524772357 455.80492070393257 7.380752848812912 0.5816813920294308 452.3623894048231 0.0
2921.939181211402 478.41920622280094 7.466562982753552 0.5796294571316123 455.4088468583903 0.0
2961.8468795644926 501.5088018724014 7.553904981676128 0.5775112794113566 458.48357591050296 0.0
3002.76892997069 525.0971124914661 7.642846426865815 0.5754483428440631 461.5871295346198 0.0
3044.671037064411 549.1678976064368 7.733339316966498 0.5733625223192824 464.7192724425523 0.0
3087.59734329087 573.7322847827473 7.825381106512249 0.571242407500824 467.87587687666405 0.0
3131.557871448555 598.7992421467608 7.919017820376485 0.5692347427769047 471.0599151315838 0.0
3176.567558867652 624.3751408928117 8.01426791426424 0.5671378330751509 474.2716930347005 0.0
3222.7301840436603 650.5039570062664 8.11124871081699 0.5650267127186117 477.5110201023164 0.0
3269.92912503102 677.1248448354571 8.209752874706005 0.5630317389417563 480.77294680996494 0.0
3318.24865310764 704.2816580246435 8.309932435494094 0.5609768822275516 484.06176219100337 0.0
3367.768187110001 732.0077485797966 8.411876007358636 0.5588887804700002 487.37742484726095 0.0
3418.48366134613 760.2994265581527 8.515567321406863 0.5568691145687206 490.71942709513365 0.0
3470.327062533841 789.117379108926 8.620859516329459 0.5548850820800313 494.0830324628434 0.0
3523.3993542980757 818.5131415088061 8.727927774655978 0.5528425436430009 497.47289006040484 0.0
3577.7824156078923 848.5205124399928 8.8368600600365 0.5507885521695659 500.8888825459008 0.0
3633.4503346737943 879.1253893002938 8.94760747262085 0.5488019682782426 504.3299917615031 0.0
3690.3566153883526 910.299016022595 9.060057281656883 0.5468357121248006 507.7922253856572 0.0
3748.607076593961 942.0945678015823 9.174387496978763 0.5448732897173558 511.2801267663313 0.0
3808.2341305112955 974.524626749182 9.290628534011931 0.5428729597232813 514.7936148893198 0.0
3869.287707945958 1007.6059071329154 9.40880861355003 0.5408743766269781 518.3310928584808 0.0
3931.7070304535123 1041.3052869922928 9.528810255382234 0.5389315696190264 521.8894715714698 0.0
3995.5951052119954 1075.6741114383371 9.650804046482481 0.5370015256350964 525.4730848306887 0.0
4060.9869749327527 1110.725917041868 9.774822404250525 0.5350784433302538 529.0818842067226 0.0
4127.877619137888 1146.4527572395293 9.900821724808178 0.5331642454825349 532.7136335653959 0.0
4196.263385099567 1182.8476080627502 10.028762276299235 0.5312603804741638 536.3662857953279 0.0
4266.2556644516835 1219.9644783166252 10.158818261932298 0.5293650064240811 540.0438741161018 0.0
4337.8924472000635 1257.8179677916532 10.291024251192262 0.5274676436601702 543.7463790946406 0.0
4411.169153085404 1296.3985333044877 10.425325246818907 0.525577720887231 547.4708712870953 0.0
4486.094898429872 1335.7067810739109 10.561710968868875 0.5237141059916084 551.216467733508 0.0
4562.7727338712375 1375.7922222746959 10.700339567841615 0.5218673191311982 554.9868210458568 0.0
4641.243641263842 1416.6705376396815 10.84124773260744 0.520031061180541 558.781937487146 0.0
4721.471580018431 1458.317336269039 10.98433416776252 0.5182074919728876 562.5981454122898 0.0
4803.5033448989625 1500.7514540248592 11.129646790744422 0.5163969778730841 566.4358348263322 0.0
4887.4484173125375 1544.0238207720492 11.277342313665 0.5145982745287974 570.2982070044372 0.0
4973.351119459628 1588.1513162841297 11.427459701317042 0.5128114029693673 574.1852909518561 0.0
5061.155160071085 1633.0992351292457 11.57986270918392 0.5110387071092131 578.0926279967849 0.0
5150.941238831886 1678.903241470388 11.734654430685866 0.5092798650800088 582.021979385741 0.0
5242.815005998182 1725.611278591467 11.891977942186825 0.5075338870615074 585.9760320290837 0.0
5336.824336147119 1773.2414976825812 12.051874550786987 0.5057920063117596 589.9548350790684 0.0
5432.905626103961 1821.753982609473 12.214185385464747 0.504057231285449 593.9531011119569 0.0
5531.1794371227625 1871.2038059436459 12.379075889670416 0.5023431495120185 597.9740527294582 0.0
5631.735024348989 1921.6306862681417 12.54666154810521 0.5006484481962623 602.019805726412 0.0
5734.624227907165 1973.0541862472085 12.7169861884931 0.49896763629453034 606.0904271513187 0.0
5839.738471821846 2025.4139535644879 12.889829730141244 0.4973032277554399 610.1797613821134 0.0
5947.247595736306 2078.7885046666975 13.06543103929309 0.49565333799728784 614.2925763096104 0.0
6057.242445257276 2133.2164406533984 13.243895251982751 0.4940176819430864 618.4303648993331 0.0
6169.778874499104 2188.7187524312844 13.425268685158498 0.4923871727075717 622.5932101621104 0.0
6284.73817855821 2245.228468931718 13.609303826173834 0.490752106406692 626.7740504200112 0.0
6402.37818397379 2302.862956415003 13.796350839856121 0.4891383128998008 630.9792782513232 0.0
6522.7308968240495 2361.635521942751 13.986444343638091 0.48755911321767975 635.2097160524316 0.0
6645.856644953954 2421.5687404847613 14.179633338360267 0.4859694858333867 639.4654611461091 0.0
