e[MeV/fm^3], P[MeV/fm^3], rho[fm^-3], v2[1], mu_q[MeV], mu_e[MeV]
70.21755168181654 0.006206087273093519 0.07407856508846018 0.017597877650005332 316.5185077347417 89.2771661002368
71.43578994790998 0.027644495228360377 0.07535555647246353 0.0175978776500052 316.5894798429086 89.8124074562691
72.67502861766434 0.04945246571785267 0.07665456106626496 0.017597877650005228 316.6616753923034 90.35687548400062
73.93562970314778 0.07163636938565421 0.07797595834102777 0.01759787765000538 316.7351154730202 90.91072923592193
75.21796145691394 0.09420268669514797 0.07932013430936638 0.01759787765000533 316.8098215387112 91.47413050632369
76.5223984795798 0.11715800982215896 0.0806874816381126 0.01759787765000522 316.8858154128541 92.04724387856187
77.84932182925448 0.14050904458066893 0.08207839976302188 0.017597877650005325 316.96311929512683 92.630236773136
79.19911913285509 0.16426261238173973 0.08349329500545777 0.017597877650005436 317.0417557678931 93.22327949659658
80.57218469934486 0.18842565222626206 0.08493258069109116 0.017597877650005332 317.12174780279906 93.82654529129692
81.96891963491473 0.21300522273190858 0.08639667727063695 0.017597877650005284 317.20311876748366 94.44021038599915
83.38973196016327 0.23800850419525207 0.0878860124426853 0.017597877650005242 317.2858924324053 95.06445404735784
84.83503672928572 0.26344280068923775 0.08940102127863886 0.01759787765000527 317.37009297778565 95.69945863228664
86.3052561513196 0.28931554219685157 0.0909421463498059 0.01759787765000538 317.45574500067295 96.34540964122833
87.80081971348744 0.3156342867816875 0.09250983785669148 0.017597877650005325 317.54287352212793 97.00249577234631
89.32216430665855 0.3424067227958098 0.09410455376051008 0.01759787765000531 317.63150399453286 97.67090897664707
90.86973435297011 0.3696406711256137 0.09572675991696154 0.017597877650005242 317.7216623090265 98.3508445140514
92.44398193566516 0.39734408747669764 0.0973769302123309 0.017597877650005228 317.8133748030682 99.04250101043964
94.04536693114535 0.4255250646977123 0.09905554670190979 0.01759787765000531 317.90666826813106 99.74608051566989
95.67435714332068 0.45419183514462985 0.10076309975082554 0.017892055534992374 318.00156995752883 100.46178856260559
97.33169327479138 0.4843410207312542 0.10250008817728433 0.018775745774211428 318.10048622561175 101.18570399772256
99.01814146064449 0.5170082040359527 0.10426701939828847 0.020025246310001077 318.2058447860128 101.91428658825437
100.73429318912723 0.5525181669555139 0.1060644095778678 0.02129999675038627 318.31828524079526 102.64750316311726
102.48063871606901 0.5907964457966746 0.10789278377786223 0.022549781036994038 318.43751805132047 103.38670836290729
104.25774423592242 0.6320103592916358 0.10975267611130558 0.023887708108000116 318.5638120290785 104.13237516689382
106.06623539667063 0.676492214395437 0.11164462989845152 0.025339806313660923 318.697770868173 104.88465247088972
107.90674784282342 0.7245234535359056 0.11356919782549418 0.026726883379044414 318.8398212612412 105.64215664334085
109.77980899298537 0.7757858510810522 0.11552694210601787 0.028008654354195556 318.9889635986241 106.39548846211913
111.68603200563659 0.8304189676497289 0.11751843464523576 0.02941848660514751 319.1453310518051 107.14305877628786
113.62612253642692 0.8889903796251314 0.1195442572070575 0.0310000273545607 319.31003653378224 107.89037199216354
115.60075117782822 0.9518318179215621 0.1216050015840337 0.03259969837934959 319.4836179784206 108.6399435927219
117.61049319554543 1.0189345897359714 0.12370126977023699 0.03419210470702347 319.6659546827271 109.3941654142798
119.65602415051524 1.0905481505064962 0.12583367413711752 0.03592218882239359 319.8573917239201 110.15411877028433
121.73815641876267 1.1672766767204164 0.12800283761239192 0.03778190969818496 320.0588603075681 110.92020174565145
123.85759205422588 1.2493614886182018 0.1302093938620144 0.0396255479711905 320.27062777688235 111.69348487044105
126.01496433860267 1.3368161240061027 0.13245398747528928 0.041461386350795104 320.4925793312381 112.47517112638602
128.2110155783424 1.429932568241939 0.13473727415316794 0.04346252473119688 320.7250671173629 113.26594974297757
130.4466887956552 1.52951487508801 0.1370599208997976 0.045590760196347446 320.969220213987 114.06610244230104
132.72270298041246 1.6357091714792171 0.13942260621736857 0.04767926014436641 321.22510082538804 114.87651716166351
135.03976205186157 1.748593799706529 0.14182602030432198 0.04977029748745049 321.49267975935425 115.69799950047124
137.3986835249372 1.8685229353243933 0.14427086525697244 0.05206400529136951 321.77234677231564 116.53110782929468
139.80057355445675 1.9965668028217445 0.14675785527460983 0.05448295484632937 322.0654823434704 117.37614392238619
142.24614757531495 2.1327305435734982 0.1492877168681315 0.05683638595368079 322.37191652081754 118.23384218287305
144.73619757503982 2.2771938463603174 0.15186118907227755 0.059208520968313694 322.69174413674494 119.10477732777403
147.27162660197732 2.430390920319256 0.15447902366151722 0.0618292055008095 323.0254080857181 119.98940983187808
149.85374556019306 2.5937403356179334 0.15714198536966398 0.06457197399617759 323.3745941649684 120.88804723823948
152.4832372283129 2.7670401807274834 0.15985085211327107 0.06721882453614525 323.7388555425644 121.80124809303793
155.16100474728017 2.9506159576823916 0.1626064152188807 0.06990575565196155 324.1184454344821 122.72942464238325
157.8880490867394 3.1450019316856195 0.16540947965419006 0.07289593855263288 324.5138717435153 123.67293532678868
160.66593902373984 3.3520690822739376 0.16826086426320178 0.07600220080988451 324.92718571735776 124.63202719571277
163.4952840125817 3.5713158744339593 0.17116140200542868 0.07897532922519734 325.3576004812541 125.6070903482084
166.37712853614147 3.8032695276021222 0.17411194019922174 0.08202037368123771 325.8055622707938 126.59840218489457
169.31260061973967 4.048620249866702 0.17711334076929286 0.08542133552471287 326.2716886567447 127.60620334892384
172.303551331823 4.309718566586897 0.18016648049850292 0.0889270452590527 326.7583492276527 128.63058410314463
175.35050383107742 4.585737524453315 0.1832722512839939 0.09226446929582366 327.26444376458807 129.67181814230588
178.45466868853612 4.877441713994387 0.18643156039773165 0.09572802473872655 327.7906096931573 130.73004905217363
181.61738960046912 5.18586172672753 0.18964533075154347 0.09956214286511778 328.3377308078966 131.80536363429957
184.84067158507494 5.5134958934314255 0.19291450116672415 0.10348029397253222 328.90808973361146 132.89762523650757
188.12508868773136 5.859506730761704 0.19624002664828616 0.10723125726635341 329.50063467169656 134.00704679883177
191.47199658539387 6.224818666062787 0.19962287866394354 0.11114950466071183 330.116072530961 135.1336328978941
194.88301649425165 6.610906017540677 0.2030640454278977 0.11544544815415358 330.7555888744374 136.2772622126371
198.3602890613904 7.020342674256472 0.2065645321895225 0.11979382346787826 331.42129567013734 137.43754067535426
201.9044613376726 7.452308308070558 0.2101253615270204 0.12397650239191993 332.11220306471756 138.61467605675114
205.5170562570145 7.907903230714149 0.21374757364614289 0.1283699626450635 332.8290718474655 139.80852765902867
209.2000509218192 8.389163756231573 0.21743222668406043 0.1331367755092301 333.57341318817043 141.01869117551004
212.95568685700158 8.89862029273525 0.22118039701847075 0.1379109881763032 334.34705688852574 142.2445530860434
216.7847142491265 9.435507109353031 0.224993179582034 0.1425209986125906 335.149090910276 143.4863497980139
220.6888478651131 10.001107919216421 0.22887168818223044 0.1473848211915132 335.9803024130194 144.74379875149575
224.67051841244387 10.598148441577159 0.23281705582673115 0.15260238957125072 336.84253077264475 146.0161250814302
228.73201076449018 11.228941923303356 0.23683043505437643 0.1577674592771845 337.73719306437926 147.30260528428684
232.87421847820065 11.892825884399452 0.2409129982718618 0.16276966708385543 338.6634726746745 148.60351662363965
237.09907459677976 12.591262929879372 0.2450659380962259 0.1680647442175771 339.6221443059857 149.91845083271977
241.4095830266287 13.327795359770137 0.24929046770324403 0.17367604335428166 340.61534675451054 151.2461733723472
245.80798450797525 14.104290408314728 0.25358782118182577 0.17916063314688135 341.6439533067965 152.5860269646372
250.29536865638684 14.920249387540146 0.2579592538945237 0.18448376658109078 342.70726027181 153.9383214680799
254.87391430339358 15.777295306389933 0.26240604284425445 0.19013115054428797 343.8059831368225 155.30255316107613
259.54734193097937 16.679902122692877 0.2669294870473437 0.19614072022359785 344.9424917462097 156.67695034502995
260.3416789805852 16.836798664591754 0.26765822653290505 0.11254398038683044 346.11701155796936 155.58612441144962
275.2523483845784 18.649712167580525 0.31612317031947745 0.13062598789148905 347.328966229596 154.0813887315986
283.1427620955799 19.7181554361514 0.3413319272237706 0.14255595322417092 348.57896372915343 152.65654589595695
290.75654101408793 20.856042956532576 0.36528707651219905 0.15391193200884867 349.86949367684684 151.33481927823027
298.3023914089251 22.05079993827329 0.3887764543354865 0.16401961665253406 351.2000887836266 150.0609577747926
305.7136158122492 23.30777915161522 0.4115182629157513 0.17728162304028916 352.5703075794808 148.85673181478595
312.91469489102815 24.63811206159074 0.4331399571313339 0.1896735589771703 353.98060905644974 147.75503610607652
320.08387537882527 26.03312342614837 0.4543342043708712 0.19982993857204834 355.4334521442952 146.7064409797249
327.2100462295581 27.494301385640167 0.47503842374973315 0.21040564136416684 356.9277197298895 145.71718491630105
334.29839543077213 29.023534131868153 0.4952467658610333 0.22237812082113062 358.4631014669581 144.7900062334359
341.31873155888826 30.630865543149742 0.5147601522936736 0.23373510380714313 360.03988091456415 143.9461513175655
348.3650282363096 32.311648729495886 0.5339619058561245 0.2432078260296211 361.66030746350987 143.15652813899356
355.4424225054513 34.066149028291434 0.5528590922939807 0.2524249994865584 363.3227610243933 142.42171365469608
362.56394208136305 35.89620995002356 0.5714819868015212 0.26129412459135404 365.0270429856405 141.74105734109017
369.74542102613253 37.80395848763033 0.5898714805688613 0.26972925972886896 366.7732551876847 141.1130233418289
377.01027897444436 39.79349416909895 0.6080892490661403 0.27768453590831665 368.5632457970251 140.53505907775605
384.3668536197601 41.86481065311888 0.6261603148664726 0.2851224855148531 370.39513942729127 140.00548001590002
391.83042522526216 44.01981901775306 0.6441284185829887 0.2920361690379156 372.26881070045994 139.52170222162584
399.4162872012613 46.26060313634765 0.6620375863922958 0.29843291511101233 374.18425749083553 139.0809623097491
407.14339006114653 48.59057946009337 0.6799400318204734 0.3043313210172869 376.1425479489815 138.6802219588213
415.0195446092518 51.01000531709174 0.697861949855678 0.30974854353265613 378.1420680020603 138.3169418915054
423.05769351232726 53.52085131969474 0.7158413249972946 0.3147120564982875 380.18264288681297 137.98824190771865
431.2705542383337 56.125222584675505 0.7339151079079329 0.31925068005672186 382.2641765278808 137.69125333321486
439.6714443767653 58.82561723518473 0.7521209082381701 0.32339429132929265 384.38684656688184 137.42312024668823
448.26840008492655 61.62300358607566 0.7704843613371601 0.3271703844167928 386.54960838431725 137.18118653288283
457.0720583982483 64.51932656615301 0.7890363019916509 0.3306073521120263 388.75217980057613 136.96274608391914
466.09268930437844 67.51655476823919 0.8078062127526072 0.3337772231653586 390.99427615507426 136.76516303874752
475.34220330242084 70.61818642858663 0.826819298119296 0.33678842979733004 393.27543963785325 136.5865111510592
484.83674165413646 73.83005931760505 0.8461017979880459 0.33947814030503887 395.59516773161965 136.42528874204615
494.5783660574743 77.14903979151184 0.8656869861851474 0.34177883403999587 397.95311125729603 136.27696399044532
504.5751059321041 80.57677162893144 0.8855977633278082 0.34385865174587416 400.3486982341418 136.13922193189964
514.8338418235812 84.11457726688698 0.9058543192097585 0.34586417786546875 402.78113502043635 136.00984420137183
525.3844407365499 87.77457087688177 0.926496718385352 0.34768766227220693 405.2503908250171 135.88760090762864
536.2205155854107 91.55091617435929 0.9475416769518169 0.34919183014577504 407.7560864453435 135.76901344381727
547.3456628061664 95.44365696491563 0.9690045133919989 0.3505934368632686 410.2972643916196 135.65200801916967
558.7841543855062 99.46201758061956 0.990922064408645 0.35188788813618777 412.8731075256692 135.53464876039297
570.5437778290408 103.6071744937834 1.013320387448215 0.35296910196536846 415.48395412590855 135.41466543549527
582.6209664027657 107.8759837162727 1.0362075043161636 0.3539494136480359 418.12942481666244 135.29029831272766
595.0497430511219 112.28139530509891 1.059634135384225 0.3548271677088586 420.80808286670407 135.15894487317385
607.8164974599032 116.81629930741359 1.083593571506197 0.35554387930068554 423.519388423576 135.0193946246079
620.941294928882 121.48721910823869 1.1081248079687578 0.35618568677841456 426.263926491692 134.86965866967438
634.4494089365016 126.30279498092888 1.1332726806679456 0.3567158308715701 429.04133904117657 134.70733414335945
648.3159867059894 131.25236540936717 1.1590061855000668 0.3571565108077621 431.84962364736657 134.53226676522266
662.5952551903204 136.3554465223985 1.1854145427278087 0.3575146495941368 434.68879187402194 134.34058729032228
677.2551823753365 141.59865805559394 1.212457783862615 0.3577839192591794 437.55954505588323 134.1335424184222
692.3623718765809 147.00575832976295 1.2402457972798335 0.35798683743142945 440.4615602408136 133.90634653993254
707.8606095852125 152.55505450873216 1.2686926699988632 0.358110754876237 443.39219174670734 133.66135589134714
723.8240367876888 158.27256700222486 1.297923698149271 0.35817659575549854 446.35224304333093 133.39354771537245
740.2197419983107 164.14535011847804 1.3278917040123377 0.358176494313045 449.3424024244641 133.10496194530208
757.1026300768582 170.19216319750788 1.3586906259233134 0.35812244433959517 452.3623894048231 132.79162598870087
774.4404832394707 176.40052891601923 1.3902683894228853 0.358017486456637 455.4088468583903 132.45466713971402
792.2679980659007 182.7819162083802 1.4226876442293248 0.35786024189706733 458.48357591050296 132.0921872146923
810.6162553955675 189.3463029625867 1.4560042577622334 0.35766341448212824 461.5871295346198 131.70226948858544
829.4691165637638 196.08729008931175 1.4901934817441522 0.35742147624012777 464.7192724425523 131.28605648468226
848.8599235963835 203.01526257087832 1.5253108689928303 0.35713705093813886 467.87587687666405 130.84036698081022
868.7926824545967 210.13103392182782 1.5613673740828797 0.3568331966220857 471.0599151315838 130.3660112283558
889.27771189621 217.43749693665603 1.598382087456216 0.35648269866433147 474.2716930347005 129.86267322367064
910.377269395768 224.95498192619078 1.636462110787676 0.3560992882016274 477.5110201023164 129.32664776221287
932.035458374348 232.66328822321907 1.6755097696153263 0.3557100940736415 480.77294680996494 128.76073906932876
954.2959139278024 240.57704633178935 1.7156026794976529 0.355284922636522 484.06176219100337 128.16368554122144
977.2074542041491 248.7119232420416 1.7568243045563023 0.35482962098951365 487.37742484726095 127.5329944015603
1000.7713885836548 257.0676219766956 1.799176357840821 0.35436873203950814 490.71942709513365 126.86909389852393
1024.9590520538832 265.6333079929285 1.842606408454124 0.3538988567580743 494.0830324628434 126.17324443347694
1049.8235431812536 274.4267999729538 1.8872073031727836 0.35339887024836525 497.47289006040484 125.44395441256408
1075.4163151819012 283.4644668462739 1.933065514231706 0.3528812546142337 500.8888825459008 124.67900425808908
1101.7266165907502 292.74205447674706 1.98016062713663 0.3523681302977062 504.3299917615031 123.87957043208412
1128.7371631618164 302.2526742687535 2.028458920817184 0.3518501849708455 507.7922253856572 123.04660116546992
1156.5044986372936 312.01526727078294 2.078057752075245 0.3513247406391331 511.2801267663313 122.17864620876466
1185.0507423959707 322.0366159479458 2.1289924350214537 0.35078168461160164 514.7936148893198 121.27534303130481
1214.4122061316182 332.32777574318294 2.1813205206710373 0.35023298009440484 518.3310928584808 120.33552298789384
1244.5611974431145 342.8787155618149 2.234990079059889 0.34969523281917336 521.8894715714698 119.36100299201645
1275.553250254244 353.70805479757615 2.290095211227386 0.3491582231429007 525.4730848306887 118.35057086244298
1307.412261266467 364.8232156271121 2.346672781356272 0.34862159856468455 529.0818842067226 117.30400390536687
1340.142611415268 376.2248341839086 2.4047246022067212 0.3480870827931657 532.7136335653959 116.22177575754586
1373.7491247553578 387.91375397862697 2.464252965688462 0.3475562181713032 536.3662857953279 115.10440688095403
1408.2933550535543 399.9105528280427 2.5253600691287628 0.3470295706039499 540.0438741161018 113.95057128298322
1443.8011450279632 412.2233713993482 2.588084084160233 0.34650529991945156 543.7463790946406 112.76016532516664
1480.2790771772263 424.85347851452093 2.652427284035088 0.34598694993431955 547.4708712870953 111.53374899963961
1517.7372089116097 437.8037825480623 2.7183990603288053 0.345480569448708 551.216467733508 110.2718884510449
1556.2329263526858 451.09353818311354 2.786090609016739 0.34498421607483465 554.9868210458568 108.97355888181515
1595.7939947275472 464.731617457493 2.855537406015401 0.3444965009009229 558.781937487146 107.63874734956137
1636.4093125830238 478.7135134229302 2.9266994152681414 0.3440056765363133 562.5981454122898 106.2687933688749
1678.109385991226 493.04803823729463 2.9995656525402707 0.3435178839846804 566.4358348263322 104.8661421200469
1720.9561061236138 507.7563024634702 3.0743038659662565 0.34305708531708934 570.2982070044372 103.42917126584108
1764.9791699397272 522.8488102599802 3.1509991534792867 0.34261902562955804 574.1852909518561 101.95602676354528
1810.1565877478477 538.317586804588 3.2296065539720518 0.3421948483203856 578.0926279967849 100.44853233208617
1856.5364908518477 554.1787523047306 3.310203056478341 0.3417850225077679 582.021979385741 98.90619191632906
1904.1803255643676 570.4529833742572 3.3928882882170193 0.34138982931964623 585.9760320290837 97.32810617296013
1953.1199631469956 587.1508651198634 3.477710055050637 0.34100792420221726 589.9548350790684 95.71439683487851
2003.3309614676275 604.2636581465813 3.564617192177688 0.3406405465797073 593.9531011119569 94.06715479970175
2054.882700675631 621.8148984901757 3.653722062338123 0.34029100886763164 597.9740527294582 92.38532907899764
2107.827567071411 639.8224398252421 3.745107786927346 0.339959274783455 602.019805726412 90.6684064445881
2162.199726617521 658.297855453556 3.8388248426683593 0.33964447383946883 606.0904271513187 88.91655593395447
2217.9481489506043 677.2238659269243 3.9347768572498207 0.3393473336382007 610.1797613821134 87.1326903183389
2275.1691239213537 696.6332946414396 4.033120969689573 0.339067732125522 614.2925763096104 85.31500887608121
2333.917553190712 716.544935355559 4.1339424377750404 0.3388058267960181 618.4303648993331 83.46309015326894
2394.229839968252 736.9713635134483 4.237294332992099 0.33856056510390875 622.5932101621104 81.57713248144043
2456.0507691295184 757.8940680315517 4.343070888692898 0.338331151393783 626.7740504200112 79.66038289964719
2519.5282362871853 779.3633471638295 4.451512835305432 0.3381213967953771 630.9792782513232 77.70990402706012
2584.6808144962024 801.3863076724798 4.562645595429228 0.337932907807593 635.2097160524316 75.72612853011437
