e[MeV/fm^3], P[MeV/fm^3], rho[fm^-3], v2[1], mu_q[MeV], mu_e[MeV]
70.21755168181654 0.006206087273093519 0.07407856508846018 0.017597877650005332 316.5185077347417 89.2771661002368
71.43578994790998 0.027644495228360377 0.07535555647246353 0.0175978776500052 316.5894798429086 89.8124074562691
72.67502861766434 0.04945246571785267 0.07665456106626496 0.017597877650005228 316.6616753923034 90.35687548400062
73.93562970314778 0.07163636938565421 0.07797595834102777 0.01759787765000538 316.7351154730202 90.91072923592193
75.21796145691394 0.09420268669514797 0.07932013430936638 0.01759787765000533 316.8098215387112 91.47413050632369
76.5223984795798 0.11715800982215896 0.0806874816381126 0.01759787765000522 316.8858154128541 92.04724387856187
77.84932182925448 0.14050904458066893 0.08207839976302188 0.017597877650005325 316.96311929512683 92.630236773136
79.19911913285509 0.16426261238173973 0.08349329500545777 0.017597877650005436 317.0417557678931 93.22327949659658
80.57218469934486 0.18842565222626206 0.08493258069109116 0.017597877650005332 317.12174780279906 93.82654529129692
81.96891963491473 0.21300522273190858 0.08639667727063695 0.017597877650005284 317.20311876748366 94.44021038599915
83.38973196016327 0.23800850419525207 0.0878860124426853 0.017597877650005242 317.2858924324053 95.06445404735784
84.83503672928572 0.26344280068923775 0.08940102127863886 0.01759787765000527 317.37009297778565 95.69945863228664
86.3052561513196 0.28931554219685157 0.0909421463498059 0.01759787765000538 317.45574500067295 96.34540964122833
87.80081971348744 0.3156342867816875 0.09250983785669148 0.017597877650005325 317.54287352212793 97.00249577234631
89.32216430665855 0.3424067227958098 0.09410455376051008 0.01759787765000531 317.63150399453286 97.67090897664707
90.86973435297011 0.3696406711256137 0.09572675991696154 0.017597877650005242 317.7216623090265 98.3508445140514
92.44398193566516 0.39734408747669764 0.0973769302123309 0.017597877650005228 317.8133748030682 99.04250101043964
94.04536693114535 0.4255250646977123 0.09905554670190979 0.01759787765000531 317.90666826813106 99.74608051566989
95.67435714332068 0.45419183514462985 0.10076309975082554 0.017892055534992374 318.00156995752883 100.46178856260559
97.33169327479138 0.4843410207312542 0.10250008817728433 0.018775745774211428 318.10048622561175 101.18570399772256
99.01814146064449 0.5170082040359527 0.10426701939828847 0.020025246310001077 318.2058447860128 101.91428658825437
100.73429318912723 0.5525181669555139 0.1060644095778678 0.02129999675038627 318.31828524079526 102.64750316311726
102.48063871606901 0.5907964457966746 0.10789278377786223 0.022549781036994038 318.43751805132047 103.38670836290729
104.25774423592242 0.6320103592916358 0.10975267611130558 0.023887708108000116 318.5638120290785 104.13237516689382
106.06623539667063 0.676492214395437 0.11164462989845152 0.025339806313660923 318.697770868173 104.88465247088972
107.90674784282342 0.7245234535359056 0.11356919782549418 0.026726883379044414 318.8398212612412 105.64215664334085
109.77980899298537 0.7757858510810522 0.11552694210601787 0.028008654354195556 318.9889635986241 106.39548846211913
111.68603200563659 0.8304189676497289 0.11751843464523576 0.02941848660514751 319.1453310518051 107.14305877628786
113.62612253642692 0.8889903796251314 0.1195442572070575 0.0310000273545607 319.31003653378224 107.89037199216354
115.60075117782822 0.9518318179215621 0.1216050015840337 0.03259969837934959 319.4836179784206 108.6399435927219
117.61049319554543 1.0189345897359714 0.12370126977023699 0.03419210470702347 319.6659546827271 109.3941654142798
119.65602415051524 1.0905481505064962 0.12583367413711752 0.03592218882239359 319.8573917239201 110.15411877028433
121.73815641876267 1.1672766767204164 0.12800283761239192 0.03778190969818496 320.0588603075681 110.92020174565145
123.85759205422588 1.2493614886182018 0.1302093938620144 0.0396255479711905 320.27062777688235 111.69348487044105
126.01496433860267 1.3368161240061027 0.13245398747528928 0.041461386350795104 320.4925793312381 112.47517112638602
128.2110155783424 1.429932568241939 0.13473727415316794 0.04346252473119688 320.7250671173629 113.26594974297757
130.4466887956552 1.52951487508801 0.1370599208997976 0.045590760196347446 320.969220213987 114.06610244230104
132.72270298041246 1.6357091714792171 0.13942260621736857 0.04767926014436641 321.22510082538804 114.87651716166351
135.03976205186157 1.748593799706529 0.14182602030432198 0.04977029748745049 321.49267975935425 115.69799950047124
137.3986835249372 1.8685229353243933 0.14427086525697244 0.05206400529136951 321.77234677231564 116.53110782929468
139.80057355445675 1.9965668028217445 0.14675785527460983 0.05448295484632937 322.0654823434704 117.37614392238619
142.24614757531495 2.1327305435734982 0.1492877168681315 0.05683638595368079 322.37191652081754 118.23384218287305
144.73619757503982 2.2771938463603174 0.15186118907227755 0.059208520968313694 322.69174413674494 119.10477732777403
147.27162660197732 2.430390920319256 0.15447902366151722 0.0618292055008095 323.0254080857181 119.98940983187808
149.85374556019306 2.5937403356179334 0.15714198536966398 0.06457197399617759 323.3745941649684 120.88804723823948
152.4832372283129 2.7670401807274834 0.15985085211327107 0.06721882453614525 323.7388555425644 121.80124809303793
155.16100474728017 2.9506159576823916 0.1626064152188807 0.06990575565196155 324.1184454344821 122.72942464238325
157.8880490867394 3.1450019316856195 0.16540947965419006 0.07289593855263288 324.5138717435153 123.67293532678868
160.66593902373984 3.3520690822739376 0.16826086426320178 0.07600220080988451 324.92718571735776 124.63202719571277
163.4952840125817 3.5713158744339593 0.17116140200542868 0.07897532922519734 325.3576004812541 125.6070903482084
166.37712853614147 3.8032695276021222 0.17411194019922174 0.08202037368123771 325.8055622707938 126.59840218489457
169.31260061973967 4.048620249866702 0.17711334076929286 0.08542133552471287 326.2716886567447 127.60620334892384
172.303551331823 4.309718566586897 0.18016648049850292 0.0889270452590527 326.7583492276527 128.63058410314463
175.35050383107742 4.585737524453315 0.1832722512839939 0.09226446929582366 327.26444376458807 129.67181814230588
178.45466868853612 4.877441713994387 0.18643156039773165 0.09572802473872655 327.7906096931573 130.73004905217363
181.61738960046912 5.18586172672753 0.18964533075154347 0.09956214286511778 328.3377308078966 131.80536363429957
184.84067158507494 5.5134958934314255 0.19291450116672415 0.10348029397253222 328.90808973361146 132.89762523650757
188.12508868773136 5.859506730761704 0.19624002664828616 0.10723125726635341 329.50063467169656 134.00704679883177
191.47199658539387 6.224818666062787 0.19962287866394354 0.11114950466071183 330.116072530961 135.1336328978941
194.88301649425165 6.610906017540677 0.2030640454278977 0.11544544815415358 330.7555888744374 136.2772622126371
198.3602890613904 7.020342674256472 0.2065645321895225 0.11979382346787826 331.42129567013734 137.43754067535426
201.9044613376726 7.452308308070558 0.2101253615270204 0.12397650239191993 332.11220306471756 138.61467605675114
205.5170562570145 7.907903230714149 0.21374757364614289 0.1283699626450635 332.8290718474655 139.80852765902867
209.2000509218192 8.389163756231573 0.21743222668406043 0.1331367755092301 333.57341318817043 141.01869117551004
212.95568685700158 8.89862029273525 0.22118039701847075 0.1379109881763032 334.34705688852574 142.2445530860434
216.7847142491265 9.435507109353031 0.224993179582034 0.1425209986125906 335.149090910276 143.4863497980139
220.6888478651131 10.001107919216421 0.22887168818223044 0.1473848211915132 335.9803024130194 144.74379875149575
224.67051841244387 10.598148441577159 0.23281705582673115 0.15260238957125072 336.84253077264475 146.0161250814302
228.73201076449018 11.228941923303356 0.23683043505437643 0.1577674592771845 337.73719306437926 147.30260528428684
232.87421847820065 11.892825884399452 0.2409129982718618 0.16276966708385543 338.6634726746745 148.60351662363965
237.09907459677976 12.591262929879372 0.2450659380962259 0.1680647442175771 339.6221443059857 149.91845083271977
241.4095830266287 13.327795359770137 0.24929046770324403 0.17367604335428166 340.61534675451054 151.2461733723472
245.80798450797525 14.104290408314728 0.25358782118182577 0.17916063314688135 341.6439533067965 152.5860269646372
250.29536865638684 14.920249387540146 0.2579592538945237 0.18448376658109078 342.70726027181 153.9383214680799
254.87391430339358 15.777295306389933 0.26240604284425445 0.19013115054428797 343.8059831368225 155.30255316107613
259.54734193097937 16.679902122692877 0.2669294870473437 0.19603884001981875 344.9424917462097 156.67695034502995
264.3177234138911 17.62921742422393 0.2715309079130002 0.20173455319505607 346.11701155796936 158.06114921462316
269.1864120746621 18.624978432827973 0.2762116496293318 0.20727097595137622 347.328966229596 159.45546560193614
274.15586021544175 19.66893704821644 0.28097307955601647 0.2131521958171756 348.57896372915343 160.8593430130801
279.2306731431928 20.76658998854091 0.28581658862374093 0.21922189252154145 349.86949367684684 162.27041922778363
284.412585417037 21.918069468750467 0.29074359174052566 0.2249894143101847 351.2000887836266 163.68887481305947
289.7032992122702 23.123430865940225 0.29575552820505524 0.2306016920899494 352.5703075794808 165.1149897852477
295.1055673860831 24.38451504681977 0.300853862127132 0.23656661428271297 353.98060905644974 166.5482047162215
300.6250734626658 25.70790002720107 0.3060400828553784 0.24263779812409947 355.4334521442952 167.985546141962
306.2629978571605 27.092417065261266 0.3113157054123131 0.24831998114039466 356.9277197298895 169.42797804232237
312.0214966673664 28.538529352055203 0.3166822709369256 0.2538541104542591 358.4631014669581 170.8756920374787
317.9036494111742 30.048126085066315 0.3221413471348811 0.2597359108053192 360.03988091456415 172.3281747479247
323.9164360611114 31.628890065835524 0.32769452873648597 0.2656390932017807 361.66030746350987 173.78185544558517
330.06021547034334 33.278110584552124 0.3333434379625472 0.2710787578055842 363.3227610243933 175.23867305073648
336.3377248306841 34.996751726455315 0.3390897249982634 0.27638164452897485 365.0270429856405 176.69867300893014
342.75239563416363 36.78671837750218 0.3449350684752844 0.2820159576097043 366.7732551876847 178.16142771359964
349.3127469329602 38.65679115669434 0.35088117596208035 0.28759239956345484 368.5632457970251 179.62281308437977
356.0179982424811 40.60254779373834 0.3569297844627652 0.2926507180164095 370.39513942729127 181.08586093941702
362.87161894726887 42.62554485678177 0.3630826609245175 0.2976058496429581 372.26881070045994 182.55041400308298
369.8776838050342 44.72802159039085 0.3693416027537498 0.3028324596598386 374.18425749083553 184.01597196044224
377.04571989459646 46.91882012835673 0.3757084383411748 0.30793255850782497 376.1425479489815 185.47847044374714
384.37423920137996 49.19272886637786 0.3821850275959231 0.3125215544923945 378.1420680020603 186.9415202760738
391.8673537720589 51.551645656583794 0.38877326248886857 0.31704011341831206 380.18264288681297 188.40489537630313
399.53022857376277 53.998550771733285 0.3954750676053199 0.32173794710659864 382.2641765278808 189.86781153455445
407.3724291860139 56.54109433027862 0.4022924007072386 0.3262560177033471 384.38684656688184 191.32699317636136
415.3926093188036 59.174483419942426 0.40922725330514964 0.33032373141907057 386.54960838431725 192.78593445174437
423.5953061809909 61.90062597545923 0.41628165123991057 0.3343330679737635 388.75217980057613 194.2445223409546
431.9870027817532 64.72329723895402 0.4234576552745099 0.33844367777413575 390.99427615507426 195.70167441052624
440.5770251421459 67.64881573370899 0.43075736169606577 0.34234063934627335 393.27543963785325 197.1549973649513
449.3643086509324 70.67296114055506 0.4381829029282034 0.34585294088734964 395.59516773161965 198.60775365438798
458.3538473549931 73.79767867736162 0.4457364481539887 0.3493186232354084 397.95311125729603 200.05992813734576
467.5536981515388 77.027587172091 0.45342020394959914 0.35282403402270646 400.3486982341418 201.51013545137317
476.9726258790827 80.36760327959247 0.4612364149289199 0.35610018974828783 402.78113502043635 202.95689176523837
486.6100156532322 83.81420550185936 0.4691873643992499 0.3590573204431635 405.2503908250171 204.40314259136073
496.47135452575156 87.36941208352289 0.4772753750283123 0.36197834849888366 407.7560864453435 205.84894995866304
506.56655900314644 91.03873246762508 0.4855028095227629 0.36489385448832223 410.2972643916196 207.29262843749711
516.9034684719422 94.82566064673001 0.4938720713183944 0.36757989436499905 412.8731075256692 208.73358290625708
527.4821139822687 98.72747146381049 0.5023856052822402 0.3700084324005575 415.48395412590855 210.17438737708488
538.3085169951437 102.74629564781578 0.5110458984267782 0.3724093515593818 418.12942481666244 211.61515947844745
549.3947716703991 106.88858307175066 0.5198554806364498 0.37487411707326324 420.80808286670407 213.0539215761969
566.9586220546056 113.49959616181323 0.5336859512837002 0.07563966347242113 423.519388423576 220.7803903356713
593.299348599706 115.58490748501589 0.6210641579971021 0.08269395877085206 426.263926491692 210.29762333249187
646.6853369207997 120.38124319443605 0.7969786987119909 0.09643653644512806 429.04133904117657 200.03623294210945
696.8908087315224 125.5342142574632 0.9621192985592402 0.11118204714297608 431.84962364736657 190.01372965272097
743.4685603693883 131.08204640357545 1.1152144135046738 0.1264777001765589 434.68879187402194 180.30114466892468
787.4435222897438 136.94982689782003 1.25975526141083 0.1431771378186537 437.55954505588323 170.8209062469685
828.382131639054 143.18260735461988 1.394362193757496 0.16042637868518228 440.4615602408136 161.65569746534905
867.1686128992374 149.70555372046957 1.52194041485516 0.1786870848586508 443.39219174670734 152.7330617758907
903.5222549977321 156.55963627504434 1.6415666860462415 0.19753386347297086 446.35224304333093 144.1231980915431
938.1382919378052 163.69395691774017 1.7555027650474784 0.2167945390152468 449.3424024244641 135.75602711402695
970.9139725620975 171.13147085770197 1.8633925570258392 0.23678296753070205 452.3623894048231 127.67931713263373
1002.2074499711478 178.83587054010147 1.9663875029327527 0.2565697969221974 455.4088468583903 119.86459544696899
1032.1395804735862 186.8124883503293 2.064845428372199 0.277494522580537 458.48357591050296 112.31378497897518
1060.779835917584 195.0615678306344 2.1587845383364375 0.2978601055682826 461.5871295346198 105.03833151690328
1088.4186647753374 203.5564263835703 2.249228364422752 0.31704849666223467 464.7192724425523 98.02523220295944
1115.2304913124542 212.3092687025397 2.3375137948185656 0.33513104820969675 467.87587687666405 91.29098340430284
1141.4319598475277 221.31235652537347 2.4244561597454224 0.3519567426352168 471.0599151315838 84.79224710978063
1167.1178002699623 230.56283406087817 2.5105034376681563 0.36913165822552685 474.2716930347005 78.51737965839187
1192.2981587249308 240.07967924796444 2.5960820869268026 0.3856434618123288 477.5110201023164 72.4914423784282
1217.0969488614708 249.83113711940408 2.681931195716593 0.4004002159566893 480.77294680996494 66.68671061843409
1241.6360453677844 259.8308715456879 2.7690777668647866 0.41439831251039294 484.06176219100337 61.08686913512169
1265.997806274845 270.09313287703475 2.859092516258955 0.4267920582597773 487.37742484726095 55.69897642383528
1290.3346267686522 280.6147627681915 2.9543577037632978 0.4362576152367188 490.71942709513365 50.5019959767952
1314.793974714066 291.3817969256642 3.058372162414942 0.4419789365067137 494.0830324628434 45.48050578262672
1339.664296158538 302.41891106975464 3.177760837474408 0.4415392122992765 497.47289006040484 40.606366153622446
1365.4759448102457 313.7555630503221 3.328458638684545 0.5146112896788644 500.8888825459008 35.85223219629343
1385.7097221771744 325.36410469388375 3.3922005743053827 0.5975576816366921 504.3299917615031 31.253932303975198
1404.7639401318952 337.17781184610203 3.430057668638795 0.6190476790594239 507.7922253856572 26.931705733414766
1424.2309011300326 349.2097524474683 3.46840627314112 0.6170578954625583 511.2801267663313 22.877956155385224
1444.123235778328 361.4639057079587 3.5072788993908803 0.6149294159023668 514.7936148893198 19.07786050925381
1464.456993967987 373.94498325116405 3.546697388815751 0.6127373108554881 518.3310928584808 15.530416784875662
1485.2133899777 386.6404595895965 3.5866382847642604 0.6105642472483428 521.8894715714698 12.214259988499784
1506.4264168976326 399.5690175940689 3.6271661766898338 0.6083791247474579 525.4730848306887 9.112821716278544
1528.106855381074 412.73492400185586 3.6682964142401664 0.6061844100130891 529.0818842067226 6.216773044922314
1550.2519884699175 426.1343749433434 3.710017317399479 0.6039879506602208 532.7136335653959 3.5191610032589975
1572.8594594739418 439.7639426259682 3.7523172160596685 0.6017948851404107 536.3662857953279 1.0131424662607835
1595.9648088463116 453.64302511102926 3.795254026311466 0.5996048842201347 540.0438741161018 -1.3114740878834263
1619.5791908968358 467.77620799951524 3.838838127057102 0.5974062833956726 543.7463790946406 -3.461165943656176
1643.699315200862 482.15880209051056 3.88304898662015 0.595210106558369 547.4708712870953 -5.438331151412422
1668.327133905572 496.790368080609 3.927882178429828 0.5930383437875495 551.216467733508 -7.250146227324554
1693.4953811472724 511.6886105400824 3.973388486074549 0.5908801179009338 554.9868210458568 -8.904787106978054
1719.2160726360305 526.8584396280658 4.019578224788706 0.5887281992229134 558.781937487146 -10.406756070608823
1745.4759911438841 542.2899033997892 4.066416545491415 0.5865852075732292 562.5981454122898 -11.758960102064021
1772.2890893503472 557.989103253 4.113917585761562 0.5844516708286687 566.4358348263322 -12.96579452617932
1799.689726581954 573.9739604957946 4.16213093892724 0.5823262183380464 570.2982070044372 -14.032009027925987
1827.6908780958279 590.2497434974774 4.211067599034936 0.5802089679448876 574.1852909518561 -14.96087655589084
1856.27274754732 606.8027102993054 4.260681529338935 0.5781027991420729 578.0926279967849 -15.754567315200955
1885.460192244203 623.6450735021797 4.311004754037359 0.5760074379696913 582.021979385741 -16.416609405060075
1915.2860680635456 640.7934872229341 4.362082140328092 0.5739218106472244 585.9760320290837 -16.950179474174266
1945.7643697914807 658.2535987927496 4.413925375204413 0.5718354773006187 589.9548350790684 -17.357663125121352
1976.8725540256114 676.0095078094654 4.466480622738042 0.5697521321294285 593.9531011119569 -17.639689502612125
2008.6482044368713 694.0804116878664 4.519799965761047 0.5676881842057426 597.9740527294582 -17.79907331510158
2041.1188818750975 712.4799631016049 4.573919526535534 0.5656421898889956 602.019805726412 -17.838706896395156
2074.299717285146 731.2142282639815 4.628851731165375 0.5636076763546214 606.0904271513187 -17.760328105475015
2108.154173864532 750.2602027919123 4.684524038659272 0.5615878059123727 610.1797613821134 -17.565920211977982
2142.735430834841 769.6454269165903 4.741011846852265 0.5595804144814771 614.2925763096104 -17.257015485275645
2178.0710839317017 789.3828265489522 4.798347286177315 0.5575852702989081 618.4303648993331 -16.834896050612734
2214.1774140254565 809.4788916482885 4.856543509672002 0.555591332975979 622.5932101621104 -16.300776662019956
2251.014228712961 829.9079464068459 4.915518692710863 0.5535867364321927 626.7740504200112 -15.655736308094948
2288.6618009855797 850.7108278382534 4.975382324739943 0.5516033125803848 630.9792782513232 -14.898546760698377
2327.129779397155 871.8919345237084 5.036145560915109 0.5496575154465635 635.2097160524316 -14.032628840608462
