e[MeV/fm^3], P[MeV/fm^3], rho[fm^-3], v2[1], mu_q[MeV], mu_e[MeV]
70.21755168181654 0.006206087273093519 0.07407856508846018 0.017597877650005332 316.5185077347417 89.2771661002368
71.43578994790998 0.027644495228360377 0.07535555647246353 0.0175978776500052 316.5894798429086 89.8124074562691
72.67502861766434 0.04945246571785267 0.07665456106626496 0.017597877650005228 316.6616753923034 90.35687548400062
73.93562970314778 0.07163636938565421 0.07797595834102777 0.01759787765000538 316.7351154730202 90.91072923592193
75.21796145691394 0.09420268669514797 0.07932013430936638 0.01759787765000533 316.8098215387112 91.47413050632369
76.5223984795798 0.11715800982215896 0.0806874816381126 0.01759787765000522 316.8858154128541 92.04724387856187
77.84932182925448 0.14050904458066893 0.08207839976302188 0.017597877650005325 316.96311929512683 92.630236773136
79.19911913285509 0.16426261238173973 0.08349329500545777 0.017597877650005436 317.0417557678931 93.22327949659658
80.57218469934486 0.18842565222626206 0.08493258069109116 0.017597877650005332 317.12174780279906 93.82654529129692
81.96891963491473 0.21300522273190858 0.08639667727063695 0.017597877650005284 317.20311876748366 94.44021038599915
83.38973196016327 0.23800850419525207 0.0878860124426853 0.017597877650005242 317.2858924324053 95.06445404735784
84.83503672928572 0.26344280068923775 0.08940102127863886 0.01759787765000527 317.37009297778565 95.69945863228664
86.3052561513196 0.28931554219685157 0.0909421463498059 0.01759787765000538 317.45574500067295 96.34540964122833
87.80081971348744 0.3156342867816875 0.09250983785669148 0.017597877650005325 317.54287352212793 97.00249577234631
89.32216430665855 0.3424067227958098 0.09410455376051008 0.01759787765000531 317.63150399453286 97.67090897664707
90.86973435297011 0.3696406711256137 0.09572675991696154 0.017597877650005242 317.7216623090265 98.3508445140514
92.44398193566516 0.39734408747669764 0.0973769302123309 0.017597877650005228 317.8133748030682 99.04250101043964
94.04536693114535 0.4255250646977123 0.09905554670190979 0.01759787765000531 317.90666826813106 99.74608051566989
95.67435714332068 0.45419183514462985 0.10076309975082554 0.017892055534992374 318.00156995752883 100.46178856260559
97.33169327479138 0.4843410207312542 0.10250008817728433 0.018775745774211428 318.10048622561175 101.18570399772256
99.01814146064449 0.5170082040359527 0.10426701939828847 0.020025246310001077 318.2058447860128 101.91428658825437
100.73429318912723 0.5525181669555139 0.1060644095778678 0.02129999675038627 318.31828524079526 102.64750316311726
102.48063871606901 0.5907964457966746 0.10789278377786223 0.022549781036994038 318.43751805132047 103.38670836290729
104.25774423592242 0.6320103592916358 0.10975267611130558 0.023887708108000116 318.5638120290785 104.13237516689382
106.06623539667063 0.676492214395437 0.11164462989845152 0.025339806313660923 318.697770868173 104.88465247088972
107.90674784282342 0.7245234535359056 0.11356919782549418 0.026726883379044414 318.8398212612412 105.64215664334085
109.77980899298537 0.7757858510810522 0.11552694210601787 0.028008654354195556 318.9889635986241 106.39548846211913
111.68603200563659 0.8304189676497289 0.11751843464523576 0.02941848660514751 319.1453310518051 107.14305877628786
113.62612253642692 0.8889903796251314 0.1195442572070575 0.0310000273545607 319.31003653378224 107.89037199216354
115.60075117782822 0.9518318179215621 0.1216050015840337 0.03259969837934959 319.4836179784206 108.6399435927219
117.61049319554543 1.0189345897359714 0.12370126977023699 0.03419210470702347 319.6659546827271 109.3941654142798
119.65602415051524 1.0905481505064962 0.12583367413711752 0.03592218882239359 319.8573917239201 110.15411877028433
121.73815641876267 1.1672766767204164 0.12800283761239192 0.03778190969818496 320.0588603075681 110.92020174565145
123.85759205422588 1.2493614886182018 0.1302093938620144 0.0396255479711905 320.27062777688235 111.69348487044105
126.01496433860267 1.3368161240061027 0.13245398747528928 0.041461386350795104 320.4925793312381 112.47517112638602
128.2110155783424 1.429932568241939 0.13473727415316794 0.04346252473119688 320.7250671173629 113.26594974297757
130.4466887956552 1.52951487508801 0.1370599208997976 0.045590760196347446 320.969220213987 114.06610244230104
132.72270298041246 1.6357091714792171 0.13942260621736857 0.04767926014436641 321.22510082538804 114.87651716166351
135.03976205186157 1.748593799706529 0.14182602030432198 0.04977029748745049 321.49267975935425 115.69799950047124
137.3986835249372 1.8685229353243933 0.14427086525697244 0.05206400529136951 321.77234677231564 116.53110782929468
139.80057355445675 1.9965668028217445 0.14675785527460983 0.05448295484632937 322.0654823434704 117.37614392238619
142.24614757531495 2.1327305435734982 0.1492877168681315 0.05683638595368079 322.37191652081754 118.23384218287305
144.73619757503982 2.2771938463603174 0.15186118907227755 0.059208520968313694 322.69174413674494 119.10477732777403
147.27162660197732 2.430390920319256 0.15447902366151722 0.0618292055008095 323.0254080857181 119.98940983187808
149.85374556019306 2.5937403356179334 0.15714198536966398 0.06457197399617759 323.3745941649684 120.88804723823948
152.4832372283129 2.7670401807274834 0.15985085211327107 0.06721882453614525 323.7388555425644 121.80124809303793
155.16100474728017 2.9506159576823916 0.1626064152188807 0.06990575565196155 324.1184454344821 122.72942464238325
157.8880490867394 3.1450019316856195 0.16540947965419006 0.07289593855263288 324.5138717435153 123.67293532678868
160.66593902373984 3.3520690822739376 0.16826086426320178 0.07600220080988451 324.92718571735776 124.63202719571277
163.4952840125817 3.5713158744339593 0.17116140200542868 0.07897532922519734 325.3576004812541 125.6070903482084
166.37712853614147 3.8032695276021222 0.17411194019922174 0.08202037368123771 325.8055622707938 126.59840218489457
169.31260061973967 4.048620249866702 0.17711334076929286 0.08542133552471287 326.2716886567447 127.60620334892384
172.303551331823 4.309718566586897 0.18016648049850292 0.0889270452590527 326.7583492276527 128.63058410314463
175.35050383107742 4.585737524453315 0.1832722512839939 0.09226446929582366 327.26444376458807 129.67181814230588
178.45466868853612 4.877441713994387 0.18643156039773165 0.09572802473872655 327.7906096931573 130.73004905217363
181.61738960046912 5.18586172672753 0.18964533075154347 0.09956214286511778 328.3377308078966 131.80536363429957
184.84067158507494 5.5134958934314255 0.19291450116672415 0.10348029397253222 328.90808973361146 132.89762523650757
188.12508868773136 5.859506730761704 0.19624002664828616 0.10723125726635341 329.50063467169656 134.00704679883177
191.47199658539387 6.224818666062787 0.19962287866394354 0.11114950466071183 330.116072530961 135.1336328978941
194.88301649425165 6.610906017540677 0.2030640454278977 0.11544544815415358 330.7555888744374 136.2772622126371
198.3602890613904 7.020342674256472 0.2065645321895225 0.11979382346787826 331.42129567013734 137.43754067535426
201.9044613376726 7.452308308070558 0.2101253615270204 0.12397650239191993 332.11220306471756 138.61467605675114
205.5170562570145 7.907903230714149 0.21374757364614289 0.1283699626450635 332.8290718474655 139.80852765902867
209.2000509218192 8.389163756231573 0.21743222668406043 0.1331367755092301 333.57341318817043 141.01869117551004
212.95568685700158 8.89862029273525 0.22118039701847075 0.1379109881763032 334.34705688852574 142.2445530860434
216.7847142491265 9.435507109353031 0.224993179582034 0.1425209986125906 335.149090910276 143.4863497980139
220.6888478651131 10.001107919216421 0.22887168818223044 0.1473848211915132 335.9803024130194 144.74379875149575
224.67051841244387 10.598148441577159 0.23281705582673115 0.15260238957125072 336.84253077264475 146.0161250814302
228.73201076449018 11.228941923303356 0.23683043505437643 0.1577674592771845 337.73719306437926 147.30260528428684
232.87421847820065 11.892825884399452 0.2409129982718618 0.16276966708385543 338.6634726746745 148.60351662363965
237.09907459677976 12.591262929879372 0.2450659380962259 0.1680647442175771 339.6221443059857 149.91845083271977
241.4095830266287 13.327795359770137 0.24929046770324403 0.17367604335428166 340.61534675451054 151.2461733723472
245.80798450797525 14.104290408314728 0.25358782118182577 0.17916063314688135 341.6439533067965 152.5860269646372
250.29536865638684 14.920249387540146 0.2579592538945237 0.18448376658109078 342.70726027181 153.9383214680799
254.87391430339358 15.777295306389933 0.26240604284425445 0.19013115054428797 343.8059831368225 155.30255316107613
259.54734193097937 16.679902122692877 0.2669294870473437 0.19603884001981875 344.9424917462097 156.67695034502995
264.3177234138911 17.62921742422393 0.2715309079130002 0.20173455319505607 346.11701155796936 158.06114921462316
269.1864120746621 18.624978432827973 0.2762116496293318 0.20727097595137622 347.328966229596 159.45546560193614
274.15586021544175 19.66893704821644 0.28097307955601647 0.2131521958171756 348.57896372915343 160.8593430130801
279.2306731431928 20.76658998854091 0.28581658862374093 0.21922189252154145 349.86949367684684 162.27041922778363
284.412585417037 21.918069468750467 0.29074359174052566 0.2249894143101847 351.2000887836266 163.68887481305947
289.7032992122702 23.123430865940225 0.29575552820505524 0.2306016920899494 352.5703075794808 165.1149897852477
295.1055673860831 24.38451504681977 0.300853862127132 0.23656661428271297 353.98060905644974 166.5482047162215
300.6250734626658 25.70790002720107 0.3060400828553784 0.24263779812409947 355.4334521442952 167.985546141962
306.2629978571605 27.092417065261266 0.3113157054123131 0.24831998114039466 356.9277197298895 169.42797804232237
312.0214966673664 28.538529352055203 0.3166822709369256 0.2538541104542591 358.4631014669581 170.8756920374787
317.9036494111742 30.048126085066315 0.3221413471348811 0.2597359108053192 360.03988091456415 172.3281747479247
323.9164360611114 31.628890065835524 0.32769452873648597 0.2656390932017807 361.66030746350987 173.78185544558517
330.06021547034334 33.278110584552124 0.3333434379625472 0.2710787578055842 363.3227610243933 175.23867305073648
336.3377248306841 34.996751726455315 0.3390897249982634 0.27638164452897485 365.0270429856405 176.69867300893014
342.75239563416363 36.78671837750218 0.3449350684752844 0.2820159576097043 366.7732551876847 178.16142771359964
349.3127469329602 38.65679115669434 0.35088117596208035 0.28759239956345484 368.5632457970251 179.62281308437977
356.0179982424811 40.60254779373834 0.3569297844627652 0.2926507180164095 370.39513942729127 181.08586093941702
362.87161894726887 42.62554485678177 0.3630826609245175 0.2976058496429581 372.26881070045994 182.55041400308298
369.8776838050342 44.72802159039085 0.3693416027537498 0.3028324596598386 374.18425749083553 184.01597196044224
377.04571989459646 46.91882012835673 0.3757084383411748 0.30793255850782497 376.1425479489815 185.47847044374714
384.37423920137996 49.19272886637786 0.3821850275959231 0.3125215544923945 378.1420680020603 186.9415202760738
391.8673537720589 51.551645656583794 0.38877326248886857 0.31704011341831206 380.18264288681297 188.40489537630313
399.53022857376277 53.998550771733285 0.3954750676053199 0.32159882522268113 382.2641765278808 189.86781153455445
416.25346716640735 59.458771552536525 0.409972774780878 0.002374696905102152 384.38684656688184 245.52902132469055
598.6571340560359 59.950583559244514 0.933124251417662 0.003017870197242107 386.54960838431725 182.17510356519233
1945.4449499202565 67.2128990551395 4.8567670412049795 0.01446138801063225 388.75217980057613 115.60877032516422
2682.879906641323 81.53916815790316 7.0435645256444035 0.18851688662946642 390.99427615507426 44.399826671978836
2762.646832888979 98.03552671783194 7.2739818729725885 0.6512642311481911 393.27543963785325 0.0
2784.5580442672435 114.98061419087303 7.329518157988608 0.7724986715725297 395.59516773161965 0.0
2807.0468462436393 132.33347886571525 7.386191739870042 0.7707634322208898 397.95311125729603 0.0
2830.1181784346304 150.09568579422955 7.443999255325485 0.7690183357834681 400.3486982341418 0.0
2853.7747546369374 168.26707329980053 7.502931870434027 0.7671229947876648 402.78113502043635 0.0
2878.0656459010206 186.87599263585395 7.563038971521393 0.7651899258044592 405.2503908250171 0.0
2902.9662483182265 205.9068019067397 7.624289590332355 0.7633868213743731 407.7560864453435 0.0
2928.473253372174 225.35541043520624 7.6866662926873115 0.7614858633876178 410.2972643916196 0.0
2954.620868501892 245.23977386350703 7.750191785819323 0.7594986389011371 412.8731075256692 0.0
2981.4151951375566 265.56347691021506 7.814876640393097 0.7576089030944955 415.48395412590855 0.0
3008.842039366333 286.3170652176391 7.8807005408847575 0.7556283208546777 418.12942481666244 0.0
3036.9479655998844 307.52415274833345 7.947689502235319 0.7535960501832539 420.80808286670407 0.0
3065.7019817483215 329.1652536181051 8.015803822349522 0.7516497124761266 423.519388423576 0.0
3095.1323252265493 351.25706998014914 8.085079895975156 0.7495948371513306 426.263926491692 0.0
3125.271965849889 373.8170947262548 8.155545171949134 0.7475832805601081 429.04133904117657 0.0
3156.069792292069 396.81165935674903 8.227118634945946 0.7455093154015682 431.84962364736657 0.0
3187.6035667084734 420.28421536967295 8.2998778584091 0.743442148421674 434.68879187402194 0.0
3219.8217641572787 444.2062889329114 8.373780628903006 0.7413536491407626 437.55954505588323 0.0
3252.817335528948 468.6288740446114 8.448914477859473 0.7392434482462313 440.4615602408136 0.0
3286.4924704880355 493.49088897741564 8.52514247509448 0.7371380588000189 443.39219174670734 0.0
3320.9529950149586 518.8524312890845 8.6025809141319 0.7349888661958079 446.35224304333093 0.0
3356.1491809153185 544.6863525870821 8.681189477120313 0.7328741684698379 449.3424024244641 0.0
3392.1531574674086 571.0313550714054 8.76103472558649 0.7306926794671487 452.3623894048231 0.0
3428.9008989388126 597.8439491997098 8.842003106251145 0.7285700296119488 455.4088468583903 0.0
3466.4436771131554 625.1554826568648 8.92417072571922 0.726365696259851 458.48357591050296 0.0
3504.8214641737623 652.9881657297526 9.007583942827965 0.7242067197434237 461.5871295346198 0.0
3544.006865667022 681.3255964668396 9.092211311209834 0.72200935221551 464.7192724425523 0.0
3584.0219134228864 710.169696359136 9.178012361989705 0.719763589739383 467.87587687666405 0.0
3624.880319369347 739.533543873147 9.265043138673786 0.7176237747010195 471.0599151315838 0.0
3666.5930611990143 769.4229029769102 9.3533177596063 0.7153745482456806 474.2716930347005 0.0
3709.2360320752086 799.8772582418452 9.442905858392862 0.7130976050118676 477.5110201023164 0.0
3752.708483778926 830.8298072357261 9.533634531301349 0.7109323377483125 480.77294680996494 0.0
3797.083058395402 862.328596864389 9.625636777804232 0.708688285987483 484.06176219100337 0.0
3842.4174251963523 894.4032509995612 9.71896615748267 0.7063946734082069 487.37742484726095 0.0
3888.70594671941 927.0483605553806 9.813607976211541 0.7041627106710724 490.71942709513365 0.0
3935.8846882528505 960.2174528050915 9.909428158669822 0.7019568742603255 494.0830324628434 0.0
3984.03932137267 993.9661193682366 10.006577195520531 0.6996719448106372 497.47289006040484 0.0
4033.228507034835 1028.3237501685353 10.105107533406775 0.6973608910757161 500.8888825459008 0.0
4083.429068590938 1063.2743564137431 10.20497979833098 0.6951119055144943 504.3299917615031 0.0
4134.594753070842 1098.7824762651774 10.306087711203931 0.6928726027804277 507.7922253856572 0.0
4186.8142172678545 1134.9047289461585 10.408582486563732 0.6906244126141257 511.2801267663313 0.0
4240.1096015962785 1171.6511828976134 10.512481876264577 0.6883187513933944 514.7936148893198 0.0
4294.511404300898 1209.0321111444478 10.617788002356702 0.6860017110268419 518.3310928584808 0.0
4349.965208737561 1247.0099276098447 10.72440021055827 0.6837355812614234 521.8894715714698 0.0
4406.556750990116 1285.6389279992998 10.832463220166812 0.6814709749820906 525.4730848306887 0.0
4464.3098777672385 1324.9298668859687 10.941996308920558 0.6792012210563492 529.0818842067226 0.0
4523.213041344433 1364.8694106162693 11.052951842841239 0.6769286376419359 532.7136335653959 0.0
4583.256158160114 1405.445419171194 11.165286327623162 0.674655018515578 536.3662857953279 0.0
4644.529892022476 1446.7136325962206 11.279143849731371 0.6723782441077635 540.0438741161018 0.0
4707.059993093847 1488.6855620937517 11.394545270349049 0.6700856022238515 543.7463790946406 0.0
4770.832822178461 1531.3445410289523 11.511429481253659 0.6677886429921909 547.4708712870953 0.0
4835.85063564522 1574.68764368143 11.629781896040983 0.6655103848730075 551.216467733508 0.0
4902.196694158198 1618.7655459412256 11.749733239028128 0.6632395478179092 554.9868210458568 0.0
4969.898682384246 1663.590530331858 11.871305903866723 0.6609686141901552 558.781937487146 0.0
5038.9179031006615 1709.1309840790286 11.994403596835209 0.6587003912908429 562.5981454122898 0.0
5109.2872277404795 1755.4027593880685 12.119059166128867 0.6564354911411954 566.4358348263322 0.0
5181.092851366796 1802.4564143000468 12.245398204274926 0.6541725111510619 570.2982070044372 0.0
5254.364607934099 1850.3050771759554 12.373444704839088 0.6519116271831855 574.1852909518561 0.0
5329.046645892736 1898.9060281407774 12.503073675328901 0.6496559761630323 578.0926279967849 0.0
5405.199959656008 1948.2928496568636 12.634364485728367 0.6474053351758595 582.021979385741 0.0
5482.906097657351 1998.5119662006935 12.767429576577658 0.6451586190450893 585.9760320290837 0.0
5562.197174535815 2049.5773983387858 12.902294557314873 0.6429045647233824 589.9548350790684 0.0
5643.009132869498 2101.439497722138 13.038812845158882 0.6406472158166512 593.9531011119569 0.0
5725.435521468203 2154.1519531435515 13.17711554916511 0.6384044070008592 597.9740527294582 0.0
5809.544170994656 2207.752444059232 13.31729292640669 0.636174679791619 602.019805726412 0.0
5895.369731466078 2262.255971668136 13.459372289526527 0.6339511149621408 606.0904271513187 0.0
5982.813393006285 2317.593070597972 13.603161604316158 0.6317372610827512 610.1797613821134 0.0
6072.008205886451 2373.8412071557223 13.748851251517756 0.6295308445287251 614.2925763096104 0.0
6163.020738893214 2431.035149070413 13.896519314518168 0.6273317007848895 618.4303648993331 0.0
6255.888207771629 2489.190889228862 14.04619477183259 0.6251276642795158 622.5932101621104 0.0
6350.501246622346 2548.230541238754 14.197660344395604 0.6229055692284113 626.7740504200112 0.0
6447.059362536845 2608.2681185922 14.351189491556898 0.6207008560447189 630.9792782513232 0.0
6545.5856104387885 2669.3152952797273 14.5068110420226 0.6185318691906296 635.2097160524316 0.0
6646.120055164831 2731.389154222018 14.664555743123938 0.6163455722960762 639.4654611461091 0.0
