e[MeV/fm^3], P[MeV/fm^3], rho[fm^-3], v2[1], mu_q[MeV], mu_e[MeV]
70.21755168181654 0.006206087273093519 0.07407856508846018 0.017597877650005332 316.5185077347417 89.2771661002368
71.43578994790998 0.027644495228360377 0.07535555647246353 0.0175978776500052 316.5894798429086 89.8124074562691
72.67502861766434 0.04945246571785267 0.07665456106626496 0.017597877650005228 316.6616753923034 90.35687548400062
73.93562970314778 0.07163636938565421 0.07797595834102777 0.01759787765000538 316.7351154730202 90.91072923592193
75.21796145691394 0.09420268669514797 0.07932013430936638 0.01759787765000533 316.8098215387112 91.47413050632369
76.5223984795798 0.11715800982215896 0.0806874816381126 0.01759787765000522 316.8858154128541 92.04724387856187
77.84932182925448 0.14050904458066893 0.08207839976302188 0.017597877650005325 316.96311929512683 92.630236773136
79.19911913285509 0.16426261238173973 0.08349329500545777 0.017597877650005436 317.0417557678931 93.22327949659658
80.57218469934486 0.18842565222626206 0.08493258069109116 0.017597877650005332 317.12174780279906 93.82654529129692
81.96891963491473 0.21300522273190858 0.08639667727063695 0.017597877650005284 317.20311876748366 94.44021038599915
83.38973196016327 0.23800850419525207 0.0878860124426853 0.017597877650005242 317.2858924324053 95.06445404735784
84.83503672928572 0.26344280068923775 0.08940102127863886 0.01759787765000527 317.37009297778565 95.69945863228664
86.3052561513196 0.28931554219685157 0.0909421463498059 0.01759787765000538 317.45574500067295 96.34540964122833
87.80081971348744 0.3156342867816875 0.09250983785669148 0.017597877650005325 317.54287352212793 97.00249577234631
89.32216430665855 0.3424067227958098 0.09410455376051008 0.01759787765000531 317.63150399453286 97.67090897664707
90.86973435297011 0.3696406711256137 0.09572675991696154 0.017597877650005242 317.7216623090265 98.3508445140514
92.44398193566516 0.39734408747669764 0.0973769302123309 0.017597877650005228 317.8133748030682 99.04250101043964
94.04536693114535 0.4255250646977123 0.09905554670190979 0.01759787765000531 317.90666826813106 99.74608051566989
95.67435714332068 0.45419183514462985 0.10076309975082554 0.017892055534992374 318.00156995752883 100.46178856260559
97.33169327479138 0.4843410207312542 0.10250008817728433 0.018775745774211428 318.10048622561175 101.18570399772256
99.01814146064449 0.5170082040359527 0.10426701939828847 0.020025246310001077 318.2058447860128 101.91428658825437
100.73429318912723 0.5525181669555139 0.1060644095778678 0.02129999675038627 318.31828524079526 102.64750316311726
102.48063871606901 0.5907964457966746 0.10789278377786223 0.022549781036994038 318.43751805132047 103.38670836290729
104.25774423592242 0.6320103592916358 0.10975267611130558 0.023887708108000116 318.5638120290785 104.13237516689382
106.06623539667063 0.676492214395437 0.11164462989845152 0.025339806313660923 318.697770868173 104.88465247088972
107.90674784282342 0.7245234535359056 0.11356919782549418 0.026726883379044414 318.8398212612412 105.64215664334085
109.77980899298537 0.7757858510810522 0.11552694210601787 0.028008654354195556 318.9889635986241 106.39548846211913
111.68603200563659 0.8304189676497289 0.11751843464523576 0.02941848660514751 319.1453310518051 107.14305877628786
113.62612253642692 0.8889903796251314 0.1195442572070575 0.0310000273545607 319.31003653378224 107.89037199216354
115.60075117782822 0.9518318179215621 0.1216050015840337 0.03259969837934959 319.4836179784206 108.6399435927219
117.61049319554543 1.0189345897359714 0.12370126977023699 0.03419210470702347 319.6659546827271 109.3941654142798
119.65602415051524 1.0905481505064962 0.12583367413711752 0.03592218882239359 319.8573917239201 110.15411877028433
121.73815641876267 1.1672766767204164 0.12800283761239192 0.03778190969818496 320.0588603075681 110.92020174565145
123.85759205422588 1.2493614886182018 0.1302093938620144 0.0396255479711905 320.27062777688235 111.69348487044105
126.01496433860267 1.3368161240061027 0.13245398747528928 0.041461386350795104 320.4925793312381 112.47517112638602
128.2110155783424 1.429932568241939 0.13473727415316794 0.04346252473119688 320.7250671173629 113.26594974297757
130.4466887956552 1.52951487508801 0.1370599208997976 0.045590760196347446 320.969220213987 114.06610244230104
132.72270298041246 1.6357091714792171 0.13942260621736857 0.04767926014436641 321.22510082538804 114.87651716166351
135.03976205186157 1.748593799706529 0.14182602030432198 0.04977029748745049 321.49267975935425 115.69799950047124
137.3986835249372 1.8685229353243933 0.14427086525697244 0.05206400529136951 321.77234677231564 116.53110782929468
139.80057355445675 1.9965668028217445 0.14675785527460983 0.05448295484632937 322.0654823434704 117.37614392238619
142.24614757531495 2.1327305435734982 0.1492877168681315 0.05683638595368079 322.37191652081754 118.23384218287305
144.73619757503982 2.2771938463603174 0.15186118907227755 0.059208520968313694 322.69174413674494 119.10477732777403
147.27162660197732 2.430390920319256 0.15447902366151722 0.0618292055008095 323.0254080857181 119.98940983187808
149.85374556019306 2.5937403356179334 0.15714198536966398 0.06457197399617759 323.3745941649684 120.88804723823948
152.4832372283129 2.7670401807274834 0.15985085211327107 0.06721882453614525 323.7388555425644 121.80124809303793
155.16100474728017 2.9506159576823916 0.1626064152188807 0.06990575565196155 324.1184454344821 122.72942464238325
157.8880490867394 3.1450019316856195 0.16540947965419006 0.07289593855263288 324.5138717435153 123.67293532678868
160.66593902373984 3.3520690822739376 0.16826086426320178 0.07600220080988451 324.92718571735776 124.63202719571277
163.4952840125817 3.5713158744339593 0.17116140200542868 0.07897532922519734 325.3576004812541 125.6070903482084
166.37712853614147 3.8032695276021222 0.17411194019922174 0.08202037368123771 325.8055622707938 126.59840218489457
169.31260061973967 4.048620249866702 0.17711334076929286 0.08542133552471287 326.2716886567447 127.60620334892384
172.303551331823 4.309718566586897 0.18016648049850292 0.0889270452590527 326.7583492276527 128.63058410314463
175.35050383107742 4.585737524453315 0.1832722512839939 0.09226446929582366 327.26444376458807 129.67181814230588
178.45466868853612 4.877441713994387 0.18643156039773165 0.09572802473872655 327.7906096931573 130.73004905217363
181.61738960046912 5.18586172672753 0.18964533075154347 0.09956214286511778 328.3377308078966 131.80536363429957
184.84067158507494 5.5134958934314255 0.19291450116672415 0.10348029397253222 328.90808973361146 132.89762523650757
188.12508868773136 5.859506730761704 0.19624002664828616 0.10723125726635341 329.50063467169656 134.00704679883177
191.47199658539387 6.224818666062787 0.19962287866394354 0.11114950466071183 330.116072530961 135.1336328978941
194.88301649425165 6.610906017540677 0.2030640454278977 0.11544544815415358 330.7555888744374 136.2772622126371
198.3602890613904 7.020342674256472 0.2065645321895225 0.11979382346787826 331.42129567013734 137.43754067535426
201.9044613376726 7.452308308070558 0.2101253615270204 0.12397650239191993 332.11220306471756 138.61467605675114
205.5170562570145 7.907903230714149 0.21374757364614289 0.12824935343505173 332.8290718474655 157.02258506085127
212.74001066495143 8.868768739637016 0.22096414290979263 0.009859865744410466 333.57341318817043 148.38285905510702
226.66570332240568 9.006074199637437 0.2701377686250909 0.009859865744410425 334.34705688852574 139.40301441714848
284.08495074742444 9.572220270393208 0.4726272225047129 0.014199403197934737 335.149090910276 130.0936373662311
331.1504221190702 10.407935488504522 0.6412007872439258 0.01891003087243885 335.9803024130194 121.40772228109836
377.19017074922294 11.330502113719461 0.8068346331984533 0.024026263312373203 336.84253077264475 112.61280764689394
416.6602377671096 12.413758325859764 0.9516745209824041 0.03171335496394334 337.73719306437926 104.14867550155961
451.073897515275 13.63320282101431 1.0806317856084662 0.03892037981448815 338.6634726746745 95.89957536051793
483.0255510971232 14.980172885703352 1.2034178991415443 0.04686679668296673 339.6221443059857 87.77142531468962
512.1193765585018 16.46849047174789 1.3189456934814452 0.05405425650179718 340.61534675451054 79.79826597241764
540.7300468458219 18.096568937038793 1.437429260494114 0.05958840030529117 341.6439533067965 71.85940712768875
568.9832376714469 19.855010164024705 1.5588986002910046 0.05979401906187337 342.70726027181 63.929848030699304
603.2513632731499 21.80243031207128 1.7203924351073068 0.05601898925386009 343.8059831368225 55.89748586988221
640.7406232147058 23.86932343400092 1.9019243186622519 0.18510497382751012 344.9424917462097 47.65382526489479
651.1577977255984 26.17381515663613 1.9467309609249899 0.2542976739768701 346.11701155796936 39.43422453761438
659.6547081646249 28.56380562239344 1.980799274888087 0.4178952219134171 347.328966229596 31.359574218811204
664.6438312064848 31.048952030448678 1.9955133375705438 0.5027778245502299 348.57896372915343 23.729682096151624
669.7440412590723 33.637546536515124 2.010273870995295 0.5090296544605688 349.86949367684684 16.56684636405056
675.0010877034189 36.321575057993634 2.0253615862400878 0.5114602047587415 351.2000887836266 9.576715097024271
680.4328801508659 39.10478272383853 2.0408274723964945 0.512072311120285 352.5703075794808 2.8353411013004752
686.0868350107494 41.99813429564947 2.0568239454841972 0.5113103045169884 353.98060905644974 0.7545546772589984
691.9615747752653 44.999329899539894 2.0733851302680706 0.5103817574240477 355.4334521442952 0.0
698.0602379402927 48.108920440369104 2.090512999276011 0.5093712874848721 356.9277197298895 0.0
704.3886999350583 51.329112114079855 2.108215789094602 0.5081613502811813 358.4631014669581 0.0
710.974518350366 54.67110078235975 2.1265402782592058 0.5069145767683736 360.03988091456415 0.0
717.8141375122711 58.13438391563127 2.1454905409534786 0.5058026378789049 361.66030746350987 0.0
724.9078701759543 61.718340361695674 2.1650590851564617 0.5046577935279091 363.3227610243933 0.0
732.2625811590472 65.42560020278026 2.1852558581383557 0.5034800130279762 365.0270429856405 0.0
739.8865516885849 69.25948577608746 2.2060944612269098 0.5022729487331112 366.7732551876847 0.0
747.7960179936623 73.22727654257696 2.227609771720543 0.5010390480188214 368.5632457970251 0.0
755.9909588656359 77.32806698547759 2.249792123024051 0.4997832131607991 370.39513942729127 0.0
764.479071881879 81.56481564070111 2.2726527524947184 0.49850852033526927 372.26881070045994 0.0
773.2687399317109 85.94080102644855 2.2962044992979767 0.4972176644917141 374.18425749083553 0.0
782.3735196150661 90.46184190699357 2.3204736763158085 0.495912708261657 376.1425479489815 0.0
791.7946041356928 95.12759793684062 2.3454534177577835 0.4945972398190417 378.1420680020603 0.0
801.5398806704011 99.94104318672404 2.3711545886382117 0.4932733197383943 380.18264288681297 0.0
811.6177233641104 104.90537225455905 2.397589112503889 0.49194293748286455 382.2641765278808 0.0
822.0379828624106 110.02448329142779 2.424772518522828 0.4906077620731919 384.38684656688184 0.0
832.8045789324802 115.29934508135801 2.452704681988069 0.48926999228046686 386.54960838431725 0.0
843.925182513473 120.73275942907229 2.4813951447969944 0.4879311331195897 388.75217980057613 0.0
855.4075260114604 126.32754232132912 2.5108534223529144 0.4865700402632198 390.99427615507426 0.0
867.2643733433785 132.08839211958377 2.5410957898437716 0.4851366981367038 393.27543963785325 0.0
879.5165179991113 138.02311216311423 2.572150388098814 0.4837188539215509 395.59516773161965 0.0
892.1545383541605 144.12771425993884 2.6039994040759917 0.4823739310784205 397.95311125729603 0.0
905.18484498459 150.4043175054798 2.6366483186399026 0.4810348842268146 400.3486982341418 0.0
918.6126127190054 156.8544401322571 2.6700994368477025 0.4795968518838647 402.78113502043635 0.0
932.4808038724418 163.49469287560098 2.7044160918290325 0.4781439661552538 405.2503908250171 0.0
946.7701888016169 170.31724417066602 2.739565368927057 0.4768038657204121 407.7560864453435 0.0
961.481397536297 177.32172982706086 2.7755414310120727 0.47540673444834525 410.2972643916196 0.0
976.6473051310846 184.5203562033981 2.8123870969547076 0.47396092729872663 412.8731075256692 0.0
992.2731601743693 191.91517081137164 2.850110039516608 0.47260057427098 415.48395412590855 0.0
1008.3485662482592 199.50180519258242 2.888690894616947 0.4711919127314461 418.12942481666244 0.0
1024.9196142551311 207.29716250138245 2.928187258203602 0.4697602191944821 420.80808286670407 0.0
1041.9617284191395 215.29130090297943 2.9685578487478197 0.46840512592088945 423.519388423576 0.0
1059.4990076030758 223.49364815434356 3.0098389720919974 0.466990347366977 426.263926491692 0.0
1077.56283826051 231.91590713743267 3.052071645247278 0.4656191784652979 429.04133904117657 0.0
1096.1151671567593 240.54220975343299 3.095186997288779 0.4642233600693171 431.84962364736657 0.0
1115.226471853987 249.3993967889923 3.1392834870558772 0.46284463265499287 434.68879187402194 0.0
1134.849546515173 258.46957855521094 3.184295464137899 0.4614702799618664 437.55954505588323 0.0
1155.0701639012416 267.7851666320414 3.2303397587618345 0.46009379310558174 440.4615602408136 0.0
1175.8100804304463 277.31463090132337 3.277287362892923 0.4587388328533768 443.39219174670734 0.0
1197.1636505902063 287.0941672498689 3.3252724688378894 0.4573681630946993 446.35224304333093 0.0
1219.0847752253258 297.10639331340286 3.374232059201539 0.45603683094644865 449.3424024244641 0.0
1241.641422580931 307.37676439132576 3.424255571012589 0.45467695737951086 452.3623894048231 0.0
1264.7880481042966 317.88585612719015 3.475255863723091 0.4533693163506447 455.4088468583903 0.0
1288.5667592439997 328.6504350199791 3.527299000695753 0.4520264282587174 458.48357591050296 0.0
1313.0139915325717 339.68434631911674 3.5804345066910566 0.4507248898312888 461.5871295346198 0.0
1338.106690416138 350.9785159761448 3.634626403284749 0.44941630351362427 464.7192724425523 0.0
1363.8816407108682 362.544154575416 3.6898936445871686 0.44809238560219544 467.87587687666405 0.0
1390.3425093065525 374.38412147266916 3.7462567975243317 0.44684521290737056 471.0599151315838 0.0
1417.4998484841676 386.50233779093736 3.803728600367742 0.44554955176434596 474.2716930347005 0.0
1445.4271809280926 398.9260211690518 3.8624008622355235 0.44425109106005944 477.5110201023164 0.0
1474.050196722011 411.62403744495936 3.9221381285116546 0.44303047206511526 480.77294680996494 0.0
1503.422675010615 424.6188825259786 3.9830363732431944 0.44177959434727043 484.06176219100337 0.0
1533.6011000780168 437.9313719966771 4.045164419472531 0.44051451927029905 487.37742484726095 0.0
1564.58402237871 451.5603469937448 4.1085122411774275 0.4392969676910239 490.71942709513365 0.0
1596.3308891238898 465.4874659769389 4.172990130310915 0.4381067368342233 494.0830324628434 0.0
1628.906862846456 479.73963237918633 4.238710162933421 0.4368874926996842 497.47289006040484 0.0
1662.3706041024711 494.3382792971784 4.305741042459201 0.4356670919733965 500.8888825459008 0.0
1696.7060267094307 509.2764627429757 4.374050064250206 0.4344925233020005 504.3299917615031 0.0
1731.8867752766691 524.541554014102 4.44357017555042 0.4333354736961006 507.7922253856572 0.0
1767.9817557113138 540.1617102462006 4.514416177450544 0.43218606144306637 511.2801267663313 0.0
1805.0147690241047 556.145379065654 4.586612029126519 0.4310200558288644 514.7936148893198 0.0
1843.0244213951232 572.5054446980943 4.66018767395205 0.42986033725189277 518.3310928584808 0.0
1881.973012500909 589.2256140496883 4.735067803225063 0.42873830685530034 521.8894715714698 0.0
1921.927920832438 606.3332764842287 4.811362532467761 0.42762873571114035 525.4730848306887 0.0
1962.914927523829 623.8375622691748 4.889097205579505 0.4265281575311075 529.0818842067226 0.0
2004.9347084338967 641.7368771543485 4.968249392449787 0.42543757689418804 532.7136335653959 0.0
2047.9886589199052 660.0300022135804 5.048798702912785 0.42435771554277224 536.3662857953279 0.0
2092.150744286528 678.7464835634865 5.130859575858126 0.42328742515156037 540.0438741161018 0.0
2137.448968769915 697.8962160030259 5.214458874334568 0.42222075758335365 543.7463790946406 0.0
2183.8856171174484 717.477635600995 5.299568860212079 0.4211628871224473 547.4708712870953 0.0
2231.469516766525 737.492979585948 5.386186046928862 0.42012427447796874 551.216467733508 0.0
2280.2694243363026 757.9695603923368 5.474414372944853 0.4190994620553301 554.9868210458568 0.0
2330.3155995709412 778.9180489552964 5.564282211922312 0.4180848115579874 558.781937487146 0.0
2381.5891419079267 800.3285569881906 5.655729739520579 0.41708140710682073 562.5981454122898 0.0
2434.1239260176644 822.2133134879371 5.748792078502213 0.4160893366858085 566.4358348263322 0.0
2487.9942146366707 844.6012553625833 5.843574340944021 0.41510780789749724 570.2982070044372 0.0
2543.2327914264342 867.5039197013642 5.940106547294222 0.41413672545911595 574.1852909518561 0.0
2599.80766983787 890.9060236907457 6.0383058015576925 0.41317725195604194 578.0926279967849 0.0
2657.7749546073424 914.8288079090696 6.138242998244075 0.41222909956698217 582.021979385741 0.0
2717.2071857618 939.3001393900655 6.240015298297798 0.4112916250399481 585.9760320290837 0.0
2778.139833803141 964.3324761615722 6.343654433523239 0.4103600616435674 589.9548350790684 0.0
2840.537268415788 989.9085167582039 6.449064188714403 0.40943592195862344 593.9531011119569 0.0
2904.482003715073 1016.0600785716255 6.556356328049435 0.40852634888978745 597.9740527294582 0.0
2970.035893542646 1042.8106672447122 6.6656095433230345 0.4076305219248333 602.019805726412 0.0
3037.23741342952 1070.1737684737313 6.7768574271655035 0.4067454046072676 606.0904271513187 0.0
3106.0200747711533 1098.1202182267689 6.889960771523524 0.4058722127586041 610.1797613821134 0.0
3176.499439677632 1126.6948829401508 7.005080358224825 0.4050098491309555 614.2925763096104 0.0
3248.73979179947 1155.9216001226755 7.1222900226494215 0.4041580628521553 618.4303648993331 0.0
3322.7826487503953 1185.8148956560583 7.24162520376506 0.40331206520720286 622.5932101621104 0.0
3398.556038321714 1216.3428377874752 7.362930045313328 0.40246679181954637 626.7740504200112 0.0
3476.236718967958 1247.5734486369463 7.486443269890304 0.4016354692842299 630.9792782513232 0.0
3555.8475514848988 1279.515114019305 7.612187511249045 0.4008248826808716 635.2097160524316 0.0
3637.433449639012 1312.1835187645472 7.740200213776904 0.4000097096780344 639.4654611461091 0.0
