e[MeV/fm^3], P[MeV/fm^3], rho[fm^-3], v2[1], mu_q[MeV], mu_e[MeV]
70.21755168181654 0.006206087273093519 0.07407856508846018 0.017597877650005332 316.5185077347417 89.2771661002368
71.43578994790998 0.027644495228360377 0.07535555647246353 0.0175978776500052 316.5894798429086 89.8124074562691
72.67502861766434 0.04945246571785267 0.07665456106626496 0.017597877650005228 316.6616753923034 90.35687548400062
73.93562970314778 0.07163636938565421 0.07797595834102777 0.01759787765000538 316.7351154730202 90.91072923592193
75.21796145691394 0.09420268669514797 0.07932013430936638 0.01759787765000533 316.8098215387112 91.47413050632369
76.5223984795798 0.11715800982215896 0.0806874816381126 0.01759787765000522 316.8858154128541 92.04724387856187
77.84932182925448 0.14050904458066893 0.08207839976302188 0.017597877650005325 316.96311929512683 92.630236773136
79.19911913285509 0.16426261238173973 0.08349329500545777 0.017597877650005436 317.0417557678931 93.22327949659658
80.57218469934486 0.18842565222626206 0.08493258069109116 0.017597877650005332 317.12174780279906 93.82654529129692
81.96891963491473 0.21300522273190858 0.08639667727063695 0.017597877650005284 317.20311876748366 94.44021038599915
83.38973196016327 0.23800850419525207 0.0878860124426853 0.017597877650005242 317.2858924324053 95.06445404735784
84.83503672928572 0.26344280068923775 0.08940102127863886 0.01759787765000527 317.37009297778565 95.69945863228664
86.3052561513196 0.28931554219685157 0.0909421463498059 0.01759787765000538 317.45574500067295 96.34540964122833
87.80081971348744 0.3156342867816875 0.09250983785669148 0.017597877650005325 317.54287352212793 97.00249577234631
89.32216430665855 0.3424067227958098 0.09410455376051008 0.01759787765000531 317.63150399453286 97.67090897664707
90.86973435297011 0.3696406711256137 0.09572675991696154 0.017597877650005242 317.7216623090265 98.3508445140514
92.44398193566516 0.39734408747669764 0.0973769302123309 0.017597877650005228 317.8133748030682 99.04250101043964
94.04536693114535 0.4255250646977123 0.09905554670190979 0.01759787765000531 317.90666826813106 99.74608051566989
95.67435714332068 0.45419183514462985 0.10076309975082554 0.017892055534992374 318.00156995752883 100.46178856260559
97.33169327479138 0.4843410207312542 0.10250008817728433 0.018775745774211428 318.10048622561175 101.18570399772256
99.01814146064449 0.5170082040359527 0.10426701939828847 0.020025246310001077 318.2058447860128 101.91428658825437
100.73429318912723 0.5525181669555139 0.1060644095778678 0.02129999675038627 318.31828524079526 102.64750316311726
102.48063871606901 0.5907964457966746 0.10789278377786223 0.022549781036994038 318.43751805132047 103.38670836290729
104.25774423592242 0.6320103592916358 0.10975267611130558 0.023887708108000116 318.5638120290785 104.13237516689382
106.06623539667063 0.676492214395437 0.11164462989845152 0.025339806313660923 318.697770868173 104.88465247088972
107.90674784282342 0.7245234535359056 0.11356919782549418 0.026726883379044414 318.8398212612412 105.64215664334085
109.77980899298537 0.7757858510810522 0.11552694210601787 0.028008654354195556 318.9889635986241 106.39548846211913
111.68603200563659 0.8304189676497289 0.11751843464523576 0.02941848660514751 319.1453310518051 107.14305877628786
113.62612253642692 0.8889903796251314 0.1195442572070575 0.0310000273545607 319.31003653378224 107.89037199216354
115.60075117782822 0.9518318179215621 0.1216050015840337 0.03259969837934959 319.4836179784206 108.6399435927219
117.61049319554543 1.0189345897359714 0.12370126977023699 0.03419210470702347 319.6659546827271 109.3941654142798
119.65602415051524 1.0905481505064962 0.12583367413711752 0.03592218882239359 319.8573917239201 110.15411877028433
121.73815641876267 1.1672766767204164 0.12800283761239192 0.03778190969818496 320.0588603075681 110.92020174565145
123.85759205422588 1.2493614886182018 0.1302093938620144 0.0396255479711905 320.27062777688235 111.69348487044105
126.01496433860267 1.3368161240061027 0.13245398747528928 0.041461386350795104 320.4925793312381 112.47517112638602
128.2110155783424 1.429932568241939 0.13473727415316794 0.04346252473119688 320.7250671173629 113.26594974297757
130.4466887956552 1.52951487508801 0.1370599208997976 0.045590760196347446 320.969220213987 114.06610244230104
132.72270298041246 1.6357091714792171 0.13942260621736857 0.04767926014436641 321.22510082538804 114.87651716166351
135.03976205186157 1.748593799706529 0.14182602030432198 0.04977029748745049 321.49267975935425 115.69799950047124
137.3986835249372 1.8685229353243933 0.14427086525697244 0.05206400529136951 321.77234677231564 116.53110782929468
139.80057355445675 1.9965668028217445 0.14675785527460983 0.05448295484632937 322.0654823434704 117.37614392238619
142.24614757531495 2.1327305435734982 0.1492877168681315 0.05683638595368079 322.37191652081754 118.23384218287305
144.73619757503982 2.2771938463603174 0.15186118907227755 0.059208520968313694 322.69174413674494 119.10477732777403
147.27162660197732 2.430390920319256 0.15447902366151722 0.0618292055008095 323.0254080857181 119.98940983187808
149.85374556019306 2.5937403356179334 0.15714198536966398 0.06457197399617759 323.3745941649684 120.88804723823948
152.4832372283129 2.7670401807274834 0.15985085211327107 0.06721882453614525 323.7388555425644 121.80124809303793
155.16100474728017 2.9506159576823916 0.1626064152188807 0.06990575565196155 324.1184454344821 122.72942464238325
157.8880490867394 3.1450019316856195 0.16540947965419006 0.07289593855263288 324.5138717435153 123.67293532678868
160.66593902373984 3.3520690822739376 0.16826086426320178 0.07600220080988451 324.92718571735776 124.63202719571277
163.4952840125817 3.5713158744339593 0.17116140200542868 0.07897532922519734 325.3576004812541 125.6070903482084
166.37712853614147 3.8032695276021222 0.17411194019922174 0.08202037368123771 325.8055622707938 126.59840218489457
169.31260061973967 4.048620249866702 0.17711334076929286 0.08542133552471287 326.2716886567447 127.60620334892384
172.303551331823 4.309718566586897 0.18016648049850292 0.0889270452590527 326.7583492276527 128.63058410314463
175.35050383107742 4.585737524453315 0.1832722512839939 0.09226446929582366 327.26444376458807 129.67181814230588
178.45466868853612 4.877441713994387 0.18643156039773165 0.09572802473872655 327.7906096931573 130.73004905217363
181.61738960046912 5.18586172672753 0.18964533075154347 0.09956214286511778 328.3377308078966 131.80536363429957
184.84067158507494 5.5134958934314255 0.19291450116672415 0.10348029397253222 328.90808973361146 132.89762523650757
188.12508868773136 5.859506730761704 0.19624002664828616 0.10723125726635341 329.50063467169656 134.00704679883177
191.47199658539387 6.224818666062787 0.19962287866394354 0.11114950466071183 330.116072530961 135.1336328978941
194.88301649425165 6.610906017540677 0.2030640454278977 0.11544544815415358 330.7555888744374 136.2772622126371
198.3602890613904 7.020342674256472 0.2065645321895225 0.11979382346787826 331.42129567013734 137.43754067535426
201.9044613376726 7.452308308070558 0.2101253615270204 0.12397650239191993 332.11220306471756 138.61467605675114
205.5170562570145 7.907903230714149 0.21374757364614289 0.1283699626450635 332.8290718474655 139.80852765902867
209.2000509218192 8.389163756231573 0.21743222668406043 0.1331367755092301 333.57341318817043 141.01869117551004
212.95568685700158 8.89862029273525 0.22118039701847075 0.1379109881763032 334.34705688852574 142.2445530860434
216.7847142491265 9.435507109353031 0.224993179582034 0.1425209986125906 335.149090910276 299.7652911429975
220.6888478651131 10.001107919216421 0.22887168818223044 0.1473848211915132 335.9803024130194 293.3475382239909
224.67051841244387 10.598148441577159 0.23281705582673115 0.15260238957125072 336.84253077264475 286.69030531326644
228.73201076449018 11.228941923303356 0.23683043505437643 0.1577674592771845 337.73719306437926 279.7826512260047
232.87421847820065 11.892825884399452 0.2409129982718618 0.16276966708385543 338.6634726746745 272.6308810048654
237.09907459677976 12.591262929879372 0.2450659380962259 0.1680647442175771 339.6221443059857 265.22901320117114
241.4095830266287 13.327795359770137 0.24929046770324403 0.17367604335428166 340.61534675451054 257.56053424948783
245.80798450797525 14.104290408314728 0.25358782118182577 0.17916063314688135 341.6439533067965 249.61870153704925
250.29536865638684 14.920249387540146 0.2579592538945237 0.18448376658109078 342.70726027181 241.40894823600243
254.87391430339358 15.777295306389933 0.26240604284425445 0.19013115054428797 343.8059831368225 232.92575009588955
259.54734193097937 16.679902122692877 0.2669294870473437 0.19603884001981875 344.9424917462097 224.15080963693515
264.3177234138911 17.62921742422393 0.2715309079130002 0.20173455319505607 346.11701155796936 215.08238610637352
269.1864120746621 18.624978432827973 0.2762116496293318 0.20727097595137622 347.328966229596 205.72492942312917
274.15586021544175 19.66893704821644 0.28097307955601647 0.2131521958171756 348.57896372915343 196.07374548852434
279.2306731431928 20.76658998854091 0.28581658862374093 0.21922189252154145 349.86949367684684 186.10961203808543
284.412585417037 21.918069468750467 0.29074359174052566 0.22520071417586252 351.2000887836266 175.83613699308466
289.8022552403741 23.146184482358073 0.2958555705099543 0.023302084403758416 352.5703075794808 165.25672892696934
341.378228958351 24.521031872215936 0.482307850451937 0.030011398241307385 353.98060905644974 155.01658690611674
389.73940191746584 26.124541099097534 0.6583116901839697 0.03756471538524325 355.4334521442952 144.9089754476845
433.62029524003935 27.948412334613575 0.8195537212320932 0.046993280686228656 356.9277197298895 134.98006438610471
473.0067271201725 29.991242945034493 0.9659738472957294 0.06002260745546967 358.4631014669581 125.25573650822068
507.18319150938385 32.284482554607045 1.0949904496958882 0.07410514578191496 360.03988091456415 115.8556828759174
538.1291098566231 34.7740246654556 1.2129892065401038 0.08792178391255645 361.66030746350987 106.63676515716539
566.3786654308416 37.45050684371708 1.3220598193571491 0.1020893927048172 363.3227610243933 97.6385555697639
592.6646409507467 40.31368076331609 1.4253449356507322 0.1157419068897464 365.0270429856405 88.83563343574836
617.6438815342045 43.366665245826155 1.525806027829037 0.12846069087691114 366.7732551876847 80.1850921591571
641.7958930293711 46.614962764438765 1.625824196007418 0.13916227431341632 368.5632457970251 71.65971266289604
665.752509507419 50.05975434294558 1.7290646797500326 0.14504518649693743 370.39513942729127 63.239363154336836
690.6948874352768 53.710046215611946 1.8430561170906699 0.1409212213260954 372.26881070045994 54.87427234685277
719.4831911183563 57.5865792740632 1.9872524788658754 0.1315295024084323 374.18425749083553 46.463703183606924
751.7902266268076 61.72253454739924 2.161434226700958 0.4101110057099726 376.1425479489815 37.872145462046305
760.7021435463615 66.07088982001325 2.1859034326058024 0.4918073711238722 378.1420680020603 29.38258370663575
769.7541897668991 70.55844039628114 2.2100783390151824 0.4966304089939686 380.18264288681297 21.346940536531783
779.0550395471735 75.18594026019652 2.234609588754299 0.49759312077303486 382.2641765278808 13.70930186403227
788.6421060682765 79.956971297756 2.259664381093429 0.4972419379646018 384.38684656688184 6.41639388265665
798.5358987416348 84.87238432800726 2.2853400411647895 0.4961879226490513 386.54960838431725 1.2435892721555442
808.7517835599242 89.93473798799653 2.3116968226304198 0.4948606205221484 388.75217980057613 0.0
819.2986626392822 95.14660323262873 2.3387554202418075 0.4934610571454101 390.99427615507426 0.0
830.1881731508269 100.51227343130297 2.366530759481634 0.49198575525497645 393.27543963785325 0.0
841.4392215111426 106.03889021834843 2.395048243640865 0.4905260135897045 395.59516773161965 0.0
853.0432038061255 111.7227708129764 2.4242916812001103 0.4891409412898291 397.95311125729603 0.0
865.005925150876 117.56583394962087 2.4542659404755467 0.48776154514961867 400.3486982341418 0.0
877.3320557029144 123.56943866342723 2.484972976094417 0.4862797319476124 402.78113502043635 0.0
890.0606992939205 129.74882178546002 2.5164701454224945 0.48478223012283017 405.2503908250171 0.0
903.1743206436049 136.09677140939675 2.5487275740630135 0.4834005650706379 407.7560864453435 0.0
916.673442943312 142.61291105871652 2.5817398146461423 0.4819596755163449 410.2972643916196 0.0
930.5879470115756 149.30840230027763 2.615545512345772 0.4804681858604818 412.8731075256692 0.0
944.9226117420284 156.18512400597396 2.650151674390003 0.47906445961596056 415.48395412590855 0.0
959.667945676201 163.23904441399827 2.6855406991469932 0.47761043091915933 418.12942481666244 0.0
974.8658244311094 170.48560453988503 2.7217645119505955 0.4761322605981615 420.80808286670407 0.0
990.4938430985171 177.91565392332524 2.75878563291572 0.4747327547138207 423.519388423576 0.0
1006.57394556183 185.53784748472268 2.7966370446805144 0.4732711916336356 426.263926491692 0.0
1023.1346638818724 193.36288939766433 2.8353558384403446 0.47185431877383 429.04133904117657 0.0
1040.1412667606985 201.3761438178964 2.8748792993796024 0.47041151437267903 431.84962364736657 0.0
1057.6578687374645 209.60220179811648 2.9152966083358396 0.4689860497272038 434.68879187402194 0.0
1075.641533539446 218.02467840446477 2.9565484218813793 0.46756463610320775 437.55954505588323 0.0
1094.17026899532 226.67325043940983 2.9987405047647906 0.46614070148170494 440.4615602408136 0.0
1113.1727525484077 235.51890772448976 3.0417555649647006 0.46473857456034473 443.39219174670734 0.0
1132.734841800233 244.59483021788031 3.0857152825975795 0.4633198733046031 446.35224304333093 0.0
1152.8146142583637 253.88510413488038 3.130562696376818 0.46194145787741014 449.3424024244641 0.0
1173.473866359111 263.41302009545274 3.1763787676613964 0.4605331536007533 452.3623894048231 0.0
1194.6709935387162 273.160634700443 3.223084005941509 0.459178558933127 455.4088468583903 0.0
1216.4443623344341 283.14335979678845 3.270738551634685 0.4577870816588181 458.48357591050296 0.0
1238.827116481592 293.3738770051444 3.3193873558919607 0.4564381137572262 461.5871295346198 0.0
1261.7982587096312 303.8438516553066 3.3689977924181025 0.4550814528573097 464.7192724425523 0.0
1285.391021449004 314.5633560330951 3.4195863372282655 0.45370856934938164 467.87587687666405 0.0
1309.6088618543404 325.53511237620904 3.4711721188084774 0.4524149273142104 471.0599151315838 0.0
1334.461371668558 336.7627055106776 3.523766727142616 0.451070627584679 474.2716930347005 0.0
1360.015371430246 348.2710146757813 3.577453288551452 0.4497231085008595 477.5110201023164 0.0
1386.2030256374321 360.03131537507954 3.632108283932914 0.4484560392001571 480.77294680996494 0.0
1413.0734252018237 372.06435889533293 3.687819363408051 0.44715722931129953 484.06176219100337 0.0
1440.6778977503936 384.38916517808116 3.7446488586230475 0.44584336395329416 487.37742484726095 0.0
1469.0150746558647 397.0046288370472 3.8025876042219258 0.444578541460082 490.71942709513365 0.0
1498.0478247104786 409.8937407788047 3.861553552319642 0.44334180017414226 494.0830324628434 0.0
1527.8356005711591 423.08129513988285 3.9216489982254408 0.44207459967609 497.47289006040484 0.0
1558.4316923058198 436.58686227979575 3.9829361528775524 0.44080590473176606 500.8888825459008 0.0
1589.8213985718892 450.40402194783036 4.045385223676608 0.43958455992493395 504.3299917615031 0.0
1621.9805291833761 464.5210203264541 4.108934807991444 0.4383811517421021 507.7922253856572 0.0
1654.971928064232 478.9637877654275 4.17368965179018 0.43718541345024864 511.2801267663313 0.0
1688.8171968080878 493.7400188186475 4.239671444049651 0.4359721285842655 514.7936148893198 0.0
1723.551306303326 508.86138709650766 4.306907040336063 0.43476511814817265 518.3310928584808 0.0
1759.1397998976984 524.3128282293808 4.3753277113134645 0.4335970640399571 521.8894715714698 0.0
1795.6441166490058 540.1195558708453 4.445033923867826 0.4324417241533789 525.4730848306887 0.0
1833.0876536566773 556.2898847431222 4.51604862678421 0.4312954975578389 529.0818842067226 0.0
1871.4708729614597 572.8222221260962 4.588351129860378 0.4301594369997028 532.7136335653959 0.0
1910.794899534595 589.7153263012087 4.661922622298175 0.42903430116571695 536.3662857953279 0.0
1951.1271355910806 606.9963616329153 4.736867436771205 0.42791890038666835 540.0438741161018 0.0
1992.4929939026329 624.6743372688642 4.813209903029172 0.42680703894167316 543.7463790946406 0.0
2034.8943520800162 642.7476467210428 4.890924407054398 0.42570411799374064 547.4708712870953 0.0
2078.339148003884 661.2182588047949 4.970007643938767 0.4246210503893817 551.216467733508 0.0
2122.8900247895194 680.1112737349422 5.05055437160312 0.42355215518606215 554.9868210458568 0.0
2168.5744402979813 699.4364056713474 5.132590292454393 0.42249364606340745 558.781937487146 0.0
2215.374978170547 719.1844039104226 5.216060605114736 0.42144666076099746 562.5981454122898 0.0
2263.3223998663507 739.3664227897397 5.30099718945255 0.42041129800694765 566.4358348263322 0.0
2312.4843185653635 760.0090169770264 5.387495791004938 0.4193867375461844 570.2982070044372 0.0
2362.8904803918344 781.1226872329102 5.475583607685869 0.4183728863993874 574.1852909518561 0.0
2414.5115304023843 802.6932116411417 5.565184808508531 0.4173709650048192 578.0926279967849 0.0
2467.3984984545414 824.7400386753264 5.656363904350182 0.41638067952937075 582.021979385741 0.0
2521.6173963892543 847.2887133382301 5.7492093527502774 0.41540136461527855 585.9760320290837 0.0
2577.200406210283 870.3505726600326 5.843749905175643 0.41442804479622364 589.9548350790684 0.0
2634.1148060715836 893.909500398246 5.939897527762439 0.41346230608707835 593.9531011119569 0.0
2692.435694094163 917.994671140707 6.037753995135605 0.41251161859831686 597.9740527294582 0.0
2752.219336541768 942.6276136182827 6.137390940201352 0.41157513180471383 602.019805726412 0.0
2813.5006395726664 967.8205978661747 6.23883880299248 0.4106496788599907 606.0904271513187 0.0
2876.218799580459 993.5466326149472 6.341970461918134 0.4097365371247479 610.1797613821134 0.0
2940.4790176544866 1019.846879358859 6.446932349742568 0.4088345652630041 614.2925763096104 0.0
3006.339721551835 1046.7431284421311 6.553791596439873 0.4079435066286603 618.4303648993331 0.0
3073.8385751612323 1074.2485942611672 6.662580317152442 0.40705835527482304 622.5932101621104 0.0
3142.909730238412 1102.3337015270138 6.773156159133285 0.4061738145939042 626.7740504200112 0.0
3213.7140476133327 1131.0608132314476 6.885736425147577 0.4053037323124178 630.9792782513232 0.0
3286.2722982130867 1160.4375878405772 7.00034175485294 0.404455214511235 635.2097160524316 0.0
3360.6252244401403 1190.4782917521568 7.117006082324018 0.40360185697088724 639.4654611461091 0.0
