e[MeV/fm^3], P[MeV/fm^3], rho[fm^-3], v2[1], mu_q[MeV], mu_e[MeV]
70.21755168181654 0.006206087273093519 0.07407856508846018 0.017597877650005332 316.5185077347417 89.2771661002368
71.43578994790998 0.027644495228360377 0.07535555647246353 0.0175978776500052 316.5894798429086 89.8124074562691
72.67502861766434 0.04945246571785267 0.07665456106626496 0.017597877650005228 316.6616753923034 90.35687548400062
73.93562970314778 0.07163636938565421 0.07797595834102777 0.01759787765000538 316.7351154730202 90.91072923592193
75.21796145691394 0.09420268669514797 0.07932013430936638 0.01759787765000533 316.8098215387112 91.47413050632369
76.5223984795798 0.11715800982215896 0.0806874816381126 0.01759787765000522 316.8858154128541 92.04724387856187
77.84932182925448 0.14050904458066893 0.08207839976302188 0.017597877650005325 316.96311929512683 92.630236773136
79.19911913285509 0.16426261238173973 0.08349329500545777 0.017597877650005436 317.0417557678931 93.22327949659658
80.57218469934486 0.18842565222626206 0.08493258069109116 0.017597877650005332 317.12174780279906 93.82654529129692
81.96891963491473 0.21300522273190858 0.08639667727063695 0.017597877650005284 317.20311876748366 94.44021038599915
83.38973196016327 0.23800850419525207 0.0878860124426853 0.017597877650005242 317.2858924324053 95.06445404735784
84.83503672928572 0.26344280068923775 0.08940102127863886 0.01759787765000527 317.37009297778565 95.69945863228664
86.3052561513196 0.28931554219685157 0.0909421463498059 0.01759787765000538 317.45574500067295 96.34540964122833
87.80081971348744 0.3156342867816875 0.09250983785669148 0.017597877650005325 317.54287352212793 97.00249577234631
89.32216430665855 0.3424067227958098 0.09410455376051008 0.01759787765000531 317.63150399453286 97.67090897664707
90.86973435297011 0.3696406711256137 0.09572675991696154 0.017597877650005242 317.7216623090265 98.3508445140514
92.44398193566516 0.39734408747669764 0.0973769302123309 0.017597877650005228 317.8133748030682 99.04250101043964
94.04536693114535 0.4255250646977123 0.09905554670190979 0.01759787765000531 317.90666826813106 99.74608051566989
95.67435714332068 0.45419183514462985 0.10076309975082554 0.017892055534992374 318.00156995752883 100.46178856260559
97.33169327479138 0.4843410207312542 0.10250008817728433 0.018775745774211428 318.10048622561175 101.18570399772256
99.01814146064449 0.5170082040359527 0.10426701939828847 0.020025246310001077 318.2058447860128 101.91428658825437
100.73429318912723 0.5525181669555139 0.1060644095778678 0.02129999675038627 318.31828524079526 102.64750316311726
102.48063871606901 0.5907964457966746 0.10789278377786223 0.022549781036994038 318.43751805132047 103.38670836290729
104.25774423592242 0.6320103592916358 0.10975267611130558 0.023887708108000116 318.5638120290785 104.13237516689382
106.06623539667063 0.676492214395437 0.11164462989845152 0.025339806313660923 318.697770868173 104.88465247088972
107.90674784282342 0.7245234535359056 0.11356919782549418 0.026726883379044414 318.8398212612412 105.64215664334085
109.77980899298537 0.7757858510810522 0.11552694210601787 0.028008654354195556 318.9889635986241 106.39548846211913
111.68603200563659 0.8304189676497289 0.11751843464523576 0.02941848660514751 319.1453310518051 107.14305877628786
113.62612253642692 0.8889903796251314 0.1195442572070575 0.0310000273545607 319.31003653378224 107.89037199216354
115.60075117782822 0.9518318179215621 0.1216050015840337 0.03259969837934959 319.4836179784206 108.6399435927219
117.61049319554543 1.0189345897359714 0.12370126977023699 0.03419210470702347 319.6659546827271 109.3941654142798
119.65602415051524 1.0905481505064962 0.12583367413711752 0.03592218882239359 319.8573917239201 110.15411877028433
121.73815641876267 1.1672766767204164 0.12800283761239192 0.03778190969818496 320.0588603075681 110.92020174565145
123.85759205422588 1.2493614886182018 0.1302093938620144 0.0396255479711905 320.27062777688235 111.69348487044105
126.01496433860267 1.3368161240061027 0.13245398747528928 0.041461386350795104 320.4925793312381 112.47517112638602
128.2110155783424 1.429932568241939 0.13473727415316794 0.04346252473119688 320.7250671173629 113.26594974297757
130.4466887956552 1.52951487508801 0.1370599208997976 0.045590760196347446 320.969220213987 114.06610244230104
132.72270298041246 1.6357091714792171 0.13942260621736857 0.04767926014436641 321.22510082538804 114.87651716166351
135.03976205186157 1.748593799706529 0.14182602030432198 0.04977029748745049 321.49267975935425 115.69799950047124
137.3986835249372 1.8685229353243933 0.14427086525697244 0.05206400529136951 321.77234677231564 116.53110782929468
139.80057355445675 1.9965668028217445 0.14675785527460983 0.05448295484632937 322.0654823434704 117.37614392238619
142.24614757531495 2.1327305435734982 0.1492877168681315 0.05683638595368079 322.37191652081754 118.23384218287305
144.73619757503982 2.2771938463603174 0.15186118907227755 0.059208520968313694 322.69174413674494 119.10477732777403
147.27162660197732 2.430390920319256 0.15447902366151722 0.0618292055008095 323.0254080857181 119.98940983187808
149.85374556019306 2.5937403356179334 0.15714198536966398 0.06457197399617759 323.3745941649684 120.88804723823948
152.4832372283129 2.7670401807274834 0.15985085211327107 0.06721882453614525 323.7388555425644 121.80124809303793
155.16100474728017 2.9506159576823916 0.1626064152188807 0.06990575565196155 324.1184454344821 122.72942464238325
157.8880490867394 3.1450019316856195 0.16540947965419006 0.07289593855263288 324.5138717435153 123.67293532678868
160.66593902373984 3.3520690822739376 0.16826086426320178 0.07600220080988451 324.92718571735776 124.63202719571277
163.4952840125817 3.5713158744339593 0.17116140200542868 0.07897532922519734 325.3576004812541 125.6070903482084
166.37712853614147 3.8032695276021222 0.17411194019922174 0.08202037368123771 325.8055622707938 126.59840218489457
169.31260061973967 4.048620249866702 0.17711334076929286 0.08542133552471287 326.2716886567447 127.60620334892384
172.303551331823 4.309718566586897 0.18016648049850292 0.0889270452590527 326.7583492276527 128.63058410314463
175.35050383107742 4.585737524453315 0.1832722512839939 0.09226446929582366 327.26444376458807 129.67181814230588
178.45466868853612 4.877441713994387 0.18643156039773165 0.09572802473872655 327.7906096931573 130.73004905217363
181.61738960046912 5.18586172672753 0.18964533075154347 0.09956214286511778 328.3377308078966 131.80536363429957
184.84067158507494 5.5134958934314255 0.19291450116672415 0.10348029397253222 328.90808973361146 132.89762523650757
188.12508868773136 5.859506730761704 0.19624002664828616 0.10723125726635341 329.50063467169656 134.00704679883177
191.47199658539387 6.224818666062787 0.19962287866394354 0.11114950466071183 330.116072530961 135.1336328978941
194.88301649425165 6.610906017540677 0.2030640454278977 0.11544544815415358 330.7555888744374 136.2772622126371
198.3602890613904 7.020342674256472 0.2065645321895225 0.11979382346787826 331.42129567013734 137.43754067535426
201.9044613376726 7.452308308070558 0.2101253615270204 0.12397650239191993 332.11220306471756 138.61467605675114
205.5170562570145 7.907903230714149 0.21374757364614289 0.1283699626450635 332.8290718474655 139.80852765902867
209.2000509218192 8.389163756231573 0.21743222668406043 0.1331367755092301 333.57341318817043 141.01869117551004
212.95568685700158 8.89862029273525 0.22118039701847075 0.1379109881763032 334.34705688852574 142.2445530860434
216.7847142491265 9.435507109353031 0.224993179582034 0.1425209986125906 335.149090910276 143.4863497980139
220.6888478651131 10.001107919216421 0.22887168818223044 0.1473848211915132 335.9803024130194 144.74379875149575
224.67051841244387 10.598148441577159 0.23281705582673115 0.15260238957125072 336.84253077264475 146.0161250814302
228.73201076449018 11.228941923303356 0.23683043505437643 0.1577674592771845 337.73719306437926 147.30260528428684
232.87421847820065 11.892825884399452 0.2409129982718618 0.16276966708385543 338.6634726746745 148.60351662363965
237.09907459677976 12.591262929879372 0.2450659380962259 0.1680647442175771 339.6221443059857 149.91845083271977
241.4095830266287 13.327795359770137 0.24929046770324403 0.17367604335428166 340.61534675451054 151.2461733723472
245.80798450797525 14.104290408314728 0.25358782118182577 0.17916063314688135 341.6439533067965 152.5860269646372
250.29536865638684 14.920249387540146 0.2579592538945237 0.18448376658109078 342.70726027181 153.9383214680799
254.87391430339358 15.777295306389933 0.26240604284425445 0.19013115054428797 343.8059831368225 155.30255316107613
259.54734193097937 16.679902122692877 0.2669294870473437 0.19603884001981875 344.9424917462097 156.67695034502995
264.3177234138911 17.62921742422393 0.2715309079130002 0.20173455319505607 346.11701155796936 158.06114921462316
269.1864120746621 18.624978432827973 0.2762116496293318 0.20727097595137622 347.328966229596 159.45546560193614
274.15586021544175 19.66893704821644 0.28097307955601647 0.2131521958171756 348.57896372915343 160.8593430130801
279.2306731431928 20.76658998854091 0.28581658862374093 0.21922189252154145 349.86949367684684 162.27041922778363
284.412585417037 21.918069468750467 0.29074359174052566 0.2249894143101847 351.2000887836266 163.68887481305947
289.7032992122702 23.123430865940225 0.29575552820505524 0.2306016920899494 352.5703075794808 165.1149897852477
295.1055673860831 24.38451504681977 0.300853862127132 0.23627042173533574 353.98060905644974 166.5482047162215
301.0957712782492 25.822701222381706 0.30643521128837603 0.08817143119397652 355.4334521442952 168.28604964960513
315.05787811146735 27.116473940137645 0.35819605337209626 0.09715485705327231 356.9277197298895 164.5278689627254
329.72631275275205 28.61080312967658 0.4118689083496008 0.10853984568581854 358.4631014669581 160.83273179317905
343.74004238466307 30.221097832497136 0.4629019575362606 0.12011707408099603 360.03988091456415 157.24332480416953
357.41343807107745 31.932997260243397 0.5124769240612921 0.13061645428763713 361.66030746350987 153.70320331916548
370.760704904955 33.746949714076514 0.5606179628241817 0.141461199797283 363.3227610243933 150.21621478805946
383.8173106812608 35.66492564812298 0.6074247773226767 0.152486699058638 365.0270429856405 146.78199853422853
396.63045869293063 37.689046727833386 0.6530405526271262 0.1635036772887024 366.7732551876847 143.39802875234687
409.2636936756332 39.82352644259767 0.6976684191278313 0.17435585288865862 368.5632457970251 140.05760748170448
421.75532443102924 42.068193829630786 0.7414249182465171 0.18489327560029412 370.39513942729127 136.76035144055717
434.1557162575347 44.4249486922586 0.784472230670137 0.19501101713132263 372.26881070045994 133.5020109349097
446.51379375799667 46.89594939930953 0.826969415603212 0.2046335794699672 374.18425749083553 130.27790659571008
458.88225681474347 49.48492651319285 0.8690892243971582 0.21371386232876688 376.1425479489815 127.08158651212747
471.29389892953327 52.19218141951011 0.9109371423866317 0.22221537467314434 378.1420680020603 123.91096166380919
483.7877570179176 55.01998684715708 0.9526400830462277 0.23013030828959513 380.18264288681297 120.76157670310201
496.40038150275836 57.97084963529023 0.9943154080056299 0.23746582424948803 382.2641765278808 117.62896957789984
509.16711986795144 61.04780503585418 1.0360737804414801 0.2442440227471563 384.38684656688184 114.50842685223807
522.1131741100372 64.25221226751528 1.077987560105428 0.25050109305308466 386.54960838431725 111.3971661193411
535.2650205306728 67.58659440523665 1.1201207543442384 0.2563496739235709 388.75217980057613 108.29140640549541
548.6365316350207 71.05271561577865 1.162406742278176 0.26178079304176594 390.99427615507426 105.19368443408331
562.2564361559795 74.6537141483914 1.2049527665845583 0.26665493986787014 393.27543963785325 102.11429986275226
576.1851911859211 78.40011522354598 1.2481712648230718 0.270809658320887 395.59516773161965 99.0369052673786
590.4411755099733 82.28763267396079 1.2921705834533863 0.2743692690338402 397.95311125729603 95.95124879229294
605.0426008301954 86.31887324307479 1.3370092392688513 0.2776104773503443 400.3486982341418 92.85476368766159
620.0054786681919 90.49610910716707 1.3827388387751827 0.2807667340604256 402.78113502043635 89.7453125991543
635.3772986443445 94.83716833747405 1.4294741363160477 0.2836699668178455 405.2503908250171 86.6243603491454
651.1565274598532 99.33377151260957 1.477242185908147 0.2861029535034141 407.7560864453435 83.48484303472998
667.3532000505112 103.98652676759602 1.5260795220219887 0.28841591621044804 410.2972643916196 80.32473710156977
684.007421364924 108.8095592160162 1.5760879116022593 0.2906059194459365 412.8731075256692 77.14467293554068
701.1351251460582 113.80472201456548 1.6273254286071983 0.29249402540643166 415.48395412590855 73.94049039859563
718.7343893951946 118.96780423040671 1.6798031283281722 0.2942810189333218 418.12942481666244 70.70879801705885
736.860461233753 124.31898539644935 1.733660438528145 0.29596074177663345 420.80808286670407 67.45104668327907
755.495180531467 129.848319241848 1.788867735085997 0.2974260909384965 423.519388423576 64.16385922969653
774.6712306321415 135.56566794121161 1.845520058971383 0.29884715847442456 426.263926491692 60.84459025860649
794.4296399031808 141.48459553757613 1.9037310275555868 0.3001368607542969 429.04133904117657 57.49193682332709
814.7336334647314 147.59050438878472 1.9634140612381954 0.301362858157352 431.84962364736657 54.10563533715925
835.6688263697212 153.9133729937616 2.0247989721409647 0.3025125796807604 434.68879187402194 50.68418776016308
857.1849295235749 160.4331344816433 2.0877688227901463 0.30359605495215103 437.55954505588323 47.22469301007877
879.3865112810503 167.18669510437016 2.15260577428596 0.3046400654252377 440.4615602408136 43.72558848242467
902.1863618010042 174.14291617342144 2.2190846290037465 0.3056275299958964 443.39219174670734 40.188939677112444
925.6993641614 181.34194296918363 2.2875215833328197 0.3066014883705188 446.35224304333093 36.61140262722676
949.8726114550459 188.76416617125815 2.3577862126797493 0.30752652209437725 449.3424024244641 32.99164039235456
974.7903610719724 196.43945776693178 2.430114359329696 0.3084603704100868 452.3623894048231 29.32770895817403
1000.4021413590741 204.35113631900225 2.5043740704459996 0.3093527892208181 455.4088468583903 25.623103978693322
1026.7589864026584 212.5167697103066 2.580717115489155 0.3102699683152248 458.48357591050296 21.87424460169078
1053.906089720107 220.95254139756557 2.659282577878816 0.3111627777582764 461.5871295346198 18.078924090590984
1081.816657533839 229.64931761674615 2.7400149296890177 0.31205765113872497 464.7192724425523 14.237422621691243
1110.5421421183619 238.6270209477658 2.8231186062559854 0.3128478644296675 467.87587687666405 10.35235708289402
1140.108013736678 247.88617841557968 2.9091486710893504 0.3112749570655766 471.0599151315838 6.4198118050431905
1170.9776525326538 257.4340303047042 3.00836284672764 0.3178730649738917 474.2716930347005 2.434122288412182
1201.218417920925 267.30085184528605 3.075329943338021 0.32721388078972424 477.5110201023164 0.023280348044029134
1232.1108036102182 277.43888199520677 3.139802374310522 0.3282053701900516 480.77294680996494 0.0
1263.8840152130701 287.8680962088596 3.2056770086870863 0.3282740225718417 484.06176219100337 0.0
1296.607583091146 298.61156637608514 3.273043656553905 0.3283431912076038 487.37742484726095 0.0
1330.2809912033165 309.66915541911385 3.341891338141457 0.32840949792154195 490.71942709513365 0.0
1364.8611869967574 321.02675700694766 3.412122575667815 0.32847406327622064 494.0830324628434 0.0
1400.4225518845615 332.7089019285938 3.4838643434295387 0.3285399410141876 497.47289006040484 0.0
1437.0376706654674 344.7396858902688 3.5572066074257522 0.3286056419753116 500.8888825459008 0.0
1474.6888011233168 357.1132764725244 3.632110936383902 0.328668631668541 504.3299917615031 0.0
1513.3493963563187 369.8210191140952 3.708506318440445 0.3287304509645015 507.7922253856572 0.0
1553.0987009463552 382.8890651546093 3.7865237098392193 0.32879163820398105 511.2801267663313 0.0
1593.966672690841 396.32737355808877 3.8661946509362055 0.3288534773715588 514.7936148893198 0.0
1636.0035533522382 410.1526876280474 3.947564673207345 0.3289147691366656 518.3310928584808 0.0
1679.167789252111 424.35134637068 4.030548319823398 0.32897385288592407 521.8894715714698 0.0
1723.5371598344807 438.94902597085525 4.1152713010916875 0.329032075204851 525.4730848306887 0.0
1769.1441567587713 453.95652892972885 4.20176682807931 0.32908962577971135 529.0818842067226 0.0
1815.993342633538 469.3754676089756 4.29001483031335 0.3291464583171866 532.7136335653959 0.0
1864.0899435058066 485.20766878520914 4.379997121660655 0.32920254161767293 536.3662857953279 0.0
1913.5203949311776 501.48169544812714 4.471846272600664 0.329257941637465 540.0438741161018 0.0
1964.3200370623592 518.2092984559939 4.56559735465692 0.3293129696428263 543.7463790946406 0.0
2016.4965512554145 535.3931550004781 4.661226218487759 0.3293673660449121 547.4708712870953 0.0
2070.0628644934945 553.0376097441205 4.758731935783449 0.3294205985247203 551.216467733508 0.0
2125.0996362146216 571.1693257348883 4.858234956463012 0.32947295521234476 554.9868210458568 0.0
2181.6450955579694 589.8010156263935 4.959772214798061 0.32952462928217763 558.781937487146 0.0
2239.6818900887774 608.9270769771334 5.063280803625196 0.32957557143453364 562.5981454122898 0.0
2299.2522430791314 628.5615360299713 5.168804879141381 0.3296257831721041 566.4358348263322 0.0
2360.444411094164 648.7335984084341 5.276468265386914 0.3296753103662926 570.2982070044372 0.0
2423.299860744653 669.4570546877859 5.386309948825914 0.32972416336733446 574.1852909518561 0.0
2487.7862873231447 690.721371088249 5.498240189182663 0.32977228930720415 578.0926279967849 0.0
2553.971625504405 712.5490628514891 5.612344129524643 0.3298197082374097 582.021979385741 0.0
2621.9428915586723 734.9689472315101 5.728737340691541 0.32986645772082035 585.9760320290837 0.0
2691.7450007787334 757.9959630945593 5.847460956029325 0.32991277898377014 589.9548350790684 0.0
2763.3425304263696 781.6185779867935 5.9684112756126835 0.3299586017912386 593.9531011119569 0.0
2836.8342212355915 805.8694855048396 6.0917207011473495 0.3300035765850602 597.9740527294582 0.0
2912.29479068646 830.7734442130788 6.217483082310735 0.3300477494193359 602.019805726412 0.0
2989.7730158491127 856.3466789272811 6.345741903224343 0.33009127591085896 606.0904271513187 0.0
3069.1964772342094 882.565406086475 6.476341014613606 0.3301341011664807 610.1797613821134 0.0
3150.702842155655 909.4751910078118 6.6094703465132945 0.33017628385230147 614.2925763096104 0.0
3234.370960155682 937.1021935441446 6.745219969922953 0.33021784079783956 618.4303648993331 0.0
3320.253517967778 965.4639404053776 6.883635708742497 0.3302590085839556 622.5932101621104 0.0
3408.2728570917775 994.5349493549858 7.0245434341053405 0.33030003578711664 626.7740504200112 0.0
3498.6407660558802 1024.3853511930172 7.1682279536613205 0.3303402858686395 630.9792782513232 0.0
3591.3854752473035 1055.0245177299494 7.314715388247423 0.33037943344440013 635.2097160524316 0.0
3686.5640407604737 1086.4714307606964 7.464054115509423 0.33041878012807757 639.4654611461091 0.0
