M[M_sun], R[km], Lambda[1], P_c[MeV/fm^3], rho_c[fm^-3]
0.24162668629717493 15.618656898711224 2160425.4255784233 3.5677272577965504 0.1711233750220791
0.25364525791881487 15.277249798203187 1723178.5103299029 3.7848474499497873 0.17388852011448927
0.2660427017684194 14.981231064814878 1382856.09431822 4.011460020189499 0.17666736849159448
0.2788197289072365 14.723428983921282 1116394.106117579 4.247820195408021 0.17945858105722026
0.2919762879610827 14.498305772916884 905781.9151153299 4.494553538734608 0.18226873093981344
0.3055127407321521 14.301134107987592 738506.7349973845 4.751817015942979 0.18509355103978545
0.3194305834534562 14.12804650032241 604957.6871081882 5.0202907446550435 0.1879396124363672
0.333732329591847 13.975844139211986 497607.1899271379 5.300201718576561 0.19080359552028597
0.348414852145971 13.841908388824287 410921.07682645647 5.592275252447757 0.19369172989976038
0.3634805254451645 13.723847675789058 340606.95469206996 5.896682823832776 0.19659915594411573
0.3789351157147332 13.619893890286573 283239.76914089813 6.214286845571866 0.19953351905710554
0.3947704139650648 13.528357668251683 236350.2352330757 6.54534104969364 0.20249093177672245
0.41099747963199607 13.447762927764295 197814.35445320557 6.890555286894662 0.20547523085036665
0.42760822022882783 13.376949274475457 166034.1385615533 7.250631531296351 0.20848943119708718
0.44460582186394715 13.314825257208547 139767.22616547887 7.625823603591968 0.211528996500323
0.46198783457337483 13.260492183649683 117941.93220344963 8.017090894603383 0.2146002483859853
0.47975694829097665 13.213102500079499 99780.00872733981 8.425133930598664 0.21770475847574997
0.4979176375835057 13.171906181543882 84616.76515278216 8.850386742644506 0.2208398948577993
0.5164592756375298 13.136323990817244 71916.94104045181 9.293736412204291 0.2240092588509071
0.5353802060842776 13.105782838576781 61255.700721551955 9.756061725366072 0.22721567756881575
0.5546903735776797 13.079744542185104 52285.16436010255 10.238168044884867 0.2304604432024876
0.5743760242307133 13.057786480306916 44713.71736911445 10.74053039545606 0.23374030161224763
0.5944356175272936 13.039480740802992 38312.833794870596 11.264399816595526 0.23706151467656858
0.6148756639135694 13.024470632918707 32888.6463444641 11.81070953714229 0.24042563608340015
0.6356834379776015 13.012420559079061 28280.6248863632 12.380439074096842 0.24383429970163828
0.6568576284631663 13.003021396213997 24167.48026864274 12.974263975890784 0.24728530217993716
0.6783925846734502 12.995961538483504 21019.21125748934 13.593538269046674 0.25078373135343157
0.7002845558376417 12.991038958450075 18164.150992069783 14.23944741554105 0.25433207865404167
0.7225228366261405 12.987994566564435 15722.017537679461 14.913181771149889 0.2579323299790617
0.7451137284058169 12.986642972821562 13627.602408700955 15.615752168370225 0.26158419005285
0.7680375819328643 12.98676723799837 11830.756516124071 16.34846301731859 0.2652899326975256
0.7912870224730056 12.98814570471089 10284.919740844274 17.112913069377257 0.26905406583457825
0.8148654885976666 12.990682757671365 8951.878049628445 17.91055825003477 0.2728790237754473
0.8387533833636382 12.994133313494308 7803.694192619379 18.74273665074456 0.2767656400937962
0.8629356013536487 12.998424366480249 6810.368383851019 19.61084804766845 0.280714886267233
0.8874204198354462 13.003375986851996 5952.05252809066 20.516953052318964 0.28473288549253006
0.9121798074259013 13.008866110800703 5208.380827288201 21.462846955271978 0.2888226534274468
0.9372044903451037 13.014765002627314 4536.842396981182 22.44997910876422 0.29298382790471844
0.9624914073796662 13.020980962131086 4002.2766248231105 23.48044583701841 0.29722077258004426
0.9880160293825557 13.027356802657907 3514.906202890231 24.556637184121104 0.3015393151292897
1.0137620067779332 13.033819088621945 3090.4200958290003 25.680454092952132 0.30594077508387507
1.0397292051122984 13.04028304775344 2719.724180310648 26.85394244474462 0.3104270338384134
1.06588467980484 13.046601954946881 2396.769229706813 28.080160559205645 0.3150065265732975
1.0922198326068633 13.052734176875216 2114.46972683843 29.36111378639424 0.3196793518788232
1.1187222286905776 13.058563441319535 1867.2181157626114 30.699659760290224 0.3244508870706754
1.1453575296350749 13.064023974723481 1650.9176937657412 32.099095519628044 0.32932849028610267
1.1721233354687464 13.069027972719361 1461.0814717379906 33.56147311397691 0.3343105751155323
1.1989831549933536 13.07349117743125 1294.5217537279295 35.09128480943745 0.33941036407020403
1.2259318982304117 13.077348613778819 1148.301626138236 36.69049060418556 0.3446242268495048
1.2529311648501036 13.080516663981658 1019.5026100900068 38.36420590233065 0.34996698712410607
1.2799765517605644 13.082950812695062 906.0838222760385 40.114742985826936 0.35543562971746423
1.307030449598323 13.084551034162873 806.2260601064153 41.947439998940425 0.3610439306304427
1.3340618927325534 13.085245812416048 718.035454178894 43.86592399348809 0.36679461757729936
1.3610727823291602 13.085029032799522 640.1749945972657 45.87474330215256 0.3726946562729103
1.388014487239202 13.08378072107706 571.3874561027303 47.97930531165493 0.3787544049350924
1.4148597735661836 13.081452757728949 510.4566298043191 50.18445373179397 0.38497994629268123
1.441593010888692 13.078006859923681 456.5451477593945 52.495249905700355 0.39137741759408085
1.4681887257075594 13.073404405382789 408.7097370119702 54.91819448363804 0.39795893504483615
1.4945997655757721 13.067527147455387 366.2657240039096 57.459482237821284 0.40473356789329673
1.5208128419849396 13.060371979396828 328.6072883585017 60.12574648872056 0.41171109615076074
1.5467979636342537 13.051876406435024 295.0802242471898 62.92409858811568 0.4189020691251906
1.572515330297134 13.041983172596973 265.2641835233982 65.86217118309008 0.42631786873553934
1.5979289739506517 13.030638208360685 238.7328807465542 68.94816564489967 0.4339707781662613
1.6230375359051463 13.017823780219805 215.05902194284798 72.19090409437669 0.44187405649010186
1.6477794629966742 13.00346041429883 193.9418381028481 75.59988650966417 0.45004201996321924
1.6721280241763627 12.987513940788034 175.09246863187755 79.18492218145957 0.4584883299054913
1.6960646443049585 12.969952548978137 158.24022573057195 82.95648240348287 0.4672274091526239
1.7195431002596515 12.950727102032756 143.16560516787695 86.92718401926703 0.47628026508944643
1.7425264682597268 12.929773411068947 129.68001613109107 91.10846963043291 0.48566067464157775
1.7650064159910879 12.907109157922067 117.58278841752268 95.51473033578917 0.49539173058913843
1.786917171387563 12.882628868349528 106.73998732936191 100.15935062737812 0.5054898059926735
1.808267895517427 12.856384301571051 97.00953555816855 105.0590183672735 0.5159812065932899
1.8289715637984756 12.828227642307729 88.26681366324874 110.23029151571846 0.5268884941250277
1.8490519499304052 12.798247719571757 80.40213316358731 115.69099991246124 0.5382357302210231
1.8684239375506426 12.766291168492781 73.32633870674071 121.46102054407784 0.5500509744635509
1.8871002855910386 12.732452915770995 66.95798537049112 127.56179646785336 0.5623640749463976
1.9050186299084009 12.696618126885598 61.20609187298466 134.0161196826767 0.5752055393611772
1.9221554599821706 12.658781295596636 56.0300927150095 140.84956045144943 0.5886111931428042
1.938464604307079 12.618874114859235 51.352635136719556 148.08981881724782 0.6026193161819725
1.953955646394415 12.577008800403416 47.12869538051486 155.7652224388017 0.6172650203492386
1.9685660029846224 12.533054414514012 43.30644608342789 163.90964602544423 0.6325966211325699
1.9822758123483757 12.487036882567761 39.848600461800984 172.55712804067153 0.648656487818672
1.9950580421922661 12.438933666316474 36.71825424000979 181.7465628138574 0.6654963631909511
2.0068888058208683 12.388752188671688 33.8781149799944 191.5202215116668 0.6831714691627427
2.017727016719182 12.336456459339727 31.302301452331598 201.92419403004408 0.7017411121019068
2.027557337226191 12.282052218446436 28.969389569050477 213.00823556848187 0.7212672087693753
2.0363579058710255 12.225561251708118 26.85052649978093 224.82840459404017 0.741821828170311
2.0440940494921493 12.166941464200647 24.923822919512073 237.44542446841467 0.7634805072809462
2.050744395569184 12.106209257882695 23.17120871767302 250.9265026600567 0.7863267835465693
2.0563078050802965 12.043435887638495 21.578742711725777 265.3450024733918 0.810449477978908
2.0607447034637913 11.978562089996693 20.127863644450287 280.7822908034892 0.8359468427887327
2.0640409789267506 11.911639039542827 18.808944769854005 297.32869447693236 0.8629275396992454
2.0661878654217953 11.842709555887078 17.607466041160965 315.0845884316001 0.8915117604872193
2.067172112758008 11.771795248217936 16.511661764698367 334.1592032889275 0.9218244522842728
