M[M_sun], R[km], Lambda[1], P_c[MeV/fm^3], rho_c[fm^-3]
0.24162668629717493 15.618656898711224 2160425.4255784233 3.5677272577965504 0.1711233750220791
0.2536437573268001 15.277295068257992 1723272.5316481576 3.78481515919422 0.1738881176257987
0.2660392925125096 14.981297827903854 1382995.0205477972 4.011392138203818 0.17666654817785873
0.2788142088421205 14.723537405110799 1116403.65622612 4.247714425255165 0.17945735428283935
0.29196749995187227 14.498464216159956 905893.983815315 4.494407104528473 0.1822671003609425
0.3055043691969663 14.30119955630789 738622.0239542525 4.75162494510682 0.18509147630818223
0.319420396452093 14.128140175232003 605118.7889531198 5.020051621933479 0.18793713144583807
0.33371733973981704 13.975980820720297 497700.3421435554 5.299909247993526 0.19080065082681127
0.3483975201589513 13.842056037785328 411023.2832945798 5.5919287033530765 0.19368837694193697
0.3634597414191275 13.724018742356234 340666.97870231915 5.896274409898421 0.19659532003401467
0.37891264639467853 13.620029223424503 283320.1876049832 6.213811623814742 0.1995291856068848
0.39474475338809983 13.528477157334438 236418.0957203592 6.544799513094083 0.20248618323232442
0.4109685049784933 13.44790416952658 197878.44456080263 6.889936980320279 0.2054699650921169
0.4275760654901201 13.377078022868009 166093.45094682815 7.249930651931247 0.20848363300171968
0.44457124337189147 13.314961756352643 139812.10134053123 7.625042088205273 0.21152277513533216
0.46195136550199994 13.260589919928949 117990.44378387205 8.016215110656319 0.21459347348911384
0.4797145084835619 13.213181829064098 99819.47810363572 8.424157048025041 0.2176974136844531
0.49787280598531014 13.172020379328597 84651.4906554748 8.849312363041712 0.22083211589042798
0.5164099856904433 13.136414294263508 71944.22008609485 9.292547147396878 0.2240008863525209
0.5353268473036161 13.105860698261763 61281.18737610388 9.754749510831743 0.2272066934535181
0.5546333940198127 13.079821261836177 52304.29421798092 10.236728943763518 0.23045088797286326
0.5743144567153579 13.057865966746911 44734.93383629417 10.738961445060614 0.23373022846470884
0.5943713021401267 13.03953009790634 38332.52575114743 11.262682037971398 0.2370507819646396
0.614806702592091 13.024511339957014 32905.66947919028 11.808832781195385 0.2404142222759448
0.6356101174186873 13.012446343964237 28294.362322409856 12.378392558502316 0.24382218213094559
0.6567788808994759 13.003041991590045 24179.488446013525 12.972057098656387 0.24727268857463794
0.6783102322458008 12.995979667487205 21030.358066235094 13.591139689264168 0.2507703767038205
0.7001968258989753 12.99107395480401 18174.877231923725 14.236844270761313 0.2543179564665651
0.7224293237710675 12.988010315792254 15731.833966978107 14.910360372418022 0.257917412180432
0.7450175372650788 12.986648176935171 13635.76296488929 15.612725477698083 0.26156871961781725
0.7679371643121389 12.986754058818212 11837.544232732707 16.345190043154894 0.26527361774220987
0.79118036786136 12.988141718571006 10290.135647632958 17.10937738317904 0.2690368729898801
0.8147532123712741 12.990669243468538 8957.423048570408 17.906742333976812 0.27286091752660335
0.8386351247040646 12.994131978648664 7808.538035942581 18.738657430748237 0.2767468981885582
0.8628157533635765 12.99840088309395 6815.685589652224 19.606452478697708 0.28069516612140155
0.8872904179114316 13.003338486435007 5956.336045748908 20.51221997577026 0.2847121444172185
0.9120490542928859 13.008840353267473 5211.852450337434 21.457753763531404 0.2888008458553357
0.9370687981825069 13.014729180313399 4565.989627610475 22.44454701953372 0.29296126609861756
0.9623452297863753 13.020932861757393 4005.015361875083 23.47460667428328 0.2971970580051926
0.987869390326121 13.027322971558213 3517.0406115423543 24.55036345975038 0.3015143926006416
1.0136111386944242 13.033785241519034 3092.29594223426 25.6737700934358 0.30591498024247593
1.0395739217975073 13.040238045041225 2721.8980566443256 26.846766447886907 0.31039992421446344
1.0657238728990721 13.046566865548371 2398.7206929840568 28.072458969809297 0.31497803504521266
1.0920549117761251 13.052697487777772 2116.1491023316394 29.352913902459385 0.31964983733141206
1.118551586936244 13.058527802679691 1868.9098538210924 30.690863672381198 0.324419858300604
1.1451815708340836 13.063987608547375 1652.3805673611057 32.08973193882232 0.3292963179447298
1.1719441688029555 13.069000009144018 1462.3175594636077 33.551432193790596 0.3342767361792422
1.198799125136701 13.073457634954007 1295.6356378119867 35.08051915237507 0.339374764960875
1.2257434616739122 13.077322638697444 1149.259314952852 36.67903145428349 0.34458726140575896
1.252737134066652 13.08049238882012 1020.3541846841425 38.35199855924227 0.34992852511424466
1.2797787681254578 13.082936323055282 906.8538837494262 40.10166515765687 0.35539517128612613
1.306821500085733 13.084525134577191 806.8611091942353 41.93351477990596 0.3610018325836401
1.3338576624092915 13.085235827155019 718.7246268769693 43.85099523904265 0.3667502415985043
1.360865676021135 13.08503755333772 640.721837188442 45.85884229634661 0.372648418308015
1.3877950453974464 13.08377670937302 571.9041907107346 47.96236412812564 0.378706184858035
1.4146523918308587 13.081490174885994 510.92375411267307 50.16628658044635 0.3849290399325437
1.441374321474825 13.078039674911746 456.95919878129746 52.47588562969009 0.3913242505473239
1.4679685312117037 13.073442510567478 409.09568748027885 54.897547328921085 0.3979033566176479
1.4943768990587818 13.067581921362663 366.6035106977956 57.43745950361324 0.40467541574152777
1.5205884490568335 13.06043832028717 328.8985991070338 60.1022479054804 0.41165019532307984
1.546571037831398 13.051955247144063 295.34316318823556 62.89901563345884 0.4188382310114056
1.5722867696249985 13.0420802661798 265.5113673039604 65.83538632871691 0.4262508899099048
1.5977109977838428 13.030754099905979 238.96721541065315 68.91955152678563 0.43390043911440124
1.6227979438776479 13.017938012992213 215.28205963414027 72.160322597518 0.44180012020682174
1.6475501711702563 13.003601853178424 194.13843561951273 75.56718775758893 0.44996423040693756
1.6718990597710106 12.98767306265295 175.2710649871779 79.15011418821581 0.45840712325548294
1.6958361837317972 12.970129310103681 158.39536375930444 82.91922551243748 0.4671417929255113
1.719316886135284 12.950922732247015 143.30807430002574 86.88728641350714 0.4761899166423958
1.7423030706041933 12.929986940832594 129.80442075426876 91.06591470394015 0.48556600559403673
1.7647830536264197 12.907345158252895 117.70187127255566 95.46910807827618 0.4952916251691999
1.7867112362881674 12.882913853883018 106.85070510175541 100.11062131228383 0.5053846502447615
1.8080496070855887 12.85666642156314 97.10318333174496 105.00692927223194 0.5158705952907862
1.8287619145987786 12.828536439285747 88.3532544380578 110.1745669796814 0.5267719889433333
1.8488431558565335 12.798577345208892 80.48091907425925 115.63111129482955 0.5381120210029692
1.868228494720818 12.766677606732204 73.3963778284808 121.3968588692652 0.549920364806263
1.8869003337161618 12.732834654430015 67.02233608295751 127.49317750412771 0.5622266327974288
1.9048235079923197 12.697027557341103 61.267667109485565 133.94255001680045 0.5750602899975591
1.9219680959886178 12.659218695267542 56.08640288165734 140.7705406907416 0.5884572325992491
1.9382846812351064 12.619337059667805 51.40252054732609 148.00487567688006 0.6024559238252903
1.9537829313712087 12.577502586111178 47.172160414635115 155.67411592641616 0.6170923643883776
1.96840139703196 12.533582834702784 43.34780736416753 163.81182395223973 0.6324138886868658
1.9821187676777325 12.487593260622228 39.88767298528507 172.45168954637097 0.6484618071673526
1.9949125543880595 12.43952503972135 36.75413802238412 181.6331256225705 0.6652897357741263
2.0067501405862656 12.389374868377125 33.90926878611155 191.39804885494803 0.6829518379125188
2.017600729701794 12.337111205955257 31.33479284885585 201.7924731585617 0.7015073205482182
2.0274403238476255 12.282735177618001 28.99712722334795 212.86640118608756 0.721019078003058
2.036251839047079 12.226281247469858 26.873837320332832 224.6751436528959 0.7415569129849175
2.044002792398677 12.167695500431835 24.946951838871406 237.27999020542873 0.7631984266655049
2.0506659047325506 12.107001518110447 23.19230505971239 250.74769964403862 0.7860259261749786
2.0562425998274354 12.04426698563166 21.597572520638515 265.151276510856 0.810127330249691
2.0606925416612234 11.979428623665921 20.145091446921292 280.57262446206823 0.8356029411893887
2.064003591174648 11.91254215556147 18.82477752210823 297.10122028023824 0.8625589907415208
2.066169564629787 11.843653849525662 17.621845296045233 314.8374794040103 0.8911161875366531
2.0671678051657434 11.772773087411107 16.5267081370413 333.89082933259675 0.9214005770578088
