M[M_sun], R[km], Lambda[1], P_c[MeV/fm^3], rho_c[fm^-3]
0.24162668629717493 15.618656898711224 2160425.4255784233 3.5677272577965504 0.1711233750220791
0.25363996265151934 15.277394565990521 1723185.1525726845 3.7847630968518655 0.17388746869381697
0.2660331115812118 14.98140716680247 1383226.9793388397 4.011282693898837 0.17666522560802264
0.2788051728414143 14.723690550460804 1116764.4798404675 4.247543897478743 0.17945537641761272
0.291956277647517 14.498632525864418 906127.9494875938 4.49417101970469 0.18226447150163727
0.30548701760991576 14.301464801428079 738843.369646087 4.751315288460674 0.18508813142541525
0.31939953725999676 14.128382818929225 605245.4002336205 5.019666113728247 0.1879331316494163
0.33369279958525405 13.976216320461194 497815.9018553824 5.29943774051854 0.19079590352891054
0.3483698992363439 13.84228195788428 411163.49842433905 5.591370020680367 0.1936829715333902
0.36342773320433713 13.724236797851816 340828.1300343857 5.895616002441856 0.19658913613184872
0.37887462496508334 13.620284291929494 283442.13308355474 6.213045525851229 0.19952219971589957
0.3947027102946838 13.528741288054922 236520.40793373223 6.5439265213323194 0.20247852827392787
0.41092248211233634 13.448103528220631 197975.52522904938 6.888940244375529 0.2054614764705474
0.4275237229168831 13.377305217452944 166192.69945929546 7.248800820921369 0.20847428619932584
0.44451441076901754 13.315153281085236 139895.2955438364 7.623782286064733 0.21151274630024336
0.4618890815975396 13.260770363943797 118058.37750867955 8.014803366985564 0.21458255251047484
0.4796479682420999 13.213370456873125 99879.12952888184 8.422582357122428 0.21768557421024295
0.4977985126606533 13.172181869181962 84705.97129824247 8.84758053201936 0.2208195766938717
0.5163298215221052 13.13655920285381 71991.31614317368 9.29063015454525 0.22398739060333486
0.5352419598536114 13.105976768685563 61323.22410172808 9.752634361893522 0.22719221202427348
0.5545408213246402 13.079936848688208 52344.60277417941 10.234401855049233 0.2304353904698264
0.5742166424834025 13.057964066484251 44769.21413337693 10.736432528254458 0.23371399203545293
0.5942650118377233 13.039615365311374 38360.27319393735 11.259913268641611 0.23703348264376262
0.6146954941566851 13.024579633504105 32932.25402223727 11.80580780723306 0.24039582538719625
0.6354895078912576 13.012494561415421 28320.678497581375 12.37509400782195 0.24380265116760488
0.6566530547667943 13.003079279163302 24395.525695529926 12.968500118430407 0.24725235833427464
0.6781768797155345 12.996027560198822 21049.176660511373 13.587273779312826 0.2507488523529507
0.7000570300552555 12.991086366338793 18191.10357211393 14.232648708483818 0.2542951953364452
0.722283136960617 12.988022336486553 15745.849210098962 14.905813103988349 0.25789336905813853
0.744862254429622 12.98665569197544 13649.470853154997 15.607847391983084 0.2615437860794043
0.7677731754929239 12.986758512123659 11848.756495121377 16.33991509444716 0.2652473234459046
0.7910091248567268 12.988129891301897 10301.459788477192 17.103679105158253 0.2690091641934639
0.8145751890585423 12.990635863457433 8967.579565872418 17.90059250595259 0.27283173703236224
0.838448627602803 12.994103762704107 7816.372545100292 18.73208332665253 0.27671669358177126
0.8626210195857783 12.998364232777302 6822.866806557007 19.59936863850778 0.28066338539801355
0.8870866829577148 13.003297564718627 5926.818837101574 20.504592315158817 0.2846787188257317
0.9118363247355566 13.008805983605864 5217.526555105806 21.449545864579587 0.28876570200892476
0.9368489443998056 13.014679950306398 4571.1503142794745 22.435793068376622 0.29292490716925496
0.9621183675136539 13.020875691964365 4009.686614616624 23.46519684195247 0.29715884188016356
0.9876334399848526 13.02726863925085 3521.2534365649094 24.540253468557484 0.30147423040507043
1.0133741042406141 13.033730666407763 3096.3139741616014 25.66299907113651 0.3058734127930412
1.0393216144698947 13.04017492607205 2725.1857398862535 26.835202750793854 0.3103562386491156
1.0654670501454315 13.046516556802032 2401.5178328116194 28.060048485706353 0.3149321232680238
1.0917859785461526 13.052632772185584 2118.812485807095 29.339700607780937 0.31960227758357396
1.118276313566824 13.058474083668912 1871.302878438722 30.67668985736984 0.3243698592497111
1.1448993548459092 13.063935975940971 1654.3704188361335 32.074623623535 0.32924434590443713
1.1716540887672489 13.06894788483781 1457.4942549231123 33.53525290902445 0.33422221032142624
1.1985000400847248 13.073412192278761 1297.3794425494686 35.063172330407696 0.33931740372336294
1.2254389244157735 13.077290734081123 1150.7773343600572 36.660567422584776 0.3445276992976696
1.2524266881089234 13.080461658594995 1021.7793451216922 38.332204944204165 0.3498658232809958
1.2794603188076736 13.082903602647967 908.1035089082758 40.08059354460021 0.35532998275489996
1.30649744632956 13.0845068992732 808.0445800720477 41.91107809420733 0.36093400308363016
1.3335229925275875 13.08523607845014 719.7094597826454 43.82694200954229 0.36667874296101494
1.3605263810929404 13.085048309472958 641.6930141644716 45.83322290894295 0.37257392060957584
1.3874533450245956 13.083802080024848 572.7411770566856 47.93506919015689 0.37862849465357823
1.414303001785374 13.081525206505008 511.6594847981908 50.13701689638023 0.3848470230522046
1.4410302493753002 13.078108810139973 457.61863352976957 52.44468765071537 0.3912385925859319
1.4676123574894453 13.07351557061199 409.68690690309154 54.86428296045865 0.3978138149202132
1.4940172654361885 13.067670022663217 367.1697362861773 57.401979467534154 0.4045817288984979
1.5202258584998087 13.060548632803856 329.395065903785 60.06439073904007 0.4115520816305944
1.5462056468032321 13.052086724410158 295.793859339096 62.858606588367046 0.4187353867789855
1.5719201245429415 13.042230917363359 265.944888565467 65.79223615922439 0.42614298759920816
1.597336792319396 13.030926612254733 239.3303349854859 68.87345515431522 0.43378712529075547
1.6224280296153997 13.018140444974543 215.6014908297067 72.11105763783873 0.4416810132830677
1.6471798764255594 13.003829262233664 194.43840146553643 75.51451289479057 0.4498389181566458
1.671533653499354 12.987932945000157 175.54289442236393 79.0940278909985 0.4582762479832604
1.6954688629283972 12.970418391752132 158.65459394209904 82.85920976473737 0.46700387691209067
1.7189330481514264 12.951201242836502 143.54637741625498 86.82301797603526 0.4760443802521948
1.74194725884033 12.930360976730274 130.01612547855495 90.99736682077975 0.4854135117855736
1.764427043150461 12.90773905511585 117.89573859247908 95.39562067981186 0.49513037740803045
1.7863542940758477 12.883332621729137 107.01507651993808 100.03213041948668 0.5052152703033362
1.8076971317586625 12.857112784488454 97.25835847911794 104.92302802888099 0.5156924308246665
1.8284255628853718 12.829055077312189 88.49137583179031 110.08451249835431 0.5265832209411263
1.848501513764108 12.79910727650579 80.60759242864441 115.53465084967235 0.537912767009215
1.8678985074318404 12.767250455545481 73.51448550027982 121.29351789524587 0.5497100004534018
1.886577087501514 12.73345331103799 67.12607972581655 127.38237605089436 0.5620042551648898
1.9045106115164057 12.697682857338906 61.36744940364626 133.82406056836174 0.5748263550356939
1.9216651947526109 12.659922597085815 56.174724596721674 140.64327607965544 0.5882092727405676
1.937997602901724 12.620115699727775 51.48396970341771 147.86807412657117 0.6021927792369697
1.9534953308174616 12.578273158500068 47.24922532163857 155.52739109890206 0.616814306152876
1.9681338309547383 12.534427162945358 43.41562364771631 163.65392514303764 0.6321183832480268
1.981868489220326 12.488492091570459 39.95022161204677 172.28189085567953 0.6481482924503955
1.9946723832160227 12.440472880402364 36.80992109666862 181.4504498055156 0.6649569892404171
2.0065234406364345 12.390360810390286 33.966115487465125 191.2013101999848 0.6825981584729661
2.0173960036530225 12.338164818767464 31.38316358781944 201.58036372326256 0.7011308472234327
2.0272536303574142 12.28384398788049 29.04284557007204 212.638011163306 0.7206195233223427
2.0360869972072173 12.227443832351298 26.917104803851174 224.42836021325067 0.7411303419344103
2.043854381180632 12.168920480363107 24.98443145274052 237.0136115992805 0.7627442266720665
2.0505397703831556 12.108284535693578 23.227415483959078 250.45923107121854 0.7855396439096619
2.0561318207888353 12.045578390266389 21.62958049426884 264.8391342943079 0.8096079074662743
2.060610280907168 11.980821391793805 20.17571127063402 280.2346817901348 0.8350480359907253
2.0639514715200544 11.914010321787034 18.8526385117368 296.73498614603386 0.8619656258218692
2.06613496659336 11.84516802156255 17.647216304897093 314.43964504541515 0.8904793329765383
2.067158948115517 11.774348366985514 16.55025735657849 333.45877214892295 0.9207181772486802
