M[M_sun], R[km], Lambda[1], P_c[MeV/fm^3], rho_c[fm^-3]
0.24162668629717493 15.618656898711224 2160425.4255784233 3.5677272577965504 0.1711233750220791
0.2536406393283267 15.27739541105693 1723247.437888131 3.7847752309226133 0.17388761993915516
0.2660343789499398 14.981393511871355 1383130.7228990698 4.011308201683182 0.17666553385454278
0.27880723837626203 14.723687848262198 1116538.2408374764 4.247583641477309 0.17945583738810317
0.2919587977171005 14.498571358919826 906058.1042993666 4.494226042346681 0.18226508419152593
0.3054904932186419 14.301437946634959 738814.8486178727 4.751387457458191 0.18508891098832503
0.3194044936301109 14.128332457457086 605265.4532982189 5.019755960185992 0.18793406384109293
0.33369847614843684 13.976150453764959 497820.222183355 5.299547629181897 0.1907970099254123
0.3483751845833895 13.842253856923016 411142.09668254934 5.59150022538919 0.19368423129976614
0.36343463987553515 13.724237438334521 335841.5435132915 5.895769447629869 0.19659057732152702
0.3788843896097556 13.620204251346939 283412.0530328483 6.213224067650552 0.19952382780213107
0.3947124331842058 13.52866910465205 236502.4635404084 6.544129973848557 0.2024803122776444
0.410933159901996 13.448081963012008 197956.1947769499 6.889172534188489 0.2054634547480712
0.42753659576794034 13.377241859951551 166154.4912228471 7.249064126872909 0.2084764644619834
0.44452696853837786 13.315105743544265 139878.7199544113 7.624075879923809 0.21151508349614181
0.46190345686865353 13.260731071092994 118043.1379085494 8.01513236832278 0.21458509760180436
0.4796633132330414 13.213319939778854 99867.67149471531 8.422949330309255 0.2176883333355888
0.4978152751924148 13.172122619851498 84692.47813436223 8.847984123574491 0.22082249886917224
0.5163486093774595 13.136527308527423 71982.284689519 9.291076893976646 0.22399053567678287
0.535260523066446 13.10596795225437 61314.94880773696 9.753127276847875 0.22719558678096607
0.5545627434204823 13.07990778849611 52336.04649922153 10.234944157085186 0.2304390019898331
0.574233299103023 13.057982760965547 44757.58906220667 10.737021860874455 0.23371777573342573
0.5942891895134398 13.039603085608563 38354.676798770786 11.260558491867718 0.23703751401015546
0.6147216415238889 13.02456199844757 32648.8787781455 11.806512730978094 0.24040011249970536
0.6355165508597653 13.012481672037987 28316.624054477386 12.375862679614613 0.24380720253032695
0.6566838272837109 13.003066134142182 24390.110191283893 12.969329008524339 0.24725709593014916
0.6782080255974776 12.99601218899261 21044.495959446722 13.588174654300028 0.2507538681835206
0.7000911246469752 12.991086183784137 18187.694728626204 14.233626396431097 0.25430049934127524
0.7223170147088739 12.988014184537302 15743.191043980056 14.906872743079816 0.2578989717694491
0.7448984059232683 12.986644385555273 13645.802458925178 15.608984114767853 0.26154959625226204
0.7678111651336375 12.986760838211426 11846.472384626535 16.341144289118848 0.26525345067305034
0.7910502588598837 12.988127038990427 10298.482340755925 17.105006937812067 0.2690156209940175
0.8146180144322783 12.990645154077257 8964.65222982751 17.902025551364446 0.2728385367303738
0.8384929039114654 12.994094242386428 7814.532572077909 18.733615229871642 0.27672373188443505
0.8626664868671741 12.998370349730529 6821.1087793255465 19.60101931043491 0.2806707909219263
0.8871345784829158 13.003307106971153 5961.377273250029 20.506369696492495 0.2846865075863232
0.9118881161077288 13.008802641272332 5216.3283425606605 21.451458439612324 0.2887738911013581
0.9368995596975759 13.014693261499328 4569.893437340698 22.43783287196294 0.2929333793520644
0.9621715057522503 13.020883152712054 4008.6970816581124 23.467389461671722 0.29716774676033425
0.9876898816020878 13.027285479938044 3520.286477179736 24.542609219562365 0.3014835886854853
1.0134288960018172 13.033743561107022 3095.3484660793715 25.665508837229194 0.3058830984637465
1.0393806554668463 13.040193513688841 2724.5189807364595 26.837897201027385 0.31036641779690943
1.0655277904678173 13.04652777596553 2400.9553945582884 28.06294022603763 0.31494282107293425
1.0918475243864325 13.052652576043227 2118.1335879509443 29.342779392686868 0.3196133593188517
1.1183410552174504 13.058485502356582 1870.759853487856 30.679992427479053 0.3243815092797726
1.144965489921468 13.063948417037139 1653.8761779216857 32.07815943434758 0.32925655595920045
1.171721009383723 13.068957243944592 1463.8641221528146 33.53902271683945 0.33423491496244623
1.1985703197912554 13.073419083205668 1296.980011670245 35.06721414857644 0.33933076892030756
1.2255094128568058 13.077293934987182 1150.3978426551005 36.66486952659029 0.34454157721924
1.2524997641528373 13.080464294688818 1021.4394503486054 38.336816806936625 0.3498804326511114
1.279534664004786 13.082910625197222 907.8344164037036 40.085503148777036 0.35534517143003025
1.3065724077495442 13.084509270738602 807.7785447573353 41.91630572375657 0.36094980699973994
1.3336027523995768 13.085236865123381 719.4034552166613 43.83254624344402 0.3666954016424672
1.3606078460659448 13.085041703236747 641.4319376298953 45.839192009733125 0.3725912779438326
1.3875336790653663 13.083794252594434 572.5338287832665 47.94142864000261 0.37864659570071424
1.4143847263819522 13.081519988425914 511.4744447877456 50.14383638923171 0.3848661320226981
1.4411117695292617 13.078099171656651 457.4735570646389 52.45195636608222 0.391258549754977
1.4676948320591447 13.073499281339341 409.5499204002764 54.87203306542039 0.39783467680894424
1.4941007873726466 13.067647565535806 367.04556677205693 57.410245733861515 0.40460355639591444
1.5203101431845467 13.060520640245514 329.2853867008162 60.07321077631205 0.411574940352099
1.5462909855502003 13.052057204818388 295.6984584259064 62.86802110033944 0.41875934746044213
1.5720052370252704 13.042193868719194 265.8258157723115 65.80228922603895 0.42616812653033254
1.5974274193011604 13.030892077604074 239.248323178826 68.88419454345248 0.4338135247920946
1.6225145196931858 13.018091198753268 215.52475581177174 72.12253514707392 0.44170876223133154
1.6472662154602749 13.003778978146409 194.36797229903945 75.5267847308176 0.4498681125637322
1.6716156838195697 12.987871669857363 175.47675942671748 79.10710547211217 0.4583067844128648
1.6955538755136803 12.970351260630908 158.59208727444542 82.8731916232085 0.4670360071821355
1.719026675096519 12.95115853017546 143.48460465273493 86.8379904572048 0.4760782855554429
1.7420253244559938 12.9302621078019 129.97357749216755 91.01333615862264 0.4854490376841721
1.7645112840394617 12.907646847993897 117.84560674214643 95.41274060643647 0.4951679423497387
1.7864372483653608 12.883238472613797 106.96850378666176 100.05041583842444 0.5052547294441135
1.807780352548521 12.857012967427996 97.22132403820798 104.94257369835404 0.5157339360947618
1.8285057587791496 12.8289399606953 88.45711987204623 110.1055044082233 0.5266272443019023
1.848581375302343 12.798985477882567 80.58060705819994 115.55712190928061 0.5379591844641991
1.8679742695894523 12.767117274883917 73.48590918925419 121.31759160384254 0.5497590057020747
1.88665259326817 12.733309165690137 67.10292203576944 127.40818747329112 0.5620560584836871
1.9045831851892754 12.69753052818995 61.34315258464188 133.85166269658424 0.5748808502071898
1.9217356700079933 12.659759363249336 56.15371948890091 140.67292209363166 0.5882670344496026
1.9380680627705493 12.619939994458843 51.466908973210316 147.89994142885755 0.6022540775784146
1.95356048145651 12.578089892910597 47.23032924447907 155.56156966628456 0.6168790779593887
1.9681971655543733 12.534228847626796 43.40064526051692 163.69072927644856 0.6321872965598611
1.9819271102046754 12.48828444776647 39.93641483354415 172.321443504105 0.648221322091116
1.9947275012121526 12.440250683203463 36.79527075021716 181.49300158927002 0.6650344979045397
2.0065743244420506 12.390129293815253 33.952886116702416 191.24713723045517 0.6826805422752552
2.0174437999561783 12.337919381721305 31.371316834286247 201.62977056987822 0.7012185395025919
2.0272974582168857 12.283586130607405 29.032379010116667 212.69120969467778 0.7207125909702106
2.036125381372988 12.227173049724684 26.9070103443016 224.4858424001509 0.7412297012629241
2.0438831057081304 12.168637715158294 24.969984000282285 237.07565728268517 0.7628500202618851
2.050568754779296 12.107988239525211 23.21897387640746 250.5264227054595 0.785652913817069
2.0561555340766655 12.045267376183384 21.62188996900785 264.9118375134358 0.8097288898468712
2.0606305501438986 11.980499644679945 20.168505396311183 280.31344899719664 0.8351774628218219
2.0639647057949007 11.913670784019526 18.845846917762877 296.82028608166974 0.8621038270017368
2.066142812640494 11.844812683483172 17.640994942202237 314.53230370548664 0.890627661266757
2.0671597807934 11.773982388929815 16.54424781848701 333.5594001605909 0.9208771111550009
