M[M_sun], R[km], Lambda[1], P_c[MeV/fm^3], rho_c[fm^-3]
0.24162668629717493 15.618656898711224 2160425.4255784233 3.5677272577965504 0.1711233750220791
0.2536389690937469 15.277443814538392 1723315.3822272778 3.7847441559967145 0.17388723260519487
0.266031438904285 14.981442671285585 1383239.2926137415 4.0112428773818545 0.176664744448913
0.2788023136690306 14.723751049321702 1116637.446848314 4.247481859213512 0.17945465686722573
0.29195134519894256 14.498696659130587 906132.3357027494 4.494085132761625 0.1822635151305929
0.3054808475775016 14.301549956669394 738888.2285983282 4.751202637742834 0.18508691458266546
0.3193931801437303 14.12842953157889 605323.0491897261 5.019525870478329 0.18793167657156948
0.3336843331356996 13.97632444935651 497928.1011562605 5.299266213892575 0.1907941765404012
0.3483600152195455 13.842367339686122 411213.77402090986 5.591166783505205 0.1936810051578119
0.36341523485485555 13.724341994267775 340848.7698281503 5.895376490356032 0.1965868865836525
0.37886123881535194 13.620369881205667 279554.3884002426 6.21276684201294 0.19951965845485153
0.3946873191274215 13.528787363037301 236560.40233625434 6.543608956167593 0.20247574365644275
0.4109054985055519 13.448185968582345 198008.4939663484 6.8885776694911245 0.20545838863068316
0.4275069520628175 13.377341469801825 166222.01307719178 7.248389835890755 0.208470886225494
0.44449272386113303 13.3152437910599 139924.4776975316 7.6233240278026875 0.21150909826981837
0.4618669481131913 13.260829450712503 118087.3487220668 8.0142898452727 0.21457858000486135
0.47962393864215236 13.213395815083704 99913.01030038588 8.422009569923548 0.2176812676512492
0.4977710220966758 13.172219985976435 84723.64767448757 8.846950592105761 0.22081501565974462
0.51630072152163 13.13661804335507 72015.74275859124 9.289932871357204 0.22398248168622048
0.5352109045941306 13.106021782424152 61340.013449806014 9.751865010474825 0.22718694463721964
0.5545075494434809 13.07999764077024 52361.27733645728 10.23355542346015 0.2304297535656371
0.5741777908206992 13.05799742804347 44781.89871704178 10.735512694644854 0.2337080864187505
0.5942311120651834 13.039666906416862 38373.6450719872 11.258906205574934 0.2370271904954979
0.6146544208872498 13.024622698451633 32942.430305750226 11.804707569078506 0.24038913410350973
0.6354458180900981 13.012523596580278 28330.46151486889 12.373894278169834 0.2437955474793112
0.6566073405332092 13.003091799710791 24404.320776966168 12.967206406390083 0.24724496400676374
0.6781298417197438 12.996034460439649 20894.3328758766 13.585867721765496 0.25074102380123253
0.7000061580778159 12.99109074295347 18197.105456418347 14.231122771064912 0.2542869170514742
0.7222294390748994 12.988028690932236 15752.614286027203 14.904159268431513 0.2578846246061315
0.744805647215049 12.986660412181042 13653.981609255427 15.606073254898428 0.2615347178674592
0.7677146788732784 12.986752004079774 11853.190393289644 16.337996641424006 0.26523776043874886
0.7909477702712265 12.98812110800048 10304.590087843411 17.10160671400519 0.26899908685705703
0.8145114422456706 12.990623600459735 8970.705396419124 17.898355916793776 0.2728211245767274
0.8383797073588335 12.994088619739395 7819.324257911467 18.729692457236876 0.27670570877387535
0.8625502289446534 12.998348248843802 6825.517620225872 19.596792417249905 0.2806518275179672
0.8870130473226572 13.003286110550087 5965.324501421259 20.50181835088048 0.28466656288415404
0.9117614349509675 13.008779377565643 5219.789775544959 21.44656091792565 0.2887529213317543
0.9367693004948192 13.014657304582427 4573.443798738065 22.43260956955841 0.29291168472757345
0.9620362035078625 13.020851186973678 4011.696519688547 23.461774861865702 0.29714494420226184
0.9875486696568727 13.027249435197351 3522.7170874375724 24.536576911154455 0.30145962518785197
1.0132840408858914 13.033709696532307 3097.7216937926264 25.6590821625529 0.305858296688463
1.0392293866434887 13.040159920137894 2726.4351276831794 26.83099763337428 0.310340352472718
1.065372593603786 13.046487036650072 2402.59918047188 28.055535489129817 0.31491542773128584
1.091688311182131 13.052616115589387 2119.594292937673 29.334895720112684 0.31958498293818427
1.1181760573869197 13.058455126481903 1872.1500235538174 30.671535747802288 0.32435167779423363
1.1447959182608944 13.063910646729289 1655.114320918213 32.06909612750989 0.32922522967293344
1.1715476642292777 13.068930569747094 1464.9376978150588 33.52936966835869 0.33420238319379514
1.1983965639536966 13.073405535416232 1297.9866026287293 35.05686461907594 0.3392965458320132
1.2253282573267112 13.077270560873412 1151.373632543601 36.653853535816765 0.3445060413382433
1.2523135231024403 13.080442201483883 1022.2563122407092 38.32500768646108 0.34984302394626143
1.279344706406686 13.082896869697965 908.5847547031632 40.072931667623045 0.35530627946720034
1.3063794999921465 13.084505872895372 808.4392229801529 41.90291994811379 0.3609093397720357
1.3334051981847306 13.085230685634318 720.0359151941636 43.81819619215941 0.3666527458687493
1.3604060222514176 13.085044929042748 642.0367283000328 45.82390773489538 0.3725468333488163
1.3873300012417251 13.083808675987989 573.0282464759266 47.9251448994021 0.37860024691845934
1.4141693561776423 13.081525605272706 511.9204387800017 50.126374746451376 0.38481720257531477
1.440901518369525 13.078127533150145 457.87133846392874 52.43334452497282 0.3912074486125448
1.4674830234984424 13.073538623458315 409.915764410056 54.85218866951769 0.39778125926411095
1.493886919968134 13.067698663601393 367.35407298637887 57.38907975840925 0.40454766655929336
1.520094415983649 13.060586502980541 329.5738600519349 60.050626931500325 0.4115164102344662
1.546073696020492 13.05213094494817 295.96747281033305 62.843915175023305 0.41869799596400653
1.5717863708409174 13.04228616706207 266.0706258599459 65.77654836531387 0.426103758339333
1.5972020918375665 13.03098601874119 239.4584193673267 68.85669645265419 0.43374592915182353
1.6222939478338416 13.018215086427576 215.73218807660788 72.09314721385927 0.4416377116033909
1.647045832396528 13.00391155445447 194.54625423639715 75.4953630559483 0.4497933611438589
1.6713995184225567 12.98802425296038 175.6427337308782 79.07354341412062 0.4582282737180916
1.6953340210406544 12.97052352685365 158.74645168452392 82.83739173828354 0.46695373915084415
1.7188007109271977 12.951315601636887 143.62284480858713 86.79965428247995 0.47599147298144795
1.7418151816145917 12.930488034959353 130.09321424250365 90.97244773150332 0.4853580759843206
1.764295716309749 12.907878780497597 117.95768953940527 95.36890635680216 0.49507176021832866
1.7862243909482436 12.883489090513981 107.07817605221803 100.00359760849064 0.5051536977350678
1.8075696773826493 12.857282090415822 97.31072643791867 104.89252889696152 0.5156276658541068
1.8282994253927682 12.829233004359418 88.54461547259518 110.05175689096848 0.5265145272429165
1.8483790590442124 12.799301131546956 80.65622326875211 115.49958742247806 0.5378403380680902
1.8677770474874604 12.767460586826044 73.55722357005662 121.25595398255587 0.5496335340928032
1.8864594761562476 12.733676471702328 67.1676877379764 127.34210094645302 0.5619234233516367
1.9043962643951002 12.697922475298252 61.40273767210566 133.78099159559306 0.5747413235106511
1.921536267746825 12.660118190752724 56.209651875741365 140.5970182813623 0.5881191449585409
1.9378917543083765 12.62038738442051 51.516332971047106 147.81835075748918 0.6020971338626485
1.953401100879445 12.578595387741489 47.27552048011402 155.47406178887013 0.6167132417720262
1.9680377216692118 12.534735788035539 43.44200095922539 163.59649960437477 0.6320108577152576
1.9817768671509777 12.488816718923928 39.972772061569586 172.22017728621933 0.6480343450920094
1.9945854848398532 12.440814499397188 36.83106514981575 181.38405725511572 0.6648360542892789
2.0064421196608286 12.39072533456209 33.982483163984696 191.12980795993724 0.6824696180384922
2.017328146880709 12.338566977223193 31.40380905123466 201.50327669935402 0.7009940253600029
2.0271855482431533 12.284247134324367 29.06048880479345 212.55495347544058 0.720474134272741
2.036011934905999 12.227831810494335 26.930653044088036 224.33867522779113 0.7409753193019468
2.04380003889606 12.169363602548662 24.997724047934664 236.91680741873873 0.7625791666516593
2.0504930012083094 12.108748794568271 23.24080014576556 250.35439919482485 0.7853629210621443
2.0560933329226248 12.046064886396193 21.641415366454286 264.72570439447907 0.8094191535228209
2.0605806937464046 11.981330960979111 20.18667603174422 280.1117922460764 0.8348461092644177
2.0639282373506522 11.914540434823525 18.86129100236487 296.6019058175764 0.8617500118442865
2.06612158240698 11.845715715432519 17.655989954241278 314.29508562830443 0.8902479217823931
2.0671535960639877 11.774920865817625 16.557871117684822 333.30178122476025 0.9204702226243118
