M[M_sun], R[km], Lambda[1], P_c[MeV/fm^3], rho_c[fm^-3]
0.24162668629717493 15.618656898711224 2160425.4255784233 3.5677272577965504 0.1711233750220791
0.25364049933370614 15.277399234522678 1723237.9359600854 3.7847722170262155 0.17388758237239052
0.2660342223848085 14.981396086844235 1383166.6315156992 4.011301865973398 0.17666545729122912
0.2788069753778199 14.723690563582991 1116583.6558982972 4.247573769712179 0.1794557228905041
0.2919584848459702 14.498584566696668 906059.713944503 4.494212375592146 0.18226493200904229
0.30548964368499004 14.301445083501983 738842.0022734253 4.7513695317907185 0.1850887173569047
0.3194032103564146 14.128326093718739 605193.2052825172 5.01973364367523 0.1879338322986804
0.33369723578357 13.976164168527998 497817.4400919332 5.299520334444851 0.19079673511270037
0.34837335478586146 13.842263287263002 411152.9592442943 5.591467884395561 0.19368391839175608
0.3634325736498876 13.724214062736634 340774.9059137498 5.895731333973255 0.19659021934999837
0.37888078782337853 13.62025917126569 283419.59938769403 6.213179720275335 0.1995234234074668
0.39471062187566286 13.528662381789465 236512.4613308804 6.544079438915979 0.20247986915455504
0.4109304495252482 13.448076456096329 197960.51013897985 6.889114836362931 0.2054629633691768
0.4275340985533658 13.377241935950869 166169.23310578844 7.24899872493597 0.20847592340852017
0.44452337042081913 13.315114708936367 139877.36758013727 7.624002954747618 0.2115145029648486
0.46190130645162025 13.260723102218856 118044.27529913631 8.015050648234924 0.21458446543085694
0.47965924000579463 13.21331944774433 99869.9022547339 8.422858178323475 0.21768764800008386
0.4978108875386438 13.172131026674665 84694.01454730004 8.847883875870837 0.22082177303296524
0.5163437769089666 13.136532054162092 71985.24038765431 9.290965928653907 0.2239897544739929
0.5352564064543676 13.105969772097952 61317.02710248802 9.753004841839134 0.2271947485260876
0.5545578013421604 13.07990995985682 52339.32563660145 10.23480945463847 0.23043810492408556
0.574234113070155 13.057942423980617 44762.57842464263 10.736875476315676 0.2337168358992141
0.594283285461091 13.039607489261071 38354.59041881014 11.260398224390235 0.2370365126560559
0.6147148164472457 13.02457488121342 32927.809396658 11.806337634194037 0.24039904761911576
0.6355104043066782 13.012480749413323 28316.735334675 12.375671748110245 0.2438060720107219
0.6566757761181204 13.0030604997064 24390.96031223284 12.969123119061162 0.2472559191504066
0.678200577020948 12.99601318708197 21046.01388136875 13.58795088406496 0.25075262229080336
0.7000809086535046 12.991091343317384 18188.163742029676 14.233383546117537 0.2542991818664719
0.7223086296478332 12.988018975086309 15743.632562573135 14.906609536345028 0.2578975800962257
0.7448885114662774 12.986651154156714 13646.703704687181 15.608701760664767 0.2615481530453799
0.7678015980203025 12.986749341243684 11846.73626653908 16.340838965201492 0.26525192870990016
0.7910404015495188 12.988125502531561 10299.700431957146 17.104677112393606 0.2690140171646958
0.8146070920841493 12.99064362444233 8965.309008347607 17.901669591237034 0.2728368477250216
0.8384814211459689 12.994103182069725 7814.749626987539 18.733234713594992 0.2767219836090283
0.8626540521850965 12.998368746810185 6821.572384846924 19.600609292077692 0.2806689514281425
0.8871225389714452 13.003305019546326 5961.691612278451 20.505928203535056 0.2846845728957291
0.9118748682957051 13.008809239847531 5216.64750815548 21.45098336449894 0.2887718569672981
0.9368892919798725 13.014684400088939 4570.246883320807 22.437326193244655 0.29293127489712784
0.9621584658293796 13.020875317840867 4009.191570452299 23.466844823260036 0.29716553482191654
0.9876758532697492 13.027275004850443 3520.559158312935 24.542024059090352 0.30148126412071874
1.0134154390831185 13.03374279702203 3095.678150607118 25.664885419188337 0.3058806925734633
1.0393659463888032 13.040190861825184 2724.6485044657866 26.837227907016498 0.31036388932465575
1.0655131422516448 13.04652099692411 2401.1740068774575 28.062221924618786 0.31494016376364453
1.0918348547944454 13.052646328884725 2118.2269526454097 29.342014628899122 0.3196106066387832
1.1183256296297541 13.058481161548173 1870.8958818823362 30.679172074641496 0.3243786154319806
1.1449489548041236 13.063945285144554 1653.9903871479128 32.07728567640126 0.32925355231881276
1.171705099043617 13.068955829380153 1463.9519574179185 33.538086300288946 0.33423175914212244
1.1985524527972848 13.073416883218012 1297.061873299013 35.0662101633165 0.339327449013234
1.2254925859209866 13.077291504210386 1150.4948300817778 36.66380088508669 0.34453812994717153
1.2524810536026447 13.080464226585926 1021.4793849941045 38.335671219570195 0.3498768036814722
1.2795165464871703 13.082913156977593 907.936630470615 40.084283600754134 0.35534139855587205
1.306554282323404 13.084507483391928 807.8987596769954 41.91500717630602 0.36094588129406785
1.333585106213859 13.085234716034563 719.5099098277666 43.8311541447916 0.3666912636053318
1.3605889151852548 13.085041146222254 641.4915704246695 45.83770927559863 0.3725869663543837
1.3875136910469787 13.08379635687139 572.5863724176537 47.93984894026898 0.37864209936533416
1.414363478324119 13.081523037757364 511.5137702061164 50.14214241089866 0.3848613853087286
1.441091753348553 13.078100169053068 457.5104380477144 52.45015079710404 0.3912535923390511
1.4676744884706632 13.073505122411145 409.5954766552157 54.87010791500165 0.39782949465024775
1.494080218806132 13.067654184750811 367.0784395206446 57.40819236414145 0.40459813436854625
1.520287868603222 13.060531465180935 329.3055839270367 60.07101984445146 0.41156926215599937
1.5462700716658284 13.052061738209952 295.7182992075975 62.86568249482975 0.41875339552349256
1.5719840830342913 13.04220477298066 265.8495077652252 65.79979199659296 0.42616188190068843
1.5974061359017917 13.030901429742185 239.26958885101402 68.88152682375272 0.43380696701968446
1.6224931429574454 13.018105543358127 215.53758397501466 72.11968406957038 0.4417018692373447
1.6472449247697236 13.003791140483655 194.38257894921767 75.5237363326646 0.44986086049676816
1.6715944581010496 12.987885249288174 175.49744113994382 79.10386049859504 0.45829921392677425
1.6955336423280434 12.970364755437826 158.61139329012732 82.86971843337983 0.4670280258020248
1.7190038317204566 12.951177418938524 143.49432332703958 86.83427118275316 0.4760698632287278
1.7420112540802533 12.930298803033534 129.97821500712948 91.00936925102327 0.4854402127749297
1.7644896562691805 12.907670121520422 117.85369048793052 95.40848787506931 0.4951586109075304
1.7864167565586186 12.883263147802877 106.98342977697776 100.04587358105657 0.5052449274497739
1.807758690583681 12.857038000429979 97.23045403460154 104.93771837485946 0.515723625805144
1.8284865211230439 12.828968221595451 88.46806272731514 110.10028981399289 0.526616308471645
1.8485615990169564 12.799016439037755 80.5866851819624 115.55153986898037 0.5379476538951529
1.8679555756676947 12.767149308429588 73.49403212249989 121.31161143711822 0.5497468322741106
1.8866338667507907 12.73334479613024 67.11097571706054 127.40177562649923 0.5620431899583368
1.9045651475366283 12.697567281848382 61.348249425679086 133.84480600544148 0.5748673129698904
1.9217180200957233 12.659799522833026 56.15904894809567 140.66555766098548 0.5882526857342556
1.9380498559967365 12.61998346487355 51.471934920362244 147.89202518281405 0.6022388502852921
1.9535442499571145 12.578136755237614 47.23581435090983 155.55307925438572 0.6168629877789381
1.9681809712504612 12.53428313600643 43.40505575075905 163.68158661651748 0.6321701775322836
1.9819124134296628 12.488334999700648 39.93919359026967 172.31161805224872 0.6482031804685562
1.9947133527201408 12.44030680028258 36.79874475214716 181.48243108355862 0.6650152435818181
2.0065657174478626 12.390183700497461 33.94503674616709 191.2357530759109 0.6826600768440986
2.0174318317054607 12.337980655591062 31.374195386846 201.61749710132548 0.7011967553065886
2.027285749435939 12.28365140497289 29.034520092384042 212.67799427744984 0.7206894713884237
2.0361158667852233 12.227240646013106 26.909065526713782 224.47156281088033 0.7412050186529211
2.043880278946379 12.168706066783205 24.97719546972505 237.06024399955317 0.7628237391982566
2.050561972437783 12.10806241388411 23.220750298698082 250.5097310245044 0.7856247754159479
2.056149676797363 12.045344702025316 21.623595706565563 264.8937765980358 0.8096988354343285
2.060625500977552 11.980577688051957 20.169860822089014 280.2938816089725 0.8351453105449398
2.0639611515297 11.913754818730888 18.847121957220075 296.799095767857 0.8620694948964561
2.0661408523608094 11.844900288394456 17.642430532913732 314.50928525391265 0.8905908132531679
2.067159268728083 11.774073733451353 16.54579540842473 333.53440186687703 0.9208376283469295
