M[M_sun], R[km], Lambda[1], P_c[MeV/fm^3], rho_c[fm^-3]
0.24162668629717493 15.618656898711224 2160425.4255784233 3.5677272577965504 0.1711233750220791
0.25363769865906205 15.27745092020625 1723391.3372571943 3.78471625492302 0.1738868848317712
0.2660271947075664 14.981559653145602 1383360.3151953628 4.011184225657194 0.17666403567743438
0.2787967996703833 14.72386135468963 1116761.2077927343 4.247390474515192 0.179453596942439
0.29194421495861494 14.498820096182003 906260.2556847793 4.493958619109431 0.18226210637171344
0.3054726396432745 14.301671160875815 738987.707973595 4.7510367017601505 0.1850851221573589
0.3193826942855844 14.128567979949372 605369.5817784683 5.019319291971508 0.18792953323982922
0.33367162478005163 13.976447227840525 498022.98684872076 5.299013556992535 0.19079163270465144
0.3483446673473662 13.842498722343576 411293.6602621784 5.590867419583095 0.1936781087295133
0.36339800477397866 13.724470640673829 340912.2348894378 5.8950236970988605 0.19658357307472213
0.3788434977025755 13.62044846455831 283548.39663072745 6.212356353332837 0.19951591529234955
0.3946656282697826 13.52891112176935 236648.12091164137 6.543141200438567 0.20247164207060622
0.41088046256637767 13.448327221059921 198067.27780010417 6.888043621110626 0.20545384045057014
0.4274783685357404 13.377463369925328 166265.43235818177 7.2477844873001835 0.20846587833174177
0.44446264181486106 13.315323296154538 139961.78533647992 7.622649054130831 0.21150372504538376
0.461833191439396 13.260927576662908 118118.05231058667 8.013533479195864 0.21457272890176132
0.4795864272033047 13.213498287500022 99938.8220540788 8.4211659180962 0.21767492456891116
0.4977323119227065 13.172292548271724 84756.90410951203 8.846022766850444 0.2208082978084669
0.5162581981736222 13.13668684507465 72041.49800883787 9.288905865269255 0.22397525149933498
0.5351644020365848 13.106099918998739 61364.37845735492 9.75073186582231 0.22717918652912011
0.5544587954068481 13.08005101544573 52380.51758815274 10.232308759980828 0.23042145127318983
0.5741260175274601 13.058030009152215 44798.86936486619 10.734157929909383 0.23369938840949517
0.594174846213609 13.039704220482246 38054.55329720693 11.25742297698984 0.2370179232564573
0.6145948713666364 13.024653964735853 32956.85126543066 11.803087121702738 0.24037927907980833
0.6353833910636915 13.012539362427768 28341.90569666026 12.372127311173172 0.24378508513660976
0.6565359754244444 13.003104303974958 24415.8774045489 12.965301033483911 0.247234073676567
0.6780582767272134 12.996068462298025 21066.8587673302 13.583796902052864 0.2507294940318784
0.6999309413962445 12.9911055503138 18206.5663751872 14.228875410561706 0.25427472501106185
0.7221503367753671 12.988027489439068 15760.367976056377 14.901723560736768 0.2578717461014024
0.7447226127729933 12.986649308903187 13660.705631797686 15.603460387392259 0.26152136262195114
0.7676272824518962 12.986741072499997 11859.19351401053 16.335171252717867 0.2652236765846807
0.7908562567153994 12.988115705500176 10310.051937917337 17.098554636364053 0.2689842456370084
0.8144147075595499 12.990610402469052 8975.625651248864 17.895062043691198 0.2728054953843789
0.838280311498791 12.994077690867021 7823.649314641554 18.726171393470885 0.27668953130771795
0.8624453374529389 12.998330077865937 6829.610606903697 19.592998411563514 0.28063480620720654
0.8869043917878898 13.003270858094476 5969.019333765662 20.497733159101333 0.28464866094035884
0.9116480889094977 13.008746992446774 5222.916724227521 21.44216504724922 0.2887340994865048
0.9366521225816906 13.014630304066955 4576.1955734864005 22.42792132359016 0.2928922124229038
0.9619141939852577 13.020829071497362 4013.832705915657 23.456735449600764 0.29712447765169864
0.987422630024986 13.027219337646144 3525.026324526685 24.531162634397845 0.3014381168365758
1.0131497083681689 13.033671566967872 3099.3156663760956 25.653313968582566 0.30583603611704
1.0390957488640225 13.04012606171132 2728.297382415421 26.82480505958494 0.3103169580440358
1.0652350098646788 13.046455789522227 2404.2551885001817 28.04888957572688 0.3148908416077437
1.091545810955433 13.052580903086762 2121.141387986159 29.327820007794283 0.31955951471834754
1.1180286770007208 13.058423034103786 1873.4060592594783 30.663945829094693 0.3243249038641781
1.144645605325532 13.063884618356886 1656.375373291248 32.060956426972425 0.32919707942205345
1.171392091434024 13.068902443934578 1466.0211612054024 33.52070616063742 0.3341731862795294
1.1982377683287362 13.073383170111446 1298.960367001779 35.04757612311983 0.33926583129400334
1.2251643779354688 13.07725570546016 1152.1387167753728 36.64396698760888 0.34447414886412947
1.2521452960928712 13.080432403588786 1023.0058627389993 38.314409438448244 0.3498094510199238
1.2791731400961548 13.082886829758877 909.2450587553225 40.061649327182124 0.3552713756750625
1.3062059321717268 13.084488476369428 809.0244311518019 41.89090692096091 0.3608730225709869
1.333229285279892 13.085229872226414 720.6367092724145 43.80531792044872 0.36661446498507344
1.3602258939355634 13.085047672179785 642.5206358839018 45.81019118137223 0.3725069474744239
1.38714610409457 13.083822637260123 573.5013084723189 47.91053153211884 0.3785586525578736
1.413984077946087 13.08154342657475 512.3805832412561 50.11070448591978 0.38477329277840683
1.4407134660551528 13.078159335698365 458.223606767682 52.416642225815295 0.391161590356869
1.4672880706171474 13.073567991400166 410.2520922884134 54.83438044906651 0.397733322737395
1.4936936750637135 13.067747297240341 367.635002083384 57.37008575300525 0.40449751192024996
1.5198991957009658 13.060647253453029 329.8224253500343 60.03036076135793 0.4114638867898407
1.54587751964435 13.052200322494793 296.1985776047631 62.82228335573439 0.41864294126411034
1.5715898226769607 13.042366845553365 266.28406748486026 65.75344966005414 0.4260459971833297
1.5970037747868089 13.03108060805593 239.65239107053364 68.83202115842843 0.4336852724929921
1.622098939213412 13.018313995341385 215.90202349675238 72.06677637430933 0.44157395534344357
1.6468471864659668 13.004032720743318 194.70584037672762 75.46716759231731 0.4497262848040658
1.6712013476997987 12.988161145071318 175.7877536165947 79.0433831649163 0.4581576389734745
1.6951232407245629 12.970685432427231 158.87602597538304 83.26556554832977 0.47745695427765733
1.71800125933919 12.951375043870854 144.05350646583256 86.8037704006776 0.5375777454082593
1.7391435882697743 12.929338719902857 131.22360815360207 91.08738536654572 0.6078896278345706
1.7585209361379153 12.903983933217145 120.07499322083707 95.67814727350269 0.6807041459211306
1.7761934846970602 12.875057215683636 110.26383863813545 100.59916053664118 0.7562780462945519
1.7921803546773556 12.842397391688575 101.61337806929392 105.87686944363885 0.8349972923911892
1.8065080970499239 12.805936355480044 93.94015211207994 111.53946476533763 0.9171896799655045
1.8192049730113897 12.765591760828505 87.09038061834254 117.61823575649932 1.0032346583374725
1.8303140485990528 12.721374693471997 80.96994697996685 124.14781923786879 1.0935480169877858
1.83986647486784 12.673329918870179 75.46110880895698 131.16641398615928 1.188573370928535
1.8478713619732117 12.621497681599624 70.49467529559404 138.7167190748046 1.2888087795143655
1.8543845431219235 12.565935541398874 66.00857701895325 146.84469031441358 1.3947336801431092
1.8594153183917832 12.506709349529022 61.94010747946998 155.6026421849807 1.5069259611912675
1.862980654705748 12.44388835281742 58.24871956643389 165.047863648091 1.6259756421685727
1.8651182433349889 12.377594563518121 54.892937571730926 175.2436325365415 1.7525013649805787
1.8658401668023596 12.307911974584801 51.838928125173695 186.26060568884523 1.887154074258619
