M[M_sun], R[km], Lambda[1], P_c[MeV/fm^3], rho_c[fm^-3]
0.24162668629717493 15.618656898711224 2160425.4255784233 3.5677272577965504 0.1711233750220791
0.2536398321440442 15.277412104431704 1723165.0344805506 3.784760768842302 0.17388743967630083
0.2660329011225125 14.981413724196758 1383198.2859915067 4.011277800058513 0.17666516646885047
0.27880446724999164 14.723748860194663 1116628.119579076 4.24753627234475 0.17945528797754923
0.29195531186643126 14.498626563188752 906110.9581212766 4.494160463294599 0.1822643539535609
0.3054863977308708 14.30148206435092 738871.0011643114 4.751301442459562 0.18508798186217776
0.3193986957494568 14.128402127750942 605244.5980745847 5.019648876255744 0.187932952803986
0.3336925643941588 13.976190693718687 489873.3062683573 5.299416657906229 0.19079569126198695
0.34836841692019116 13.842256572136868 411151.10911354295 5.591345040406192 0.19368272984236573
0.363425712875626 13.724267718512312 340803.40973041096 5.895586563464912 0.19658885963474731
0.3788729520146903 13.620302735624875 283445.70908322313 6.213011272088557 0.1995218873628282
0.39470003287880345 13.528757816475306 236529.51952591815 6.543887488463481 0.20247818600839898
0.41092027624507216 13.448118126735118 197977.77938897168 6.88889567910683 0.20546109693401807
0.4275211227278542 13.377314396649174 166194.16383731682 7.248750305264423 0.20847386829624198
0.4445116237913476 13.315147144049059 139898.89682908682 7.623725959745765 0.21151229790652668
0.4618861163007715 13.26077947585715 118056.46579086194 8.01474024784929 0.2145820642329261
0.47964473775024585 13.213364127544466 99884.89046294091 8.422511953224605 0.21768504487135418
0.49779513229634675 13.172189983976809 84708.63335418954 8.8475031030372 0.220819016074958
0.516326110515446 13.136572451393825 71996.73698706151 9.290544447846584 0.22398678722283308
0.5352371397262284 13.105996669894635 61326.85166808982 9.752539796664873 0.22719156458066186
0.5545368230284852 13.07994298845117 52348.222759931086 10.234297815197872 0.23043469760500238
0.5742093921394408 13.0579524086227 44768.20209716436 10.736319465876642 0.23371326613996501
0.5942630321185444 13.039639143392538 38362.40423829895 11.259789484034808 0.23703270923529926
0.6146896676327392 13.02459234318474 32934.176748667844 11.805672569524162 0.24039500291628702
0.6354843283428345 13.01251011926459 28322.438156500575 12.374946540556918 0.2438017780029861
0.6566472055102854 13.003078509073964 24396.36038217304 12.96834109877672 0.24725144944314323
0.6781710372193009 12.996029571800047 21049.957720772007 13.587100949999764 0.2507478900856393
0.7000510097660598 12.991095371612609 18191.442843557343 14.232461143330575 0.25429417778633473
0.72227421641377 12.988023040728645 15746.124066506036 14.905609817326086 0.25789229420492565
0.7448552959285059 12.986659605322362 13649.676019198725 15.607629317592735 0.2615426714277753
0.767765916453931 12.986759956763406 11849.341711641568 16.339679280336213 0.26524614797170576
0.791002155322698 12.988127253780577 10301.2311886467 17.103424368480418 0.26900792549526065
0.8145681949906692 12.990628516639685 8967.833574735734 17.900317585467818 0.2728304325543197
0.8384403539114224 12.994090367376359 7816.939539319099 18.73178944148376 0.276715343331481
0.8626123428495572 12.998358269556563 6823.180425930322 19.59905196909768 0.2806619647020834
0.8870783665755853 13.003292957123207 5963.208834470072 20.504251338253926 0.2846772246120651
0.9118286202242273 13.008798060304109 5217.896181564406 21.449178952654194 0.28876413099831316
0.9368384279147185 13.014674197469741 4571.412089716805 22.435401749424475 0.29292328185311095
0.9621087946817308 13.020871699441551 4010.1482213815075 23.464776207508756 0.297157133558705
0.9876230572829049 13.027264397077715 3521.428776168968 24.53980153990222 0.3014724351070637
1.0133610357024578 13.03372998823484 3096.534140749321 25.662517597053885 0.30587155469182964
1.0393109498194717 13.04017336850541 2725.3933985708336 26.834685848098715 0.31035428588381175
1.0654556582466739 13.046513669291649 2401.6560788287666 28.059493736262407 0.3149300710086071
1.0917744490836931 13.052630966236569 2118.801413306424 29.33910997698963 0.31960015167537437
1.1182640109644753 13.058467460513844 1871.401142065356 30.6760562974198 0.32436762432593375
1.1448864079460896 13.0639352685339 1654.5453276396997 32.07394416376813 0.329241996068247
1.1716406480644979 13.068949712536815 1464.4030913121753 33.53452971816701 0.33421977309367257
1.198486888373375 13.07341010732617 1297.4485085174028 35.062396959704635 0.33931483978265137
1.2254248834672548 13.07728265087577 1150.8398387974025 36.659742121108025 0.3445250370028595
1.2524137127163164 13.080457636002608 1021.8785962254651 38.3313202219307 0.34986302067478386
1.2794467722700993 13.082908520249852 908.1747751381649 40.079651706743164 0.3553270690232179
1.3064823233901555 13.084508956643853 808.0873611717227 41.91007524986935 0.36093097133326624
1.3335084867556526 13.085234722302046 719.7642495222639 43.82586692206861 0.36667554724504886
1.3605109040911738 13.085049244140702 641.7367927841085 45.83207782984273 0.37257059087509964
1.3874381732007848 13.083800892770522 572.7294339007216 47.933849231448036 0.3786250222572816
1.4142879925995202 13.081527733213253 511.69309735558664 50.13570868947963 0.38484335731230174
1.4410140225793424 13.078113886263413 457.6433381598216 52.44329327120994 0.39123476414223884
1.467596369091529 13.07351818475987 409.72577631644384 54.86279623813591 0.3978098129311016
1.4940014613744148 13.067673732385801 367.1949404242525 57.400393732579964 0.40457754168455573
1.5202095255893942 13.060553989398896 329.4100655552575 60.0626987773281 0.41154769660586293
1.5461892837564029 13.052092930442988 295.8163595893124 62.856800592287364 0.41873079037537964
1.571903276083688 13.042239434032439 265.9616264103547 65.790307673557 0.426138165183396
1.597319932766408 13.030927362867004 239.33699343321496 68.87139501659139 0.433782061072679
1.6224119643521153 13.018148299676287 215.6124499490841 72.10885591256341 0.4416756902151874
1.647163682179443 13.00383999854385 194.45444435023182 75.51215880082576 0.44983331782289154
1.671517065470942 12.987944528831834 175.55430123666767 79.0915097213141 0.4582703504765337
1.695452484110015 12.97043138110332 158.66521384908856 82.85652765330944 0.46699771342784085
1.7189167002354386 12.951217919407975 143.55013806199253 86.82014584420436 0.47603787628671357
1.7419302169641186 12.930376863907842 130.0233856545064 90.99430347264943 0.4854066969635616
1.7644106491073714 12.907756310246965 117.89919723739526 95.3923366283345 0.49512317146579604
1.786338361126362 12.883352723726848 107.02257056204196 100.02862280586302 0.5052077010253099
1.8076812134413662 12.857135069006338 97.264395700463 104.9192786777093 0.5156844690695945
1.8284098568772227 12.829078540740213 88.49486052453072 110.08048573580166 0.5265747761820871
1.8484864588739522 12.799130834708965 80.6153110588155 115.53034036332863 0.5379038630318634
1.8678828599390904 12.767277121257786 73.5211881470182 121.28889999730694 0.549700600105469
1.886562616350097 12.733480830773939 67.13302041062785 127.37742483535578 0.5619943181148103
1.9044963704689912 12.697712175086586 61.373080534374694 133.8187658707273 0.5748159016585744
1.9216499765609527 12.659956141495998 56.177643783641734 140.637589339691 0.5881981928085589
1.9379846534866643 12.620148710499645 51.48819947308068 147.8619613182555 0.6021810209460433
1.953482686689157 12.578310347808861 47.25458164820496 155.5208349641366 0.6168018816212171
1.9681221342256516 12.534465946517171 43.420149563094036 163.64686539949957 0.6321051643439849
1.981856519581948 12.488532274507856 39.95302296662473 172.27430392139928 0.6481342840057853
1.994661735881861 12.440512498095435 36.81164177736121 181.44228761200296 0.6649421216917587
2.0065138050178715 12.390406930012146 33.96709917013277 191.19251978993807 0.6825823558474
2.017387144802908 12.338211536339502 31.384807586115453 201.57088668158744 0.7011140264092924
2.027210956478077 12.284051389545679 29.05158448267798 212.64539088918758 0.7792815307144486
2.0339079656483197 12.230333368974298 27.17649473972796 225.06904908447189 1.0999305350192143
2.036275317774636 12.1747320062498 25.752384253205886 239.21678607778205 1.4121980706617097
