M[M_sun], R[km], Lambda[1], P_c[MeV/fm^3], rho_c[fm^-3]
0.24162668629717493 15.618656898711224 2160425.4255784233 3.5677272577965504 0.1711233750220791
0.2536371517961062 15.277451526531015 1723213.7957931145 3.7847053107757165 0.1738867484182547
0.2660258957907836 14.981581424309994 1383380.1746036508 4.011161219788418 0.17666375766508735
0.2787945010361452 14.723904763266587 1116783.6324813997 4.247354629540398 0.17945318119474862
0.29194220747036664 14.498816596361253 906205.6681002806 4.493908995401358 0.182261553800207
0.30546991220984165 14.301668139064915 739059.7004593785 4.7509716154916415 0.18508441910144
0.31937724903369136 14.128648968212605 605431.2306156347 5.019238264724809 0.18792869255087108
0.3336647143744746 13.976507874989343 498056.11392360233 5.298914456875176 0.19079063493090645
0.3483386125462349 13.842545511882868 411309.09283678513 5.59075000021951 0.19367697266486966
0.36339135640993514 13.724512074759303 340945.8741402674 5.894885322089625 0.19658227342735213
0.37883564242519996 13.620498307091227 283571.88548443234 6.2121953496841025 0.19951444713293412
0.3946566395245877 13.528973935812147 236653.81775755752 6.542957736360814 0.20247003333849214
0.41087088992987836 13.448342444117777 198090.85740328973 6.88783415694727 0.20545205656585677
0.42746720354346585 13.377508564331265 166285.0081858155 7.247547059327779 0.20846391415097362
0.44445224301090697 13.315338504038587 139980.26209376284 7.622384319539832 0.2115016175878156
0.46181936275598734 13.260982109669397 118131.69347541139 8.013236823176038 0.21457043402761186
0.47957340010713345 13.213517001119584 99955.94430865387 8.420835029612526 0.21767243675008754
0.49771688516301604 13.172358656130863 84769.49754040233 8.845658866731016 0.22080566301611967
0.5162416669288403 13.136714632385663 72052.76559646254 9.288503068164701 0.22397241578260743
0.5351461808938406 13.106124885818598 61373.14010543687 9.750287443363602 0.22717614377772127
0.5544388634397016 13.080067332425333 51901.541770873475 10.231819818131772 0.23041819511121195
0.5741053398322203 13.058064695691666 44403.73429077094 10.733626593515265 0.23369597706525752
0.5941525679558338 13.039728950928733 38396.0679346154 11.256841260840181 0.2370142886834273
0.6145711080308751 13.024666998577578 32962.677537602176 11.802451592776043 0.24037541400357743
0.6353572328296355 13.01258721726408 28349.194312768097 12.371434322418558 0.24378098189877187
0.6565076987628113 13.003124216199407 24421.386259179526 12.964553766984885 0.2472298026076896
0.6780304956980523 12.996065042485004 21071.34201126557 13.58298475403556 0.2507249722093055
0.6999017448889043 12.9911096708165 18209.77588583945 14.227994030929375 0.25426994348354076
0.722118558415917 12.988036134236491 15763.06445901693 14.900768320078548 0.25786669538396173
0.7446889637681922 12.986663750383688 13663.379999154005 15.602435672993591 0.2615161249616651
0.7675922328551935 12.986750948781603 11779.99309289461 16.33406319847789 0.265218153212204
0.790820049654515 12.988102207482388 10312.064574516642 17.097357687081335 0.26897842527796756
0.8143776861030599 12.990617624325765 8977.925140165544 17.893770276106487 0.2727993660395553
0.8382430676705115 12.994067573708062 7825.683756072897 18.7247905347715 0.27668318697646976
0.8624049632246296 12.99832094630477 6831.0337601432675 19.59151052212498 0.2806281309856586
0.8868614889124152 13.00325068396587 5970.196863910818 20.496131085544967 0.2846416404056294
0.9116038406326318 13.008746813411621 5224.343279277967 21.440441146678218 0.28872671824347895
0.9366056566805724 13.014620627531741 4577.2772900673635 22.426082773324428 0.29288457613181174
0.9618657887337638 13.020808820543065 4014.8899097059916 23.45475919777781 0.297116451505844
0.987373006612154 13.02719954220003 3525.925890343421 24.529039389440687 0.3014296821923127
1.01309913728048 13.033660572434778 3100.176600006072 25.65105194418974 0.3058273065292668
1.0390436500203937 13.040103001790653 2728.8939696531047 26.82237662821799 0.31030778386761804
1.0651795135736448 13.046440996029315 2404.8430758329882 28.046283383103376 0.31488120016797
1.0914901504127008 13.052566008439147 2121.644045394957 29.325045284222767 0.31954952741717907
1.1179710183949956 13.058407831077824 1873.9384456705336 30.6609694803339 0.3243144046010618
1.144584831808872 13.0638645283798 1656.9102373500841 32.05776450527547 0.3291860405151373
1.171331261569521 13.068889246865673 1466.419875925547 33.51730885033145 0.334161736993521
1.1981746538943931 13.073368714533284 1299.3023873784277 35.04393375455496 0.33925378696860764
1.2251008347731431 13.077239796644248 1152.4963897932228 36.64009012181072 0.34446164269519053
1.2520808462326605 13.08042752500919 1023.262079045967 38.310253518932406 0.34979628597796575
1.2791081374076692 13.082882852793489 909.6110273415331 40.05722517797721 0.3552576888354353
1.3061364603554484 13.084485667650172 809.2524270186709 41.88619627464028 0.3608587815734998
1.3331595260171862 13.085230835374936 720.849319522048 43.80026802401987 0.3665994540812728
1.360155196869855 13.085050735580966 642.7187693564545 45.804812605770714 0.372491307307199
1.3870746878404965 13.08382829062949 573.5996405734716 47.904801330352235 0.37854234255389646
1.4139112006370325 13.081548480587088 512.5449796907776 50.10455990123148 0.384756074974963
1.4406394179249438 13.078166516374807 458.3578389585552 52.410093002304734 0.39114360864289094
1.4672127868958604 13.073580994057652 410.3883618111243 54.827397622465234 0.39771452622401837
1.4936202536912488 13.067764641499103 367.7703321692369 57.3626380146203 0.4044778457875706
1.5198235172692156 13.060668929380403 329.9571263809123 60.022414248339686 0.4114432919643977
1.545800506168798 13.052228293135794 296.2863321425581 62.813801420436285 0.4186213540644329
1.571512309811167 13.042399331250921 266.3803312583465 65.74439261615342 0.42602334893011395
1.5969268072196412 13.031117391608475 239.73016880321472 68.82234600120258 0.4336614890800925
1.622020307093011 13.018351149953025 215.9722584066303 72.05643647213418 0.44154895676538697
1.6467692621742667 13.004080269585334 194.7701223243166 75.45611234609683 0.449699984635298
1.6711237829626466 12.988215350957178 175.84681095868945 79.03155763173595 0.45812994379395205
1.6950545783627544 12.970726813626683 158.9283861488455 82.7926731043865 0.46685097586039054
1.7185438586526423 12.951590659466993 143.78521246367626 86.75176820192071 0.4758830345693812
1.7415436240350912 12.930745117618775 130.2425613159018 90.92137426126764 0.48524445631251484
1.7640261557384647 12.908164241237511 118.09905406478639 95.31415412482201 0.49495162159578493
1.7859590202624183 12.88379801613639 107.2049659881076 99.94511896001845 0.5050275033486891
1.8072959935124422 12.857592005825435 97.43424467982696 104.83002095569903 0.5154949301098142
1.8280406148194701 12.829597701670988 88.64808121385356 109.98462523194219 0.5263737415181655
1.8481152474808507 12.799671647155822 80.75744323548446 115.42772684411186 0.5376918989103647
1.8675298262401867 12.76788257742701 73.64801643095478 121.17896978043868 0.5494768224688554
1.8862181391688448 12.734133083702096 67.24911912032371 127.25956146633119 0.5617577672736263
1.9041495670334745 12.698379712750745 61.47741748814987 133.69261708710417 0.5745666730563245
1.9213161927569604 12.660673251023228 56.27287429654012 140.50222038640769 0.5879344426093518
1.9376660833377837 12.62091849250418 51.575833876637425 147.71645221810115 0.6019011269523672
1.9531843718629163 12.579160302324635 47.33069659834822 155.36477503053416 0.6165061324252209
1.9678420520082116 12.535382085198775 43.49384843720454 163.47882034904475 0.6317905110729817
1.9815878732423962 12.48948943119026 40.020810231299436 172.09371261783124 0.6478008419091916
1.9944226980455328 12.441564131117548 36.872862828211396 181.2480063737865 0.6645882357224855
2.006284610171509 12.391513313084625 34.02396017733036 190.9291703155108 0.693383541287199
2.016458842706963 12.340070403190799 31.531138278482914 201.51270627383403 0.8404357325626526
2.0242735559930964 12.286577302465531 29.401513130692788 213.01461862227677 0.9913227299435455
2.0296401011397958 12.230147381003759 27.566703126362633 225.581036429331 1.1485459737855637
2.032603869612724 12.170351602771477 25.979021413139243 239.31188888590685 1.312947415685813
2.0332398646505903 12.10701376793162 24.597371893667017 254.31834801393444 1.485447036920763
