M[M_sun], R[km], Lambda[1], P_c[MeV/fm^3], rho_c[fm^-3]
0.24162668629717493 15.618656898711224 2160425.4255784233 3.5677272577965504 0.1711233750220791
0.2536443035808654 15.27728750817324 1723074.2570105023 3.784847725555258 0.17388852354977852
0.26604265010305583 14.981221813574443 1382948.6224474076 4.011460599573941 0.17666737549311354
0.27881955824698207 14.723443443365701 1116294.0998482173 4.247821098179817 0.17945859152801263
0.2919763795384803 14.498302757923001 905756.3854117551 4.494554788590329 0.18226874485724695
0.3055130082898209 14.301129492112905 738593.9041117176 4.7518186553292825 0.18509356874828634
0.31943128942799937 14.128030633075399 605015.8673688456 5.020292785655556 0.18793963361253527
0.3337326910315323 13.975824677070827 497603.19054853485 5.300204214934904 0.19080362065447226
0.34841504071868956 13.84190658394264 410930.85152129934 5.592278210404415 0.19369175851880477
0.36348069779426523 13.723846414845905 340606.3486845653 5.896686309853787 0.19659918868556278
0.37893472866266903 13.619902928393932 279317.7855877396 6.214290901854006 0.19953355604551457
0.39476962342301114 13.52835501242112 236356.38686745713 6.545345672033118 0.2024909723083952
0.4109977211340872 13.447786250292976 197827.6695120639 6.890560564540404 0.20547527579701247
0.4276085830917234 13.376948376541678 166030.53948178777 7.250637513786286 0.20848948068869325
0.44460614264034737 13.314829048241693 139765.87767107086 7.625830274398158 0.21152904960422958
0.4619883846258291 13.260485949832391 117943.21214645731 8.017098370100264 0.21460030621499734
0.4797577249946198 13.213071834610512 99779.50480182457 8.425142269094751 0.21770482116958353
0.49791789855948243 13.171904363035694 84617.07153787672 8.850395913400273 0.22083996125798944
0.5164596973951247 13.136323277722688 71916.68302528487 9.293746563656915 0.22400933031776646
0.5353805295018891 13.105777530101571 61256.366905632516 9.75607292636396 0.22721575425677631
0.5546900168703749 13.079752194516377 52285.326902731154 10.238180248606701 0.23046052373163312
0.5743765496635275 13.057785592293882 44713.218105740336 10.740543788066777 0.23374038759695692
0.5944364168499301 13.039505375785126 38314.0259161311 11.264414479683724 0.237061606291809
0.6148768155903152 13.024464694033737 32888.807073113596 11.810725557354722 0.24042573351302088
0.6356840844182459 13.012428103165895 28048.17372982758 12.380456543486911 0.24383440313919316
0.6568581203853742 13.003004500660001 24360.523953547756 12.974282814234751 0.24728540985218625
0.678392893617234 12.995966816534194 21018.567236959585 13.593558743905758 0.2507838453519614
0.7002851242682006 12.99105256538077 18163.839416982468 14.239469636729549 0.2543321992050738
0.7225236724941724 12.98798937941365 15721.512945011418 14.913205855539077 0.25793245732230596
0.7451145662389007 12.986644825796212 13627.393804085208 15.615778005307874 0.2615843221141369
0.7680389364325155 12.986763487708892 11830.847910053231 16.348490956764337 0.26529007196865523
0.791287796961654 12.988150084087883 10284.725102539513 17.11294325159445 0.2690542126004799
0.8148645672545571 12.990673789310573 8951.533477415287 17.91059082458771 0.2728791783393718
0.8387531688287856 12.994134018498919 7803.466766760169 18.74277147313638 0.276765800084669
0.8629364906141469 12.998415811465017 6810.360129091219 19.610885570776617 0.28071505460975477
0.8874219647379471 13.003380577305196 5952.139197927412 20.516993456795397 0.2847330625512106
0.9121809259371213 13.008866108604911 5208.359203115865 21.46289043414146 0.288822839591375
0.9372053825104482 13.014761521866744 4562.998730290743 22.450025480883763 0.29298402050810274
0.9624923939687305 13.020978451455315 4002.1850510696386 23.480495684464813 0.29722097502533523
0.9880166115826751 13.027357838869781 3514.836710411315 24.556690741593616 0.3015395278877031
1.0137636806384542 13.033814819912575 3090.3738133580828 25.680511153102678 0.3059409952899852
1.0397306868164546 13.04027875145879 2719.741776597373 26.85400370532098 0.3104272652698397
1.0658856617951014 13.046606891750631 2396.742590476199 28.08022630705583 0.31500676980318465
1.0922221790795414 13.052739651242264 2114.4310179070735 29.361183788452674 0.31967960384325206
1.118723125450335 13.058567450938607 1867.1817746959807 30.699734852531517 0.3244511519634224
1.145358492725747 13.064022661903307 1650.8817896458074 32.09917545691762 0.32932876494275615
1.1721246669255647 13.069030375272272 1461.1212849800688 33.561558834225245 0.3343108640016073
1.198985053053252 13.073488906586917 1294.5668690232728 35.09137671735541 0.33941066798477243
1.225934401547831 13.077348483079875 1148.2994841391896 36.69058843300482 0.34462454243013213
1.2529332167990552 13.080513225674203 1015.0777152340711 38.36431004917679 0.34996731507254036
1.2799782359297982 13.082950936369794 906.0771627905134 40.114854634782425 0.355435975122033
1.307032745213651 13.084550121220778 806.2393252571537 41.94755888288069 0.361044290034605
1.3340635724486942 13.085240561518747 718.0286967169106 43.866051445699405 0.3667949964311848
1.3610755024460963 13.085029121794797 640.1711214446382 45.87487905551279 0.3726950510252412
1.3880169997789715 13.083778603318365 571.3740720900408 47.97944994617918 0.37875481661163746
1.4148617448954823 13.081453810609137 510.4634646111271 50.184608833946314 0.38498038090600467
1.4415947996704226 13.078007076906987 456.54231572107415 52.495415229193455 0.3913778715104515
1.4681903989533929 13.073403211173794 408.7051755904769 54.91837076073363 0.3979594095510747
1.4946019368950176 13.067526393484956 366.2566991021706 57.45967026010665 0.40473406437572124
1.5208147597517847 13.060372373654877 328.6010908119108 60.12594711242068 0.4117116161033581
1.5467998547856345 13.051874095634126 295.0712824255401 62.92431273993679 0.41890261415860114
1.572516607783817 13.041984081591185 265.2593542767011 65.86239986665164 0.42631844058693646
1.5979308855709833 13.030638200044669 238.7325551435551 68.94840994782155 0.4339713787102243
1.6230402177584893 13.017822288156493 215.0623216091904 72.19116519609781 0.44187468775059596
1.6477814142996388 13.003459317638063 193.937117607974 75.60016569007259 0.4500426841267947
1.6721301582501418 12.98751206005283 175.10902422595512 79.18521937208423 0.4584890232478186
1.6960671616899012 12.969951245611465 158.2411160021143 82.95680050492129 0.46722814014880293
1.7195463094428398 12.95072368390387 143.16398925796761 86.92752466960984 0.47628103649486975
1.7425275918590788 12.929771880511877 129.6763612944081 91.10883297145102 0.48566148294160205
1.7650086490471437 12.907106811924546 117.5823397079096 95.51511986899419 0.49539258531196884
1.7869194247580382 12.882625819489123 106.7423602402278 100.15976669198862 0.5054907038420525
1.808269765393926 12.85638234129103 97.01032527265991 105.05946312154825 0.5159821510299246
1.8289737721155448 12.828227789361467 88.26813508081932 110.23076731384008 0.526889488892334
1.8490533822757733 12.7982450017385 80.40142228833353 115.69151126924537 0.5382367865076835
1.8684258087366052 12.766288871299606 73.32828138157728 121.46156839015791 0.5500520896774067
1.8871021368465097 12.732448919194011 66.9554923141264 127.56238179642416 0.5623652464351895
1.9050205712313644 12.696615058589812 61.20910149735988 134.01674786804318 0.5752067795941406
1.9221580649040333 12.658777447379679 56.03102167650002 140.8502351786182 0.5886125077679147
1.9384663619228624 12.618869659830406 51.35193445299037 148.09054412842195 0.6026207113541024
1.953956957453189 12.57700495599198 47.126490185482716 155.7660003835756 0.6172664946324584
1.968566611203027 12.533050860036017 43.30602254579192 163.91048131996226 0.6325981814696713
1.9822776658061982 12.487031755471822 39.84939702262997 172.55802837932373 0.6486581501955523
1.9950594467518261 12.438928109548014 36.7177801683556 181.74753146155768 0.6654981275961682
2.0068897491815654 12.388747537178142 33.878290156595554 191.5212647612824 0.6831733446250886
2.017728199486922 12.336450890185892 31.30441714284214 201.92531882350684 0.7017431084993515
2.0275577228735595 12.282047769354673 28.968980793930417 213.00944673397606 0.7212693276309458
2.0363590031689496 12.22555242663391 26.849437069580205 224.8297133471747 0.741824090381261
2.0440945807025024 12.16693440621339 24.923808754963392 237.44683718751838 0.7634829160967925
2.0507455240867807 12.106201710279711 23.17104000242211 250.9280295561467 0.7863293527311085
2.056308443700363 12.04342855403497 21.578362114354352 265.3466548745822 0.8104522226568306
2.060744802435286 11.978554129474093 20.127544077342534 280.7840812958417 0.8359497796129242
2.064041234989425 11.91163159391234 18.80832009716543 297.3306370650383 0.862930687040052
2.0661880361223135 11.84270157817897 17.60736208645848 315.08669872197714 0.8915151386470508
2.0671721491145183 11.77178711395492 16.51168228376694 334.1614952061284 0.9218280721844145
