M[M_sun], R[km], Lambda[1], P_c[MeV/fm^3], rho_c[fm^-3]
0.24162668629717493 15.618656898711224 2160425.4255784233 3.5677272577965504 0.1711233750220791
0.25363968845745694 15.277415282882453 1723350.1714176142 3.7847574836587046 0.1738873987280721
0.2660325610067972 14.981423831212368 1383125.8341590501 4.011270894095869 0.17666508301436754
0.2788038523801772 14.72372928679299 1116616.5480432794 4.247525512116879 0.17945516317512125
0.29195452795736404 14.498639638490184 906126.0750008608 4.494145566603522 0.1822641880754484
0.30548486531041025 14.301521629950596 738912.912768829 4.7512819036776985 0.1850877708060433
0.31939850261583735 14.128376897807364 605240.5179454783 5.0196245516227505 0.18793270042653026
0.333690288259718 13.976235696189459 497832.8714654415 5.299386907239222 0.19079539172213547
0.3483673704481978 13.842298653787381 411186.44806100836 5.591309789597146 0.19368238878109104
0.36342353163309415 13.724285707297978 340813.1027813418 5.895545020815937 0.19658846945739678
0.3788713124648483 13.620296150309697 283453.6262070414 6.212962935127301 0.19952144658794305
0.3946980965262788 13.528751998400713 236531.45913106957 6.543832407547262 0.20247770302317442
0.41091728557598006 13.44813403972275 197979.1203875907 6.888832791247943 0.20546056135462193
0.4275181335190256 13.377341118398576 166173.88874361312 7.248679020637205 0.20847327857678968
0.4445076406143705 13.315164571058476 139902.84069281747 7.623646475531066 0.21151166516106948
0.46188229378944323 13.260790053624309 118063.84267754295 8.014651178112294 0.21458137520650067
0.47964053296639325 13.213362314216557 99888.26311064404 8.422412603782433 0.217684297902437
0.4977909175361986 13.172168724927738 84708.06482842565 8.847393840335872 0.22081822496631603
0.5163226864473066 13.13655859139942 71998.12092597687 9.290423504282726 0.22398593577260356
0.5352322421507563 13.105991495762138 60738.9683849758 9.752406352654592 0.22719065095233143
0.5545314475765576 13.07994486860494 52352.34232146984 10.234151001375707 0.23043371988221903
0.5742035322289075 13.057957009502054 44770.77065646799 10.736159920212698 0.23371224180738143
0.5942557758991392 13.03965047503156 38364.39451333492 11.259614808070408 0.2370316178567127
0.6146821811593577 13.024613658092894 32935.71589069295 11.805481731930815 0.24039384230531397
0.635476021087168 13.012499538574454 28322.676417053524 12.374738445688699 0.24380054585783012
0.6566396856491623 13.003077372329313 24396.716519462057 12.968116702200211 0.24725016688433005
0.6781627924854382 12.99602597423149 21051.177837820167 13.586857066483937 0.2507465322075635
0.7000414918722915 12.991098722557329 18192.705789014453 14.232196465955177 0.25429274189865564
0.7222671388312923 12.988019041851283 15747.851692680664 14.905322955229884 0.25789077745688954
0.7448455231468359 12.98664581682092 13650.596113605021 15.607321588444877 0.2615410985204963
0.7677559262948515 12.986757576579423 11850.288557114418 16.339346518604483 0.26524448923793265
0.7909919899960155 12.988121748515098 10302.085676195713 17.10306490507461 0.26900617754644274
0.81455563091808 12.990632019784398 8968.410637948073 17.899929640679442 0.2728285917840383
0.8384295284154983 12.994085530531203 7817.306886114135 18.73137473561919 0.2767134379726079
0.8626000688134505 12.998357585359857 6823.625846451396 19.598605112437586 0.2806599599380673
0.8870651137114409 13.003298095520298 5963.702621676717 20.503770181375153 0.2846751161080178
0.9118162517765203 13.008792368158955 5218.355280826732 21.448661199000426 0.28876191412710245
0.9368261451387007 13.014672169116723 4571.882106028241 22.434849555135376 0.29292098835240576
0.9620925647869546 13.020875805252224 4010.2376776757324 23.464182646359323 0.2971547229305129
0.9876079509133799 13.027261273161187 3521.6860899526782 24.539163819784335 0.30146990174777527
1.013345611840484 13.033723689674762 3096.7452941176875 25.6618381856509 0.3058689327123783
1.039294458201475 13.040173117015826 2725.5678261700477 26.833956443811818 0.31035153032575935
1.0654392446079883 13.046506074351383 2401.816868639034 28.058710926948493 0.3149271750565633
1.0917579538915294 13.05263146255434 2118.9849429289775 29.33827653598438 0.3195971517994909
1.1182459788288857 13.05847085259354 1871.4942207668983 30.675162279792275 0.32436447062082174
1.144867981862261 13.063924222261173 1654.7090258514481 32.07298537774672 0.329238680213208
1.1716222442192912 13.068946106783905 1464.4470186527863 33.5335092239803 0.334216333923046
1.1984694449203352 13.073402113104171 1297.5794148946752 35.06130283564571 0.3393112218110062
1.2254053903505553 13.077282857658185 1150.9209877213038 36.65857754076868 0.34452128024695794
1.252392791792622 13.080457794377613 1021.9911981236365 38.33007179434893 0.34985906592988736
1.2794285832037653 13.08289741697276 908.2827879455022 40.07832268472 0.35532295747307585
1.3064618544285926 13.084509644014195 808.1675618586087 41.90866014313873 0.36092669325123183
1.333491011527478 13.08523346740876 719.85190402977 43.82434987513889 0.3666710377970148
1.3604919308522263 13.08504547869978 641.7979756186922 45.83046201971981 0.3725658923187534
1.387417312618326 13.083801000071064 572.8252336697129 47.93212776095238 0.37862012239654824
1.4142661435782649 13.081529423149133 511.7365634280697 50.13386269494417 0.38483818463218056
1.4409920671040033 13.078116297929364 457.69849914820736 52.44132568138966 0.39122936187778456
1.4675736108848791 13.073524231917478 409.76146438461745 54.860698346599506 0.39780416578438316
1.493978209140098 13.067680352874097 367.21107795349394 57.39815612795079 0.40457163317552297
1.5201864165096437 13.0605618748388 329.4463537456966 60.060311280196984 0.41154150897532005
1.5461662069414681 13.052100551549488 295.8467515308278 62.854252185833886 0.41872430447834824
1.5718802621664192 13.042249626218743 265.9852025364071 65.78758642717784 0.4261313603718335
1.59729536348999 13.03093952978426 239.35277669718783 68.86848800175066 0.43377491506640253
1.6223885325333152 13.018162803004955 215.6384102800852 72.10574910998317 0.44166817895971383
1.6471400749835845 13.003855542828086 194.4698872247193 75.50883699802523 0.4498254153327502
1.6714938004050275 12.987959853846444 175.56710111715918 79.0879563993815 0.45826202866242827
1.695429044230067 12.970447875659131 158.6788532531632 82.85274300121303 0.466989016308346
1.718892530459676 12.951237082742827 143.5667748271097 86.81609306443627 0.47602869873454445
1.741908443512795 12.930396804592231 130.04040916284956 90.98998087768919 0.4853970807808651
1.7643879671309206 12.907782884185814 117.91266677933872 95.38770261151835 0.49511300339817577
1.786316408984135 12.883380872914055 107.03475839101536 100.02367333328166 0.5051970202782061
1.807658966022932 12.857162878287783 97.27504548458842 104.91398810359108 0.515673234524365
1.8283880145710432 12.829108884563787 88.50541651965008 110.07480372411568 0.5265628601033717
1.848465484074525 12.799164669072862 80.62418228970141 115.52425800709635 0.5378912989827472
1.8678620629801546 12.767312739427846 73.52669340205752 121.28238387287004 0.5496873356640086
1.8865422225014974 12.733519404205397 67.13789356907145 127.3704383892319 0.5619802963731855
1.904476732936058 12.697754044806812 61.378066547390624 133.81129476055096 0.5748011513673272
1.9216326226888227 12.65999903983274 56.18580232758229 140.62956504717891 0.5881825584352611
1.9379660485424222 12.620197531732506 51.49255237838962 147.85333583284577 0.602164429395713
1.9534659836770956 12.578359885961007 47.25713991321043 155.5115839344875 0.6167843499939909
1.9681057545791167 12.534520312616985 43.42427669572354 163.63690376805752 0.6320865118462808
1.9818405824708138 12.488588018677792 39.95653482818687 172.2635984139976 0.6481145174568841
1.9946468552931143 12.440573596333481 36.81736138731898 181.43077040464885 0.6649211429388681
2.006502355075397 12.39046684078777 33.97181296534306 191.1801161607719 0.6825600576944888
2.0173800355794134 12.33829733926022 31.390419810412368 201.55751420809608 0.701090291587931
2.027233476650352 12.283964478736682 29.048246519178498 212.61340819890222 0.7205764819080669
2.0360680833375673 12.227569805610988 26.921030220806426 224.4017763100353 0.7410843910248296
2.0438384976241264 12.169051872107856 24.98862963062944 236.9849173545116 0.7626953003488373
2.050525342212737 12.108422264758202 23.23158276452074 250.4281571596474 0.7854872603186658
2.0561204479193185 12.045722183713258 21.633132976945813 264.8055116445924 0.809551957423713
2.060602199647844 11.980974305428102 20.179340327994748 280.19825497377064 0.8349881810385845
2.0639438248397135 11.914167610626405 18.85507478070817 296.6955384173498 0.861901713433113
2.0661311450707527 11.845329351083956 17.64963926589471 314.3967944777218 0.8904107376457192
2.0671561909261826 11.77451835475391 16.552146830224537 333.41223639430405 0.9206446777415096
