M[M_sun], R[km], Lambda[1], P_c[MeV/fm^3], rho_c[fm^-3]
0.24162668629717493 15.618656898711224 2160425.4255784233 3.5677272577965504 0.1711233750220791
0.2536436409057805 15.277301745842925 1723180.050200797 3.784813050040872 0.1738880913362197
0.26603876787370845 14.981303112484623 1383018.094612138 4.0113877043467765 0.17666649459731307
0.27881375146281834 14.723536495492013 1116487.4483446244 4.2477075166945 0.1794572741539466
0.291967853486205 14.498440497706643 905903.5805019392 4.494397539982835 0.18226699385750703
0.30550356202085693 14.301219019834368 738696.44412498 4.751612399820969 0.185091340795152
0.3194184936575778 14.128150774907704 605133.4649688703 5.020036003500734 0.1879369693985702
0.333716992934512 13.975954990012866 497680.07269990747 5.299890145230355 0.19080045849368335
0.34839638598046535 13.842065613212855 411029.141699361 5.591906068569837 0.1936881579441825
0.3634582245062439 13.724032634634353 340670.99300278065 5.896247734582241 0.1965950694938
0.37891155099513973 13.620025939190894 279411.7890040027 6.213780585165506 0.19952890257177675
0.3947421457822223 13.528506097488453 236413.9698051488 6.544764143343092 0.20248587308739044
0.41096622454969867 13.447912648786042 197881.27059234315 6.8898965966697405 0.20546962116800258
0.4275727418196859 13.37712210816481 166102.62900573443 7.249884875437818 0.20848325430452105
0.4445686046527473 13.314956358446878 139820.5353406982 7.624991045395243 0.2115223688017439
0.46194851928929503 13.260599537749874 117990.3727276088 8.016157911239583 0.21459303100538166
0.4797128015224739 13.213176422692943 99823.30202080251 8.424093245984201 0.2176969339822996
0.49786977931288173 13.17199896690088 84654.37499467292 8.849242193628655 0.22083160783389638
0.5164057549300346 13.136432845269903 71945.96317582692 9.292469475076865 0.2240003395345457
0.5353230581569286 13.105873341798404 61283.13672084806 9.754663808984782 0.22720610669330918
0.5546292663876492 13.079837636341596 52306.423331285456 10.236634653770716 0.23045026003829386
0.574310441086906 13.057856898383262 44736.07032575247 10.73885897661363 0.23372957058553845
0.5943666414880379 13.039536016331711 38330.819535408715 11.262569850130307 0.23705008101297828
0.6148021525838085 13.024516701111924 32906.5996084146 11.80871021123218 0.24041347684606504
0.6356028012920305 13.012438840747492 28297.654108548988 12.378258902344193 0.24382139074291564
0.6567744326861021 13.003024873867576 24374.073603500958 12.971912970071982 0.2472718647947522
0.6783048528998002 12.99598132405368 21031.03854961459 13.590983041649597 0.250769504531871
0.7001919196487648 12.991070283016795 18175.546257220776 14.236674264229059 0.2543170341728304
0.7224250912898074 12.988001827812676 15732.772452437517 14.910176113117567 0.25791643793205343
0.7450113447621637 12.986654076379882 13636.550805318304 15.612527812115076 0.2615677092824737
0.767930651382927 12.98675876968959 11837.38324345741 16.344976294563416 0.26527255225909135
0.7911733938858316 12.988134231337215 10290.827839262613 17.109146478860477 0.26903575018036974
0.8147475121638414 12.990663154220046 8957.88084416593 17.906493130094237 0.27285973507199945
0.8386270515291049 12.994126201698124 7809.016235167826 18.738391032601907 0.27674567422691393
0.8628077110696896 12.998396085310919 6815.968220850999 19.606165422579895 0.2806938782816378
0.8872796065725157 13.003350106815486 5956.4430297984645 20.511910880142988 0.2847107899122538
0.9120408324429973 13.008834368043857 5212.099253344023 21.457421152254337 0.2887994217101672
0.9370589294616586 13.014724711462344 4566.274889543236 22.444192278112986 0.29295979270471495
0.9623365322006378 13.020929643487785 4005.1565114036107 23.474225351134137 0.2971955093385818
0.9878592386084034 13.027322478682553 3517.267353188022 24.549953760099307 0.3015127650584215
1.013601056252241 13.033777696684544 3092.4563837947417 25.673333603132352 0.3059132957423316
1.039563551684537 13.040233883617544 2722.001412259321 26.846297830968915 0.3103981538641309
1.065713062028708 13.046557288171192 2398.7716371611054 28.071956032800994 0.3149761744625252
1.0920441082921635 13.052689764061604 2116.11851139827 29.35237842780302 0.3196479099514323
1.1185401055487125 13.05852812785802 1868.9474149420582 30.690289267342127 0.32441783204960817
1.1451703786657255 13.063983677030242 1652.4702621594251 32.0891204780747 0.32929421702582745
1.1719314251632396 13.069001084689718 1462.4817064053889 33.55077650532044 0.33427452644149347
1.1987870612920832 13.073460028917037 1295.7192497967887 35.07981614164618 0.33937244029498115
1.2257306680993831 13.077321975477137 1149.3335473725303 36.67828316129925 0.34458484752842505
1.2527254532324785 13.080493365873107 1020.392095099266 38.35119637495195 0.3499259839702692
1.2797656181376367 13.08293175311987 906.9262173637852 40.10081117310883 0.35539252934323234
1.3068091152151247 13.084516901000567 806.9279053600926 41.932605465266924 0.36099908358772576
1.3338438377902648 13.085235497321532 718.7427245742799 43.85002039996813 0.36674734387262514
1.3608520228400711 13.085037239393552 640.7776720679004 45.8578039753528 0.37264539901161026
1.3877821985361876 13.08377795043538 571.9523252421136 47.9612578904933 0.3787030361486321
1.4146376084526482 13.081493780183518 510.9338121596644 50.16510029666468 0.3849257158346563
1.4413597861843286 13.078042111730996 456.98683440056016 52.47462118285426 0.39132077885006
1.4679535644350468 13.073450457420154 409.1076876649931 54.89619912053941 0.39789972748315444
1.494362428283569 13.067585327812957 366.6356965955844 57.43602148172531 0.4046716185714633
1.5205734661334642 13.060444087545108 328.92513992609406 60.100713524058854 0.411646218696166
1.546556191849209 13.051960499629233 295.35906787287774 62.8973778077594 0.4188340626147876
1.572271642521219 13.04208558041463 265.53857007118063 65.8336373861276 0.4262465164636616
1.597696041472021 13.03076120018856 238.98489937225747 68.91768315266675 0.4338958462884572
1.6227833960757734 13.017946404931832 215.29401892079397 72.1583257754675 0.44179529252943667
1.6475347237852458 13.003611751558285 194.1485601051226 75.56505270349236 0.449959151163839
1.671883819612462 12.987683278302528 175.2785963515054 79.1478414249633 0.45840182092481696
1.6958215513070185 12.970141644626684 158.40413583929683 82.9167928673135 0.4671362027141014
1.7192868464729618 12.950902020598209 143.3237127095326 86.88468136485292 0.4761840174889023
1.7422884039401683 12.930003574606335 129.81113324642607 91.06313616738804 0.48555982437295087
1.764768562858933 12.907361862480984 117.7105528164116 95.46612928931177 0.4952850890410807
1.7866971348877358 12.882933005222094 106.85078933330753 100.10743967725644 0.5053777844144037
1.808034451699815 12.856684675770959 97.10909255970077 105.00352829398007 0.5158633733063396
1.8287473950731148 12.828557902111923 88.35203259280769 110.17092866386518 0.5267643821927818
1.8488278302374257 12.798599584407103 80.48634376529118 115.62720113459784 0.5381039439612231
1.8682165787541498 12.766698809924916 73.40219882967399 121.39266975075023 0.5499118372961073
1.8868863931380728 12.732859795376704 67.02580402345737 127.48868590990503 0.5622176182036629
1.9048130343192218 12.697052986567764 61.27434482504284 133.9377467221771 0.5750508068025628
1.9219562019893284 12.6592464367576 56.090822329302085 140.7653816079015 0.5884471807439765
1.9382716505937034 12.619368739295682 51.40552394729254 147.99932991350582 0.6024452562735211
1.9537717692851773 12.577535477444808 47.174063873270676 155.66816781673595 0.6170810921251193
1.9683902029359839 12.53361848590633 43.350539448334224 163.8054374540545 0.6324019586551802
1.9821094906509893 12.487629515367672 39.89002067540751 172.44480586163255 0.6484490971961295
1.9949024778379052 12.439563915336892 36.755992997907775 181.62571979926398 0.6652762459642859
2.0067416333296157 12.38941513223976 33.9124807832409 191.39007280518902 0.6829374992722087
2.017593139340239 12.337153617463608 31.33759526245623 201.78387383609513 0.7014920575990932
2.02743294697927 12.28278023331981 28.999225267852456 212.85714169391974 0.7210028790754882
2.0362465495684603 12.226327041257923 26.876725412263575 224.66513829532633 0.7415396184861648
2.043996876562373 12.167745344641524 24.949191141510887 237.26919024301105 0.7631800117374813
2.0506611121689367 12.107053128886028 23.193723431857478 250.73601032447738 0.7860062311677779
2.0562378241458106 12.044321240970952 21.59857262754601 265.13862071992475 0.8101062702782954
2.0606911676910156 11.979484147593082 20.147232619373714 280.55893736500917 0.8355804911645679
2.064001950300523 11.912601230318554 18.826238577440044 297.08637085429075 0.8625349320107492
2.066167842893289 11.8437149223507 17.62299697623542 314.8213484210983 0.8910903650057311
2.0671642943062474 11.772836997422097 16.526507774878873 333.87331041137924 0.9213729073211472
