M[M_sun], R[km], Lambda[1], P_c[MeV/fm^3], rho_c[fm^-3]
0.24162668629717493 15.618656898711224 2160425.4255784233 3.5677272577965504 0.1711233750220791
0.2536459127543892 15.277252616491168 1723082.8871909077 3.7848632877943116 0.17388871752558083
0.26604521108892815 14.981159807510744 1353223.9201063963 4.011493314982859 0.17666777083952298
0.27882192535380385 14.723434080963607 1116342.208792544 4.247872074062339 0.17945918277143086
0.2919797005260723 14.498251508767726 905708.2244048555 4.494625363099684 0.1822695307207881
0.3055180071188705 14.301036580708365 738531.1727127049 4.751911225383632 0.18509456868154592
0.3194380319566105 14.127951356418027 604948.4906874404 5.020408033680915 0.18794082935528
0.33373958616464455 13.975804763024732 497563.2542618157 5.300345175783547 0.19080503989632178
0.3484234095115607 13.841838467927595 410889.46647445817 5.592445236566622 0.19369337454287142
0.3634898086340433 13.723789619800941 340539.08972479915 5.896883154618026 0.1966010374932453
0.37894723390771307 13.619806035106054 283203.90181145276 6.214519948105676 0.19953564467154014
0.3947838411055733 13.528250606397263 236325.31376299978 6.545606682506885 0.20249326101764226
0.41101163082896497 13.447694210323991 197782.6416594294 6.890858579093247 0.20547781381400143
0.42762327460663235 13.37690430667083 166009.23271976932 7.250975329889367 0.2084922753547392
0.44462337445676575 13.314771532125388 139745.43549559134 7.626206958863439 0.21153204825478053
0.46200667758913694 13.260434505700053 117921.44597682953 8.017520494607036 0.21460357168933025
0.479778805744075 13.213019341241974 99764.19475692001 8.425613126431017 0.21770836135850577
0.4979389650662146 13.171867027246504 84596.25927763464 8.850913767853577 0.22084371074549353
0.5164830486022554 13.136289077630458 71900.20864783322 9.294319797570806 0.22401336592025722
0.5354057376062213 13.105744614474116 61243.88367270761 9.756705427762876 0.22722008469615582
0.5547181645985433 13.079711586671305 52271.751454248435 10.238869373627422 0.23046507108610678
0.5744052709426192 13.057761375668651 44703.97370312798 10.741300049661598 0.2337452430306562
0.5944666337474069 13.039451484668653 38302.236544796586 11.265242485383064 0.2370667796864023
0.6149097668144348 13.024445421259877 32879.3843800332 11.811630200355935 0.24043123525183177
0.6357197818909806 13.012386401340807 28272.750920640578 12.381443022335437 0.24384024415365496
0.6568947104503928 13.002980997373891 24353.361900341883 12.975346598749368 0.24729149000824643
0.6784323339156821 12.995955800137123 21012.724147879824 13.594714943827855 0.2507902827633631
0.7003276586779658 12.991043656443946 18159.04625518427 14.240724453662533 0.2543390066481766
0.7225667612748171 12.987994541913483 15717.94273589022 14.914565889644821 0.2579396483352918
0.7451609559422346 12.986643017886744 13623.563233083769 15.617237007985576 0.2615917795680306
0.7680875269369195 12.986757167591739 11827.09037313368 16.35006869123184 0.26529793657926626
0.7913395023666192 12.988145658191124 10281.476562705542 17.114647639112842 0.2690625004598278
0.8149182115924061 12.990692989596022 8948.80232412168 17.912430311710253 0.27288790657423867
0.8388091745898144 12.994150117323088 7801.231413125093 18.744737899872266 0.27677483479806386
0.862995077342716 12.998421425434087 6808.161173867897 19.613004512759787 0.28072456096608644
0.8874814287488825 13.003394205928581 5950.029997408189 20.51927511631577 0.28474306113700576
0.912244567483713 13.008879831719973 5206.428283365571 21.465345712280673 0.2888333523813505
0.9372721146902306 13.014781622002994 4561.411588007824 22.452644147990796 0.2929948969604224
0.9625607587875822 13.02098981233803 4000.9203865266254 23.48331061299814 0.2972324072865058
0.988086720742682 13.02737713694593 3513.1954492311584 24.55971518631542 0.3015515425708115
1.0138357772850193 13.033835922322341 3089.1162253971825 25.68373340432602 0.30595343057802665
1.039806406396112 13.040296265784045 2719.0042872465506 26.85746316838873 0.3104403344983657
1.0659639109384342 13.046619039648226 2396.063556887642 28.083939182016778 0.315020505342147
1.0923020740258749 13.052746874063548 2113.7102870961403 29.365136913086566 0.31969383266470314
1.118805404720248 13.058583015817621 1866.525092736878 30.703975439072323 0.32446611090722827
1.1454436309342155 13.064041101150147 1650.3235725647723 32.10368966143046 0.329344275304831
1.1722119809168812 13.069042893274958 1460.5169098656017 33.56639962625386 0.3343271779698503
1.1990729337357326 13.073500603890537 1294.1085453088333 35.09656695374501 0.3394278306894366
1.2260257754968162 13.077360618824942 1147.8089145032152 36.69611304786393 0.3446423639824756
1.253026482343221 13.080515334656885 1019.0945729630313 38.3701914708425 0.3499858351055341
1.2800733530339663 13.082957055081605 905.7209708984773 40.12115973668224 0.35545548100091257
1.3071298556158977 13.08455036910438 805.8824007240403 41.954272578802076 0.3610645865544958
1.3341642181940174 13.085241979101195 717.7438608260768 43.87324903625623 0.36681639139263944
1.3611523953900018 13.085010976476434 639.9663350301763 46.06056199392022 0.3730237346837738
1.3681819761313507 13.072534323314839 615.816093374894 49.02724895036194 1.7419180319555319
