M[M_sun], R[km], Lambda[1], P_c[MeV/fm^3], rho_c[fm^-3]
0.24162668629717493 15.618656898711224 2160425.4255784233 3.5677272577965504 0.1711233750220791
0.25363332574189085 15.277574396201246 1723498.3182466903 3.7846206839547283 0.1738856935857564
0.2660163078795697 14.981790755583626 1383544.5992097664 4.010983327568179 0.17666160794259056
0.2787803545747136 14.724175024969993 1094581.7669641208 4.24707746409716 0.17944996649328648
0.29192107429293657 14.499169381295891 906564.1953859235 4.493525294612172 0.1822572812028671
0.3054434763812467 14.302055035138041 739354.8731707943 4.7504683635875375 0.18507898302040496
0.3193443751376478 14.129017786599995 605678.1209434653 5.018611766111521 0.18792219238595195
0.3336273610195135 13.976886318700135 498299.1764486886 5.298148232502782 0.19078292032287258
0.34829301435703747 13.842938502514803 411577.3862031476 5.589842148822611 0.19366818895286336
0.3633390119268751 13.724887175431041 341174.8286734594 5.8938154653330495 0.19657222510628855
0.37877480073585823 13.620886059250656 283767.9833185814 6.2109505580277835 0.1995030961318552
0.39458953621617776 13.529306533419485 236832.48925983382 6.541539313962401 0.20245759569025287
0.4107954598223406 13.448691142743932 198244.4120294007 6.886214744818826 0.20543826497261103
0.42738403389135443 13.377832961487 166425.7535726286 7.245711481940971 0.20844872888967075
0.44435828760402485 13.31568236808793 140105.35007670644 7.620337661050047 0.21148532487023983
0.46171904538115405 13.26128165456132 118252.89471013176 8.010943416208644 0.21455269267057916
0.4794632549686804 13.213787823767403 100057.77175836333 8.418277015613075 0.21765320406084968
0.49759741321010587 13.1725760591754 84853.91059408699 8.842845686362162 0.2207852943882697
0.5161104621215343 13.136938160371745 72135.70567667502 9.285389236633451 0.22395049421450267
0.5350079754839056 13.106321232602898 61447.439995857916 9.746851878261218 0.2271526220804798
0.5542885716721531 13.080277402219313 52451.08662308376 10.22804015733426 0.23039302404475098
0.5739446832524927 13.058221123313777 44862.940944335816 10.729519264056206 0.23366960673783893
0.5939826561198609 13.039860757515518 38446.048711616895 11.252344553875025 0.23698619317693526
0.6143904057641948 13.024778466809899 33006.50015982722 11.797538982788364 0.24034553713834353
0.6351639677541215 13.012660005220669 28386.89283876895 12.36607763068621 0.2437492645295422
0.6563059171078829 13.00320108970342 24455.539187196602 12.958777589703768 0.2471967883469837
0.6778121284546725 12.996133410380342 21100.409130099008 13.57670715283894 0.25069002020771275
0.6996738852868881 12.99116319946177 18237.08624986001 14.221181396713597 0.2542329846104294
0.7218788008594965 12.988048013555353 15786.791449684268 14.893384886390441 0.2578276563868463
0.7444367475925976 12.986664419002146 13685.005738040094 15.594515347028157 0.26147564150908964
0.7673275222189515 12.986738636225391 11882.158258512585 16.325498841634563 0.2651754620413549
0.7905436016962174 12.988086882787522 10329.758670475449 17.088106382463742 0.2689334393163668
0.8140841491970003 12.990566716735827 8993.190564261577 17.88378626421815 0.27275199261703614
0.8379371846011482 12.994024828940912 7839.783800836612 18.714064422469452 0.27663367685313567
0.8620921940979371 12.998271700996355 6843.013810273987 19.58001100836863 0.2805765399197977
0.8865304139945978 13.003187333766057 5980.821313104386 20.483749260165517 0.2845873813269843
0.9112607470084843 13.00865291898169 5233.823655253612 21.427117969467425 0.2886696722568811
0.9362547626257278 13.014537689745648 4585.700049841938 22.411873701158925 0.2928255597354551
0.9614972269095177 13.020719500101173 4022.763003031142 23.439486146994025 0.2970544231085455
0.9869913597308417 13.027100542818442 3532.6613627230176 24.512630587895146 0.3013644978133961
1.0127034644410715 13.033555117706511 3106.5034878804545 25.633529026813427 0.30575953611511714
1.0386295531513143 13.039997495699856 2734.545936121157 26.803609825732135 0.31023688626715606
1.0647573447096146 13.046346237866638 2409.7391727335385 28.026143170573913 0.31480669276418793
1.0910553766173863 13.052467737349913 2126.0236678143883 29.303602969689496 0.3194723482505075
1.1175237424629758 13.058312149908124 1877.7017650865134 30.637969433444315 0.32423327044529293
1.1441269762443007 13.063789719628232 1660.361971341789 32.033099000061824 0.3291007376029908
1.1708589772092601 13.068807222919881 1469.5024773131297 33.49105655871139 0.3340732640640368
1.197686084650609 13.073280217902454 1302.121259328526 35.01578827706247 0.33916071750479615
1.2246055564787064 13.077172630612802 1154.9511965966017 36.610133035927305 0.34436500577338786
1.2515787087896744 13.080383383317056 1025.5547116441858 38.27814069665616 0.34969455959682516
1.278589796392277 13.082843338831752 911.5640776275408 40.023040223838954 0.35515193200778683
1.3056090361611317 13.084465551697509 811.1102766641114 41.849787420021535 0.3607486845312991
1.3326299086913047 13.085249535771236 722.5043976946366 43.7612492386315 0.3664834700720687
1.359608050944269 13.085071633277714 644.1993972979668 45.763254845913615 0.3723704629867295
1.3865197487374277 13.083862696104402 574.982003202328 47.86047784935831 0.3784160654914172
1.4133465648151884 13.081608756062142 513.6939818552402 50.057085145777734 0.3846230454783554
1.440068385080254 13.078256394664853 459.4591170923352 52.359492687369176 0.3910046791363776
1.4666345918070385 13.073693558266031 411.3671125980703 54.77344808415575 0.3975693037695021
1.4930339660739445 13.067912582289857 368.67467074127745 57.30509749107423 0.404325907103368
1.5192271538715687 13.060827765527316 330.7465423653861 59.96102126127068 0.4112841809368055
1.5452061269490074 13.05243685769794 297.02101791256683 62.74827299537695 0.4184545790129161
1.5709147527453478 13.042644684194109 267.0345803161235 65.6744223234581 0.42584837959973265
1.5963315217632954 13.031410371070379 240.31429572850197 68.74760179768172 0.4334777533316506
1.6214263230997588 13.018694510710915 216.51687568472806 71.97655832073153 0.441355836930302
1.646158468446871 13.004447643501146 195.26703004065547 75.37070958821315 0.44949681349819415
1.6705221556991665 12.98863037056745 176.2795079789858 78.94020608363616 0.45791600016150075
1.6944551578781988 12.971191356640883 159.33272516895315 82.69537755225767 0.46662739096496914
1.7179474886025103 12.952106335091404 144.1511409293574 86.64758385131012 0.47564710827492396
1.740951196165004 12.931309662431492 130.57588875448275 90.81025770727912 0.48499726288042366
1.7634299837413208 12.908757564955737 118.40155989136431 95.19503722539153 0.49469025252092325
1.7853779431078562 12.884472890624224 107.47552994288428 99.817898066552 0.5047529661799107
1.8067248999314025 12.8583309786031 97.67495890958024 104.69364956628914 0.5152047020883054
1.8274781242986249 12.830396181758946 88.87468508963792 109.83858755717387 0.5260674773772009
1.8475629462222307 12.800529839948142 80.9603660551616 115.2714060496584 0.537368994091183
1.8669895433534225 12.768809976823855 73.83712258978568 121.01150796452862 0.5491359315795717
1.8856762552475304 12.7350829153892 67.41976583652642 127.08002045718324 0.5613974299008492
1.9036392844195096 12.699450448711941 61.6371217489031 133.4999699596677 0.5741853019691624
1.9208220700163394 12.661810283925632 56.421648181776746 140.2960261804947 0.5875326978845397
1.9371968247895783 12.622163540319322 51.70985447510392 147.49482034424872 0.6014748070161388
1.952745142470362 12.580510584841548 47.454833722237964 155.1270782094575 0.6160556698005222
1.9674041617643834 12.536750227336242 43.60486818382172 163.22288085160648 0.6313112812484205
1.98118653931212 12.490979991082432 40.11910901759308 171.81867431581907 0.6472930137565919
1.994033337658333 12.443098805780576 36.96828708983336 180.95212926088678 0.6640492914587701
2.0059147947050593 12.393093137080772 34.11046675141346 190.66465591291347 0.6816334086248977
2.0168277178746687 12.34102752374671 31.51713088489569 201.00181331638072 0.7001039773205091
2.0267371239697693 12.286865906220832 29.166292246572162 212.01376928653823 0.7195254353966115
2.035617105406354 12.230605872619273 27.026374433126946 223.7553073467293 0.7399669540315118
2.0434480124129575 12.172256134721477 25.086720468124206 236.2859944284943 0.7615017624957652
2.050195481767518 12.111792794508535 23.322770670828064 249.67256603989134 0.7842135044837438
2.0558366613639576 12.049220324885807 21.717963772252315 263.9879821797449 0.808191540896746
2.0603763515437494 11.98461887280132 20.256861092799433 279.31258390653596 0.8335328850607018
2.0637863297965153 11.917980478829202 18.926833569575727 295.735544534579 0.860344831465479
2.066037504280262 11.84929977027261 17.715133460517766 313.3550382445158 0.8887430908140378
2.0671306385973804 11.778642243889841 16.6121303929774 332.28052192455544 0.918856490964765
