M[M_sun], R[km], Lambda[1], P_c[MeV/fm^3], rho_c[fm^-3]
0.24162668629717493 15.618656898711224 2160425.4255784233 3.5677272577965504 0.1711233750220791
0.25364385238728393 15.277297605902696 1723198.2573486848 3.7848173955349207 0.1738881455007067
0.2660397026076715 14.981263641925805 1383050.4172951982 4.011396839437661 0.17666660498949524
0.2788145988773364 14.723527411451304 1116412.9168508037 4.247721750431525 0.1794574392438463
0.2919682258687624 14.49844496966528 905948.1264538197 4.494417245864827 0.18226721328707648
0.3055054904917706 14.301174653480132 725434.9081650701 4.751638246947495 0.18509161999344845
0.3194203308911239 14.12815137655916 605114.9080399154 5.020068182262128 0.1879373032656395
0.333718609103243 13.975963184034027 497707.3913690174 5.2999295027963935 0.19080085475906736
0.3483987227674518 13.842045882685197 411017.07488757966 5.591952703200225 0.19368860914706026
0.36345991748053924 13.724028585851968 340660.678289598 5.896302693976878 0.19659558568406507
0.3789143125451103 13.620012877754403 283309.0403017831 6.213844534398807 0.19952948571178455
0.39474655599367847 13.528465801231667 236413.06313768253 6.544837016012991 0.2024865120822593
0.410970816974582 13.4479085901675 197874.46289416702 6.889979799560465 0.20547032975873472
0.42757768684373354 13.377101829567886 166088.49655524548 7.249979189298326 0.20848403453891845
0.44457297760104286 13.314960319506612 139808.45041583278 7.62509620954597 0.21152320597600402
0.4619537689468407 13.260587480505045 117987.76733662262 8.016275759968146 0.2145939426605737
0.4797190049344537 13.213157838444316 99816.43877497462 8.424224698235559 0.21769792231946294
0.4978755065544592 13.171991369265129 84649.67227684043 8.849386764713348 0.22083265459032003
0.5164133078323521 13.13640470570075 71943.50100032153 9.292629504569218 0.22400146615214855
0.5353303957130201 13.10586460094625 61280.12656816841 9.754840381899475 0.22720731560494867
0.5546369575051864 13.079816592040403 52302.281665250746 10.23682892105135 0.23045155378259896
0.5743190737607844 13.05784617298993 44732.9300036612 10.73907009416705 0.23373092602562745
0.594375399822334 13.039525550721716 38331.42916546329 11.262800992804458 0.2370515251965892
0.6148112823306712 13.024525514314751 32903.12350912336 11.80896274447211 0.24041501266950624
0.6356155541922649 13.012435335315704 28294.111800376846 12.378534276780032 0.24382302125538385
0.6567841097993712 13.003036894460084 24372.41539334613 12.972209921143083 0.2472735620453041
0.6783165868014805 12.995974995431375 21029.961009417457 13.591305786047204 0.25077130148620846
0.7002032127899859 12.991070378134467 18174.260807390972 14.237024532409896 0.2543189343948063
0.7224374946480259 12.987997209045616 15731.162175836367 14.910555746721403 0.2579184451980209
0.7450237736286387 12.986649706038783 13635.16378405773 15.612935067103896 0.2615697908998336
0.7679436599820729 12.986754677525502 11837.212052902096 16.34541668590176 0.265274747499459
0.7911876841268625 12.988130359090968 10289.552246829957 17.109622216720716 0.2690380635324857
0.8147619524959112 12.990660469451472 8957.290741151355 17.90700657117801 0.2728621713132292
0.8386434271701434 12.99413512449087 7808.381385920047 18.738939899621474 0.2767481959868774
0.8628236981884413 12.99840098854552 6815.2732788926 19.606756851963684 0.2806965316522878
0.887297326585587 13.00334117000177 5955.7661491377885 20.512547718343118 0.28471358063599006
0.9120583698547866 13.008839212687256 5211.655628240663 21.458106440637845 0.28880235591657477
0.937077778843753 13.014745784204173 4565.7507533519165 22.44492316206683 0.292962828380557
0.96235699357683 13.020928242098066 4004.97961550686 23.475011002471533 0.2971987001021027
0.9878804891851513 13.027331703850201 3516.847829257302 24.55079787668843 0.3015161183329091
1.013621555127275 13.033781142873114 3092.1642511328237 25.67423291757822 0.3059167663699764
1.0395853098052124 13.040240284514558 2721.719687060991 26.84726333722697 0.31040180137291556
1.0657350389458424 13.046565724366323 2398.598303749163 28.072992250212906 0.3149800078813137
1.0920671890570621 13.052700388372465 2115.9316283484677 29.353481683918652 0.31965188099604586
1.1185629923854572 13.058532825080714 1868.814507442311 30.691472733459737 0.32442200680302474
1.1451946997948437 13.06398643162264 1652.3203440268808 32.0903802917096 0.3292985456213903
1.1719559434913627 13.069004344514873 1462.2599853150891 33.552127443378474 0.3342790792420366
1.1988101116738874 13.073466892401667 1295.5027556210086 35.08126457998931 0.33937722988790936
1.2257567727687748 13.0773313817817 1149.1760824125947 36.67982489679875 0.34458982092849094
1.2527507973531713 13.080489892921682 1020.2784629924661 38.352849145351435 0.34993121958457146
1.2797920895038877 13.082931325196643 906.8164857714256 40.102570670103304 0.35539797263912326
1.3068352637220464 13.084522039581483 806.8457921855512 41.934478961589505 0.36100474745094235
1.3338735636225934 13.085237656573868 718.6924577098805 43.852028899673954 0.36675331417247037
1.3608815311859765 13.0850298397111 640.7101846604555 45.8599432701222 0.3726516197901984
1.3878101589649192 13.083776459514386 571.8636447821432 47.96353711746628 0.37870952356434767
1.4146666942441781 13.081490966817961 510.878384555832 50.16754444708637 0.3849325646134888
1.4413892443972358 13.078037415316874 456.92864999602443 52.47722637686228 0.3913279317367242
1.4679838448831828 13.073440167755582 409.0658453293901 54.89897689308916 0.39790720474728686
1.4943921672257987 13.067576850923516 366.5704921329026 57.43898430209185 0.40467944204960143
1.5206046917904756 13.060433113088205 328.88733140950563 60.1038748794858 0.4116544119204182
1.5465867355564589 13.051951856194384 295.32871209078627 62.900752295455185 0.4188426509542571
1.5723027063486141 13.042072586449851 265.50050972307895 65.83724081453707 0.4262555272799894
1.5977270212245551 13.030747436813215 238.94983953221117 68.92153265306112 0.4339053091070139
1.622814390554247 13.017929895964429 215.2669458691624 72.1624399250237 0.44180523922787496
1.647566115250685 13.003591891282403 194.12060276048743 75.5694516611765 0.4499696161799217
1.6719148682711005 12.987662213423452 175.2556398010771 79.15252411338741 0.458412745583337
1.6958521998592475 12.970119022596123 158.3835349319791 82.921804970698 0.4671477205130814
1.7193326128787023 12.950909907080879 143.2994514167907 86.89004868258772 0.47619617182280105
1.742318604124823 12.929972193032583 129.79330229784705 91.06886093363845 0.4855725598706473
1.764798477578205 12.907328420114448 117.69295889457865 95.47226664926602 0.4952985557792262
1.7867258115099107 12.882895676404704 106.83649091586632 100.11399497477882 0.5053919304620635
1.8080647043659441 12.856647054201417 97.09900510697648 105.01053551955998 0.5158782531645463
1.828779083109481 12.82851460516099 88.34468032634123 110.17842489278272 0.5267800548133933
1.848856654384253 12.798555595753744 80.47570069342842 115.63525746444093 0.5381205855586532
1.8682434573628122 12.76665300425388 73.38965202408312 121.40130083879487 0.5499294070284253
1.8869138641601069 12.732807675875492 67.01728650387054 127.49794021123238 0.5622361915125855
1.9048374864938733 12.696998616239549 61.26405212251759 133.9476432431421 0.5750703456077902
1.9219811887438916 12.659187112531677 56.08263618696001 140.77601118684473 0.5884678912059824
1.9382967180931094 12.619304222468338 51.399132411297394 148.01075620082602 0.6024672353056747
1.9537946771188466 12.577468309642292 47.16734381475905 155.68042308999404 0.6171043170947136
1.96841258732475 12.533546662941573 43.343438199010194 163.81859597448945 0.6324265388807077
1.9821296977031455 12.487553310511595 39.885159828221155 172.45898877689785 0.648475284398439
1.9949204451110008 12.439485209707335 36.748875094981564 181.640978520378 0.6653040399363692
2.006759495706279 12.389332163750865 33.906890063376515 191.40650641256747 0.6829670421652844
2.0176091522342645 12.337066431331543 31.330922954551923 201.8015916265024 0.7015235049293502
2.027448377608191 12.282687823639606 28.99465646373096 212.87621968990985 0.7210362548880727
2.036260580333059 12.226230446346447 26.87351545804524 224.6857530652593 0.741575251606762
2.0440091742501814 12.167643727780433 24.945788233189614 237.29144220988692 0.7632179533851051
2.050671923244578 12.106946503411383 23.190939120034997 250.76007697293747 0.7860467525051085
2.0562477351974016 12.04420838455412 21.596402092441252 265.16469642582524 0.8101496617678804
2.0606973310361254 11.979368188363011 20.144534065756854 280.58713797013195 0.8356267467206026
2.064006356811396 11.912480816021477 18.824481504666284 297.1169663206325 0.8625845021483526
2.066170173391556 11.843589077097851 17.6211023045664 314.8545844086938 0.8911435692848559
2.067168184552264 11.772706348987482 16.52568839395282 333.9094061103834 0.9214299175944202
