M[M_sun], R[km], Lambda[1], P_c[MeV/fm^3], rho_c[fm^-3]
0.24162668629717493 15.618656898711224 2160425.4255784233 3.5677272577965504 0.1711233750220791
0.25364410641004237 15.277257473996844 1723090.6190827128 3.7848226654004593 0.17388821118703837
0.26604062592005007 14.981254835337046 1383019.7618529247 4.011407917760799 0.17666673886449238
0.27881589244677457 14.723507739340377 1116415.9600498062 4.247739012023617 0.17945763945230192
0.2919702259726507 14.49840198990112 905898.0195350727 4.494441143698115 0.18226747939499655
0.3055052714024127 14.301217887532815 738620.2306619722 4.751669592480915 0.18509195858503324
0.31942174791932143 14.128143594660855 605146.884354669 5.020107206409775 0.18793770815623329
0.33372154262175585 13.97590421169508 497683.6496911275 5.299977232975492 0.1908013353227722
0.34840156068419226 13.842022924431364 411003.9946485314 5.5920092585963905 0.19368915633607603
0.36346238878963405 13.724060679497818 340643.4540192615 5.896369345205937 0.1965962116865133
0.37891776039627384 13.62001873040017 283301.79532819736 6.2139220880538 0.1995301929077374
0.3947513736205194 13.528414530171592 236397.10267027828 6.544925391588492 0.20248728701666688
0.4109755478762475 13.447863566911604 197870.72539031375 6.890080703165203 0.20547118909617523
0.42758322973390095 13.377054215436166 166084.2311012679 7.25009356781934 0.20848498076311012
0.4445786749025099 13.31492749198754 139805.63861079866 7.625223746866951 0.21152422125508524
0.46196031270238125 13.260592570562132 117980.2511906977 8.016418680673045 0.2145950482677725
0.47972735145690365 13.213120491889896 99808.32777425228 8.424384116820855 0.21769912092436128
0.4978821182093099 13.171980680419322 84639.55753998902 8.849562093389684 0.2208339240448489
0.5164200729003469 13.136410581924643 71938.79567300348 9.29282358073661 0.22400283246046623
0.5353384506447251 13.105850112723157 61273.78787546505 9.755054521470639 0.22720878171780354
0.5546444340028595 13.079814938089168 52296.733785065786 10.237064519900494 0.23045312277902685
0.5743282491688453 13.057841024890227 44327.13115638574 10.739326128623688 0.2337325698461486
0.594386165749567 13.039537338249314 38327.327792197735 11.263081313305152 0.2370532766441503
0.6148225526340579 13.0245018261225 32900.956912090944 11.809269007048645 0.2404168752569594
0.6356268790615851 13.012435445208794 28291.59885988579 12.378868240781214 0.24382499868101598
0.6567972989018345 13.003033074627385 24176.74135631979 12.972570052951262 0.24727562041104065
0.6783292795486363 12.995990335113397 21027.95325418737 13.591697199680794 0.2507734807724543
0.7002178147184799 12.991056590561824 18172.12839525515 14.237449326606484 0.2543212389240549
0.7224512677146241 12.988010056602723 15729.160287888792 14.911016155068149 0.25792087955050236
0.7450400578383481 12.986652406969709 13633.686335176026 15.613428974459067 0.2615723154266116
0.7679608709444244 12.986758726321646 11836.391026907337 16.34595078088887 0.2652774098290141
0.7912053917798587 12.988137126081215 10288.639142868076 17.110199179905972 0.2690408691090795
0.8147785964622911 12.990662869483636 8956.066799219872 17.90762926084823 0.27286512593118994
0.8386609543799269 12.994139356479538 7807.239610789883 18.73960555388385 0.27675125432379427
0.8628433970671788 12.998401288066633 6814.494863915641 19.60747412604786 0.28069974960874244
0.8873231552428286 13.003354844550588 5955.10919839533 20.513320064539588 0.28471696517677714
0.9120834928190185 13.008837271075604 5211.159276269975 21.458937547644634 0.2888059144761001
0.9370995099230375 13.01473765797957 4565.206171166434 22.445809567771825 0.2929665100052127
0.9623834485986722 13.020944697196422 4004.4774118635974 23.47596383076354 0.2972025698209094
0.9879041209419581 13.027329823639143 3516.471455480518 24.55182161252217 0.30152018514938633
1.0136459398421398 13.033791670756107 3091.8113238906017 25.675323598181333 0.30592097551647707
1.0396105504290163 13.040241108635174 2721.408026484014 26.848434296533465 0.31040622504632137
1.0657614157291393 13.046575431285573 2398.286168370437 28.07424896953144 0.31498465703253636
1.0920931408291374 13.052706620955755 2115.7624146520698 29.35481970918051 0.3196566970654368
1.1185910167555122 13.058536594324748 1868.5637771738202 30.692908039481058 0.32442706993802045
1.1452229514108605 13.063989574475357 1652.073658737212 32.09190819391639 0.3293037953428805
1.1719858951258488 13.06900736605079 1462.0115149336953 33.55376586403131 0.33428460088856493
1.1988420669548758 13.073463373674059 1295.415681650901 35.08302125216501 0.3393830387265595
1.2257867872377932 13.077336235542592 1149.0369254444274 36.68169472273566 0.3445958526975206
1.2527822737179324 13.080495176913326 1020.145868339265 38.354841995209334 0.3499375010782665
1.2798246539190303 13.082933396229752 906.7182472225394 40.1047046051811 0.3554045743213523
1.3068690098678877 13.084523171917233 806.7334090154401 41.93675115943431 0.3610116166492637
1.3339061934370098 13.085237915131902 718.5693348930487 43.85446483555096 0.3667605550336701
1.3609144126098218 13.085030539328683 640.6208419368733 45.8625378399041 0.3726591644466785
1.3878451878553026 13.083777285283567 571.7870628401324 47.966301403383476 0.3787173916143989
1.414702394307972 13.081483226158623 510.8120556601664 50.17050876059107 0.38494087094660306
1.441424458358821 13.07803094322707 456.86747975025384 52.48038601216206 0.3913366069114443
1.468019848683015 13.073434458130428 408.9990046350137 54.902345840772504 0.3979162733485584
1.494428582871882 13.067568711128827 366.5186439296228 57.44257768600678 0.40468893056291727
1.5206405618074705 13.060424510744879 328.82864501316055 60.107709058204215 0.41166434888789577
1.5466241030266714 13.051936274384898 295.28795528603075 62.90484497386149 0.4188530671461835
1.5723400395023222 13.042056309158003 265.4571264161484 65.84161116666826 0.4262664558834934
1.5977643608898642 13.030728692600956 238.91736808047614 68.92620145746443 0.43391678593372374
1.6228510277475752 13.017907331449418 215.23487010049152 72.16742971404821 0.44181730294262794
1.6476031547364804 13.00356870912928 194.0912461947878 75.57478688580032 0.4499823085528659
1.6719526735603347 12.987634829723799 175.23360783606952 79.15820346664431 0.4584259954495093
1.6958877826391574 12.970088816800375 158.3513969755586 82.92788386369008 0.46716168979147255
1.7193696890799497 12.950877635065114 143.27731020015835 86.89655840787412 0.47621091314772895
1.7423520600564533 12.929936722010932 129.7880965613717 91.07580420084221 0.4855880060844509
1.7648349591699577 12.90729163855279 117.67533834880871 95.479710345454 0.4953148889107592
1.7867614505471474 12.882855076013637 106.81929873746837 100.12194558139191 0.5054090875262073
1.808100604076892 12.856599794702952 97.08319561710098 105.01903426454236 0.5158963002673304
1.8288106480571036 12.828466666658764 88.32999310635424 110.18751674584793 0.5267990634596492
1.848891110580448 12.79850207814677 80.4619273358355 115.6450286628452 0.538140769482775
1.8682676982460318 12.76656389168524 73.38724652900727 121.41176916060118 0.549950716695411
1.8869463805661018 12.732745615128131 67.00743359711281 127.50916442966364 0.5622587184294175
1.9048709132946604 12.696931449812933 61.25612047236649 133.95964641121049 0.5750940435885078
1.9220121027464405 12.659115522147793 56.07303474487286 140.78890348735817 0.5884930103100767
1.9383256830873328 12.619228551867806 51.39120062983497 148.0246148388714 0.6024938930854652
1.9538223740094964 12.577387786021909 47.16129455434524 155.6952872161421 0.6171324861016841
1.9684401440535428 12.533460430555005 43.3375930706457 163.83455566454631 0.6324563517143681
1.9821559737719643 12.48746244060904 39.87908347334034 172.4761909796707 0.6485070463850092
1.9949459286693667 12.439389201935253 36.745011967730086 181.65948559510016 0.6653377508295908
2.006782891747663 12.389230053361786 33.90161575302317 191.42643854114985 0.6830028743918869
2.0176308018299225 12.336958654420298 31.326840977238973 201.823081383574 0.7015616471283626
2.0274677484559884 12.282575171022593 28.990780924607602 212.8993592881968 0.7210767362308775
2.036278125782517 12.22611321598165 26.86934661941088 224.7107566810971 0.7416184709519893
2.0440242642018416 12.167520368192514 24.942363175078988 237.31843165424633 0.7632639728670305
2.0506845289687092 12.10681657773295 23.187122123584523 250.7892472365938 0.7860958349481663
2.056257711871519 12.044073634412106 21.593096045669892 265.1963238837128 0.8102022916953219
2.0607056668205903 11.979226453359049 20.14043648341224 280.62134283834064 0.8356828506655782
2.064012727496364 11.912332912508747 18.82082886334356 297.1540760679975 0.8626446265884498
2.0661742129276077 11.843435254432794 17.618477033697378 314.8948970255951 0.8912081018556334
2.067168395107422 11.772547800059 16.523494284158545 333.95318747769784 0.9214990667668624
