M[M_sun], R[km], Lambda[1], P_c[MeV/fm^3], rho_c[fm^-3]
0.24162668629717493 15.618656898711224 2160425.4255784233 3.5677272577965504 0.1711233750220791
0.2536439011802721 15.277283563353516 1723173.53547792 3.784817370033949 0.1738881451828494
0.26603959128063726 14.981260205244618 1383068.2035772807 4.011396785829512 0.1766666043416724
0.27881456635781776 14.723524260568997 1116413.0963090595 4.247721666902529 0.17945743827503582
0.29196829694745347 14.49846986092461 905947.612219454 4.494417130223123 0.18226721199937929
0.3055051951781581 14.301201974533706 738720.7829254766 4.751638095266473 0.18509161835500393
0.31942031958346845 14.128151533056831 605114.943737059 5.020067993424469 0.1879373013063759
0.33371784311472646 13.975987441045566 497694.9370123119 5.299929271830498 0.19080085243362402
0.3483987090500118 13.842045999020232 411017.14483362914 5.591952429529427 0.19368860649922
0.3634598848934698 13.724033933850976 340649.776279082 5.8963023714527685 0.1965955826548504
0.37891430662680536 13.620046719817333 283308.7924400859 6.213844159118385 0.19952948228967896
0.39474624664327734 13.528469714667866 236405.7683887497 6.544836588365901 0.20248650833237203
0.41097033967001595 13.447894535279634 197878.4318535035 6.88997931129098 0.2054703256004269
0.42757849021610833 13.377078506798604 166093.71870637735 7.249978635824612 0.20848402996017226
0.444572914938725 13.31493711198488 139807.17798064827 7.625095592397773 0.21152320106310754
0.46195314158413064 13.2605935723033 117980.93185835614 8.016275068380933 0.21459393731058748
0.4797185818646281 13.213176401065818 99817.3183716386 8.424223926816472 0.21769791651946982
0.497875311160877 13.171991972235265 84647.81264171269 8.849385916306707 0.22083264844749345
0.5164132752818159 13.136404647213427 71942.75558842425 9.292628565445206 0.22400145954065695
0.5353308950461639 13.105851876002006 61279.5204607196 9.75483934569062 0.22720730851051435
0.5546367967084327 13.07981488954097 52301.74280157082 10.23682778100324 0.2304515461903233
0.5743189504239989 13.057846846286324 44731.29509715781 10.739068855233208 0.2337309180712884
0.5943757189665662 13.039523223542652 38331.23383638466 11.262799636353208 0.23705151672145724
0.6148110696220561 13.024510378235295 32904.41519646372 11.808961262490175 0.24041500365658344
0.6356161825020105 13.012432310579578 28294.100692092918 12.378532660754294 0.24382301168677553
0.6567840640802878 13.00302383436533 24372.257210584514 12.97220817849458 0.24727355208503984
0.6783165485520442 12.995975084888782 21029.64997115044 13.59130389203007 0.2507712909408285
0.7002035178215187 12.991055077485363 18173.579228856812 14.237022476868777 0.25431892324339544
0.7224374181626798 12.9879966150304 15731.124691955247 14.910553518848443 0.25791843341841675
0.7450236686840082 12.986657563122721 13635.06655926752 15.612932677134022 0.261569778683893
0.7679432962714503 12.986750077560787 11837.128523045221 16.34541410146992 0.26527473461671447
0.7911876008030417 12.988130342286937 10289.557987342438 17.10961942485629 0.2690380499565944
0.8147618869216601 12.990656634759118 8957.02720134947 17.90700355805045 0.27286215701615435
0.8386432348310906 12.994120439201371 7808.214568966612 18.738936678595106 0.2767481811879278
0.8628239197524061 12.998404679880274 6815.398357711859 19.606753381157706 0.2806965160809703
0.8872946387050583 13.003364834769204 5955.771608817654 20.512543981052712 0.284713564258604
0.9120583654908383 13.008849171144002 5211.631979013238 21.458102419014352 0.2888023386971476
0.9370774707084608 13.014733381346346 4565.723566563699 22.444918872862758 0.2929628105656452
0.9623554483473264 13.020925331751592 4004.8685893378833 23.475006391861015 0.2971986813770434
0.9878804311659948 13.027324286189712 3517.007288362482 24.550792922969915 0.3015160986541371
1.0136219365749621 13.033784539891874 3092.2234651145723 25.67422763992668 0.3059167460025027
1.039585177087516 13.040240410804985 2721.7239511953426 26.847257671123025 0.31040177996739515
1.0657349536187728 13.046569471690404 2398.6031509980135 28.072986169133937 0.31497998538475835
1.0920664958463606 13.052698422085719 2115.909738804975 29.353475209416864 0.31965185769181476
1.1185637947486469 13.058534181576727 1868.8336836582132 30.691465788237323 0.32442198230330266
1.1451939284723227 13.063985025923614 1652.2910374047128 32.090372898434005 0.32929852021882355
1.1719562267837407 13.068999433192436 1462.2542366947323 33.55211951532895 0.3342790525236923
1.1988098049882618 13.073459089590894 1295.5563422382663 35.081256079748 0.3393772017799158
1.2257564158646375 13.077324339971964 1149.2030241168595 36.679815849032224 0.34458979174179666
1.2527510183684147 13.080494224413407 1020.2993171583835 38.35283944596243 0.3499311888590334
1.2797921464806576 13.082937639642378 906.7948160377669 40.10256034437591 0.3553979406947723
1.3068357899060894 13.084518686755779 806.8398958180162 41.93446796684223 0.36100471421215563
1.3338721364329815 13.085239491947343 718.6860744026593 43.85201711264017 0.3667532791353102
1.3608801812525884 13.085033017081152 640.705496403528 45.85993071549911 0.37265158328305986
1.3878099844066865 13.083776141758374 571.8783173450265 47.96352374163071 0.3787094854924018
1.4146665205497475 13.081490989743411 510.87875225362575 50.167530103371675 0.38493252442081954
1.441389048534282 13.078037051922415 456.93353030858424 52.477211088037926 0.39132788975934074
1.467983526168296 13.073439606441857 409.0695248241463 54.89896059145982 0.39790716086623246
1.494392524293969 13.067576383239391 366.5829847298359 57.438966914478485 0.4046793961367224
1.5206037858630417 13.060435633184456 328.87867123179115 60.10385632673535 0.4116543638376105
1.5465865329682196 13.051950493884851 295.3293651305912 62.90073249189991 0.41884260055263445
1.5723025257970236 13.04207408299128 265.4985476301066 65.83721966740107 0.4262554743989726
1.5977267814114087 13.0307465747886 238.94908765150453 68.9215100618053 0.43390525357332566
1.6228138912130239 13.017929865303016 215.2627791071343 72.16241578062242 0.441805180854431
1.6475659269812126 13.003591915467053 194.1250229144014 75.56942584532136 0.4499695547646141
1.6719147218283983 12.987662589068592 175.25635703695409 79.15249663240166 0.4584126814705116
1.695852828580605 12.970116388952814 158.38308357934082 82.92177555647014 0.4671476529192714
1.7193324305066309 12.950910051461518 143.29985779113676 86.89001718370645 0.4761961004933327
1.7423184998375736 12.929973208756405 129.7944428723573 91.06882733699233 0.4855724851304762
1.7647983228459907 12.907329875667603 117.6955310155594 95.47223063121764 0.49529847674758565
1.7867253780972758 12.882895459390312 106.83411147393313 100.1139565039667 0.50539184744372
1.808065542572426 12.856646547474291 97.09782501149608 105.01049439649991 0.515878165839642
1.8287760033853837 12.828516747524311 88.3419950742933 110.1783808998862 0.5267799628359492
1.8488564973048558 12.798556022957037 80.47676268221733 115.63521018444666 0.5381204878945001
1.8682434848143583 12.766652599998924 73.38960655732531 121.40125018568209 0.5499293039172499
1.886913638400079 12.732807888265398 67.01614962401025 127.49788590062512 0.5622360825116302
1.9048374794077854 12.69699883029176 61.26470334443909 133.94758516349626 0.5750702309405358
1.9219810366952659 12.65918734228145 56.08275524292122 140.77594880504077 0.5884677696625058
1.938296629310018 12.619305052560893 51.39956374174565 148.01068914330685 0.6024671063172002
1.9537945307719649 12.577467767623407 47.1683903966115 155.68035116732798 0.6171041807940618
1.9684129250071387 12.533547108894892 43.34491908763522 163.81851875084553 0.632426394626299
1.9821295996090595 12.487554257909876 39.88518748671939 172.4589055412695 0.6484751307129522
1.9949202455197157 12.439485654549435 36.74929337311445 181.64088897104034 0.665303876821009
2.006760047774146 12.389332146702877 33.90849290143251 191.40640996802486 0.6829668687857735
2.017609049262984 12.337066949542415 31.33092425436084 201.8014876452992 0.7015233203729714
2.027448142693529 12.282687846451962 28.99513324499623 212.87610772587738 0.7210360590136965
2.0362608087750855 12.226230626475644 26.87248386377547 224.68563208212296 0.7415750424845305
2.0440091028750103 12.167644077823812 24.945872379774286 237.291311618271 0.7632177307144036
2.0506718645375157 12.106946970838267 23.190818791652617 250.75993582939603 0.7860465150142885
2.056247402539196 12.044209175060464 21.596449585191838 265.1645433931513 0.81014940711262
2.0606976434613995 11.979368290785144 20.144306988359833 280.58697246666486 0.835626475256396
2.0640064007736316 11.91247890540243 18.82378030144473 297.11678676196004 0.8625842112311296
2.066170126461391 11.843589597252352 17.621042296488564 314.85438935303074 0.8911432570391038
2.0671689387987393 11.772706787155961 16.525780685507872 333.9091942713005 0.9214295830115103
