M[M_sun], R[km], Lambda[1], P_c[MeV/fm^3], rho_c[fm^-3]
0.24162668629717493 15.618656898711224 2160425.4255784233 3.5677272577965504 0.1711233750220791
0.25364499563576665 15.277269475270039 1723281.2611579245 3.7848385297710463 0.1738884089287645
0.2660418073090494 14.981227093532706 1382970.559174585 4.011441268008344 0.176667141882552
0.2788172803547272 14.723488108794932 1116348.5083901652 4.247790976618389 0.1794582421632923
0.29197366140895786 14.498338709911614 905822.9818200069 4.494513086416136 0.18226828049385876
0.30551028937347025 14.301144484576024 738617.1629434399 4.751763956324415 0.18509297789463913
0.3194296340953958 14.128019964150981 605055.318000021 5.020224686679694 0.1879389270593769
0.3337261371721735 13.97593207471473 497647.43539319903 5.300120922852954 0.1908027820414136
0.3484099519303131 13.84190887701378 410945.53985937574 5.592179517037381 0.1936908036333291
0.3634738469950281 13.723916638260235 340629.58803771116 5.896569997592702 0.19659809625619237
0.37892775379549043 13.619955079299626 283259.20399537805 6.214155562842402 0.19953232191668752
0.3947629774948199 13.528376218077753 236369.00700891548 6.5451914465693 0.2024896199594259
0.4109895323409681 13.447824511490326 197836.4474843189 6.89038447488686 0.20547377614362972
0.42759935828073165 13.376989071356634 166055.0395189918 7.2504379071658445 0.20848782939427712
0.4445956299966929 13.31487055292107 139779.29205004932 7.625607702301691 0.21152727778722832
0.46197928484827777 13.260510309335613 117959.71033541903 8.016848949781908 0.2145983767471872
0.47974558413890167 13.213112678074756 99786.84731164851 8.424864055166205 0.2177027293897768
0.49790546427250754 13.171925282281157 84620.96170345807 8.850089931514013 0.2208377458183969
0.5164450516042778 13.136359022850987 71924.58253056605 9.293407861341153 0.22400694583234787
0.5353662044591464 13.105795078074973 61261.863433064944 9.755699206594091 0.2272131955734104
0.5546735849528802 13.07979281160046 52292.147989772275 10.237773073586538 0.23045783689093827
0.5743587820409515 13.057807402912912 44717.94815869545 10.74009694660483 0.23373751873635706
0.5944178767062888 13.039493535082372 38319.474325553056 11.263925249710608 0.2370585495740837
0.6148570282616895 13.024478550313857 32616.9044944182 11.810191048046372 0.240422482804617
0.63566330232789 13.012423336247528 28284.52772843319 12.37987368363888 0.24383095198278307
0.6568359245256621 13.00299896696723 24364.501357420828 12.97365428047692 0.24728181741096888
0.6783692643206893 12.99596775129464 21021.653714997512 13.592875609430246 0.2507800418422244
0.700260171893036 12.991058068147304 18166.66876843668 14.238728237790736 0.2543281770796467
0.7224977260136123 12.98799525838615 15724.68648381105 14.91240229295165 0.25792820858400106
0.7450870096982403 12.986652815904344 13630.164611612234 15.614915970886464 0.2615799159659847
0.7680097901459103 12.98676343847435 11832.508826446578 16.34755877468105 0.2652854252747694
0.7912570238510661 12.98814913683042 10286.617850118626 17.111936242257222 0.26904931585507497
0.8148348178646002 12.99067583253262 8953.455467855334 17.90950399810478 0.2728740214254221
0.8387192631431823 12.99414261071434 7805.162707318545 18.741609650461655 0.27676046211062183
0.8629027179251758 12.998406421023171 6811.679120492965 19.60963364251611 0.28070943799719966
0.8873862812372447 13.003370865745715 5953.368292066989 20.515645395917552 0.2847271551394237
0.9121443106693848 13.0088652837507 5209.3353409679285 21.46143980083352 0.2888166283996349
0.937165580845092 13.014759837831464 4563.523110464266 22.448478318683886 0.29297759447714505
0.9624525881137778 13.020961850447438 4003.0470207296166 23.478832573644866 0.297214220638137
0.9879755474234057 13.027351779538066 3515.2215192146973 24.554903852013616 0.3015324294236781
1.0137205109227636 13.033810962970856 3090.6437119726756 25.678607402538685 0.3059336483499171
1.0396865291783284 13.040265670106843 2720.3774624960643 26.851959815076984 0.31041954382054027
1.0658388751357468 13.046599894188335 2397.080725438444 28.078032707228243 0.31499865472357214
1.0921752279235852 13.052725938838272 2114.858688451767 29.358848254773303 0.3196711973560313
1.1186753861005316 13.058557866839802 1867.620887544444 30.69722949487544 0.32444231415194746
1.1453086030204909 13.06402041541279 1651.3724232992217 32.09650845363423 0.32931960138216365
1.1720739331595316 13.069017388217837 1461.41686771658 33.55869889449147 0.33430122570983234
1.198931538889434 13.073476110117108 1294.8759645186587 35.08831033922425 0.3394005283035897
1.2258804017414646 13.077345065385165 1148.607634230677 36.68732451651572 0.3446140135407817
1.2528780962447306 13.080505504453544 1019.7305832557122 38.36083534539968 0.3499563735634541
1.279922344728957 13.082945973749087 906.2907370257589 40.11112964038932 0.355424451233821
1.3069678568587686 13.08452287937838 806.4389487235496 41.94359250972808 0.36103229908766177
1.3340061163112578 13.085244126640788 718.2657085887741 43.86179921293521 0.36678235659631675
1.3610162630999407 13.08503023984416 640.3496269421084 45.87034987487311 0.37268188078318365
1.3879497452253267 13.083769800540308 571.5425220428771 47.974624467356385 0.3787410817412093
1.414800460812415 13.08145694240743 510.6009208389822 50.179434129985026 0.38496588081524097
1.4415319128386486 13.07801572410718 456.672018547435 52.48989951667334 0.39136272743043016
1.4681280014891305 13.073411640166748 408.82528794590473 54.91248961030405 0.39794357855182017
1.4945381709096541 13.067541055821764 366.3537782579389 57.45339726329318 0.40471750020801633
1.5207507994021827 13.060391757839735 328.6971422737971 60.119253704397316 0.4116942689261065
1.5467350495686674 13.051896444281832 295.1495785282065 62.917168004610346 0.4188844302391637
1.572452012646302 13.042010911312481 265.3385608025374 65.85477032208986 0.42629936197154605
1.59786578760672 13.03067053892231 238.79834242989222 68.94025930981394 0.4339513428612345
1.6229648262385523 13.017847497444862 215.13415376747977 72.18245411736714 0.4418536271469348
1.6477165143335986 13.003499173401398 193.99011415808005 75.59085147235065 0.4500205258235655
1.6720645445071174 12.987560250322936 175.14758428582962 79.17530429931904 0.4584658914964932
1.6960015662593295 12.969997297004765 158.28647608845174 82.9461878110037 0.4672037522090895
1.7194816637278254 12.950780243483711 143.20913813956375 86.91615970673682 0.47625530044563047
1.7424620679727743 12.929824837271113 129.71546141759637 91.09671100965843 0.4856345160385473
1.7649449458501805 12.907171509939438 117.6146009245295 95.50212409622559 0.4953640696846994
1.7868708092374765 12.882732267467876 106.76700372646958 100.14588579131308 0.5054607494606005
1.8082081237085363 12.85646202830794 97.03439450146155 105.04462509239174 0.515950642443909
1.8289213124681623 12.828327183961427 88.28933088523485 110.21489361977592 0.5268563012205716
1.8489936990029667 12.798336200017998 80.4207202528886 115.67445129568618 0.5382015464892544
1.8683671144902738 12.766390363674972 73.34870242657767 121.44329109051176 0.5500148837932103
1.887043303793194 12.732560593740795 66.97318229460392 127.54285403661417 0.5623261631700157
1.9049643877016222 12.696732164406333 61.22417297954999 133.99579036201334 0.5751654029699897
1.9221041716827916 12.65890250527666 56.04648557456938 140.827724995105 0.5885686493702409
1.9384155488602564 12.619001223410484 51.36639993737058 148.06634642059998 0.6025741658591958
1.953908637866025 12.577143956844523 47.1409975810726 155.7400467764392 0.6172173099489423
1.9685207583921305 12.533204301886903 43.31923766761871 163.8826144845629 0.6325461259895557
1.9822330788002092 12.487189919623361 39.86007330798755 172.52799163627566 0.6486026906336636
1.9943534453032394 12.440410681973834 36.84759433310297 181.90022553800853 0.999757361459841
1.994822129434203 12.400487594210555 35.620790388325766 194.76743841874116 2.0487803614939866
