M[M_sun], R[km], Lambda[1], P_c[MeV/fm^3], rho_c[fm^-3]
0.24162668629717493 15.618656898711224 2160425.4255784233 3.5677272577965504 0.1711233750220791
0.25364138130820574 15.27737873609265 1723217.2166267629 3.78478892397688 0.17388779061647086
0.2660364073738404 14.981331352311106 1383064.1895605517 4.0113369868430055 0.17666588170621142
0.2788091120793097 14.723636325215814 1116516.091769387 4.247628492205446 0.17945635758896095
0.29196192537788596 14.498557423789503 906062.441928207 4.494288135163025 0.1822657756094469
0.3054950399436885 14.301351268333047 738789.3592427939 4.751468900239797 0.18508979072580228
0.3194094880549223 14.128275308730021 605220.1026372821 5.01985735244111 0.1879351158248736
0.3337054683930289 13.97613262796617 497802.2954768921 5.2996716397423995 0.1907982585059858
0.34838387178701924 13.842165661300925 411090.86809809814 5.591647163446709 0.1936856529658939
0.3634425206010595 13.724154016420496 340737.0223355545 5.8959426136951985 0.19659220373385844
0.3788948274429256 13.620130358141916 283361.023706557 6.213425556640648 0.1995256651391122
0.394723798463267 13.528610954384332 236469.6810917286 6.5443595761364355 0.20248232557953158
0.4109453582034832 13.448025703141106 197930.0329294619 6.889434681356504 0.20546568730335982
0.42755024027665817 13.377203997982344 166136.8869761401 7.249361278101892 0.20847892271794743
0.4445428592174874 13.315034502603913 139859.58700303885 7.624407213523066 0.2115177211246387
0.4619201079492794 13.26067772645495 118022.98772283099 8.015503662375226 0.21458796986147835
0.4796806597190081 13.213273480831658 99850.88485860778 8.423363479171948 0.21769144715606675
0.4978344183453819 13.172087004268807 84678.8149566356 8.848439599892053 0.22082579671232147
0.5163695764033431 13.13648142812652 71967.40203990843 9.291581067231649 0.22399408508792962
0.5352834218887833 13.105925923386197 61301.32760149013 9.753683564335503 0.2271993954195665
0.5545861658036776 13.079903139945484 52323.97526552086 10.23555618369955 0.23044307784833243
0.5742641650581062 13.057907020853008 44751.06976006039 10.737686967199817 0.2337220459220587
0.5943175962933226 13.039581672640542 38347.778333420116 11.261286677909638 0.23704206372972286
0.6147489881780468 13.02455514966148 32918.630477820065 11.807308297052803 0.24040495086881228
0.6355483104559141 13.012462338955723 28309.759777467556 12.37673019426209 0.24381233914892683
0.6567158173847035 13.003052113505397 24384.821145172857 12.970264488076317 0.24726244274765682
0.678242593190497 12.996003774171845 21040.329654928868 13.589191379591558 0.25075952903754684
0.7001269784436551 12.991079019382283 18183.417541814804 14.234729817086384 0.25430648545218265
0.7223565464518616 12.988011815520458 15739.154502307903 14.908068658792853 0.25790529502662773
0.744937471969616 12.986664522574625 13642.516983093989 15.61026703193199 0.2615561536738125
0.7678533175574056 12.986763761128367 11843.115443855797 16.342531576615567 0.26526036595327773
0.7910948968274066 12.988114843801263 10226.728151473399 17.10650555567761 0.26902290826522307
0.814664461363345 12.990651504205292 8962.233283468178 17.90364292097387 0.2728462110335231
0.8385411639773506 12.994115752376652 7812.23243950103 18.735344178526706 0.276731675508923
0.8627165528011105 12.998385519388007 6819.067839297316 19.602882312370127 0.2806791490366758
0.887188623407099 13.00332488338372 5959.83695489561 20.508375715013027 0.28469529827051826
0.9119437871542639 13.008814106444085 5214.846684504085 21.45361705167103 0.2887831336530875
0.9369574106400508 13.014702180808504 4568.453646224783 22.440135087191223 0.2929429414434402
0.9622303124943995 13.020908441645583 4007.4754122699155 23.469864162470824 0.29717779725558463
0.987751925076322 13.027296742909465 3519.3672368896077 24.545268049704813 0.3014941509554353
1.0134882054852536 13.033757975639933 3094.2400183040018 25.668341506909428 0.3058940302815839
1.0394458190619018 13.040211087208421 2723.537824558131 26.840938329060577 0.3103779066310043
1.0655957557184486 13.046545046815575 2400.0462983095535 28.066204042279015 0.3149548953484272
1.0919195292080046 13.052667728791562 2117.3866650349937 29.34625433236492 0.3196258669680689
1.1184132272734604 13.058500576120451 1870.088375859099 30.683719963682186 0.3243946584052675
1.1450390596026512 13.0639576096479 1653.3026406560762 32.082127404324105 0.32927018951321047
1.1717968948689004 13.068977161484082 1463.348849340634 33.54327764785286 0.33424925451866316
1.1986483727597588 13.073439550325288 1296.4799051954217 35.071776114649175 0.33934585410535834
1.22559032501246 13.07730475552864 1149.9849874360614 36.66972529303856 0.34455724117014563
1.2525801707175774 13.080475466127467 1021.0369222433258 38.34202222088793 0.3498969222613689
1.2796188276286162 13.082916688634976 907.5290645301076 40.091044644876106 0.35536231496766657
1.3066584714660738 13.084512325725363 807.4755261036213 41.92220619958832 0.3609676450320975
1.3336896208717959 13.085232830441967 719.1952246435142 43.838871826773286 0.36671420454747256
1.360696307415961 13.085040064398948 641.2008465451858 45.84592945077629 0.372610869507174
1.3876228294802821 13.083788917665135 572.3240288125946 47.948606704921566 0.3786670267906034
1.4144751131135205 13.081509213490556 511.2615452277405 50.15153375469142 0.3848877008889834
1.4412052013121226 13.07808434037048 457.30437392660826 52.460160817144704 0.39128107610365237
1.4677886891741476 13.073480426194442 409.3999628215589 54.880780915384946 0.39785822444778235
1.4941953206856415 13.067622546965378 366.8824322231084 57.419576236709624 0.4046281940640885
1.5204057491411553 13.060493285721655 329.1534039146096 60.083166389921104 0.41160074212502573
1.5463873083795026 13.05202125102036 295.57118385767046 62.878647775951634 0.4187863931947333
1.5721027579130396 13.042154510581403 265.7227965783896 65.81363672691137 0.4261965023531663
1.5975252132713644 13.030844172782164 239.15190799877902 68.89631679596394 0.4338433236398056
1.622612023297365 13.018042496391692 215.4454937525961 72.13549062797229 0.4417400844426072
1.6473628513343053 13.003718201772848 194.2843855272105 75.54063689474528 0.4499010665334432
1.6717125781999 12.987804931863149 175.4085363336728 79.12185093122012 0.4583411854002647
1.6956508835468092 12.970276396149107 158.5166151633043 82.88897417238736 0.46707227543418234
1.71911841879325 12.951064115184812 143.43407399723523 86.85489130081041 0.4761165576508364
1.7421197392394956 12.930168175772094 129.91484720601122 91.03136233301132 0.48548913928699067
1.7646054527321344 12.907547379350996 117.7922488891233 95.43206567477321 0.4952103458647476
1.786530937668949 12.883126372739747 106.9284984854674 100.07105662483589 0.5052992713657143
1.807872175106277 12.856895112244379 97.18178704758093 104.96463718445919 0.515780787953753
1.8285865253968856 12.828785249885025 88.4172783549243 110.12920058146439 0.5266769389314104
1.8486705617735193 12.798846577886389 80.54659757440498 115.58248792280894 0.5380115818950103
1.8680615690808944 12.766966314844955 73.45475557054462 121.34476689157188 0.5498143246292596
1.8867368659253778 12.733146770462698 67.0751746426165 127.4373245283757 0.5621145363207533
1.9046675090549479 12.697356679591 61.319851327331634 133.88282134476972 0.5749423670533823
1.9218155570156559 12.659572802485897 56.13141438918098 140.70638819229805 0.5883322391363188
1.938144281462237 12.619743783924093 51.444652412571436 147.93591527774242 0.6023232750665553
1.9536370207811335 12.577898327901677 47.21394070005637 155.60015285073027 0.6169521969561444
1.968267743107998 12.534012551193843 43.382954067298016 163.73227667410396 0.6322650913210787
1.981994106315567 12.488047181053078 39.918878478150184 172.3660939306837 0.648303764221817
1.994792970402354 12.440002306276742 36.78079284396644 181.54103802065657 0.6651219969303732
2.006633574255857 12.389864748339257 33.93922257272367 191.29887142799927 0.6827735454626387
2.0174977376560164 12.337642919358618 31.357925682091285 201.6855464311986 0.7013175361546006
2.0273475765894333 12.283297395313175 29.020781031937222 212.7512664393985 0.7208176566520186
2.0361693704490103 12.226868679709868 26.89583010650574 224.55073554470482 0.7413418706081722
2.0439285302831935 12.168312636773381 24.96671322589627 237.14570280329443 0.762969454309015
2.050601476021368 12.107645566469246 23.209534570647396 250.60227830491232 0.78578078921143
2.0561833543827994 12.044916647712654 21.613600591786323 264.99391605148236 0.8098654733028432
2.0606524529995727 11.980133157525872 20.16080410157577 280.40237424691776 0.8353235809045266
2.063980060008163 11.913287731042805 18.838495822115526 296.9165873365983 0.8622598522900874
2.0661520504911053 11.844414561200756 17.63493881896321 314.63691371436215 0.8907951213157614
2.0671630602794977 11.773563662136407 16.538201734494265 333.6730084542768 0.9210565463799113
