M[M_sun], R[km], Lambda[1], P_c[MeV/fm^3], rho_c[fm^-3]
0.24162668629717493 15.618656898711224 2160425.4255784233 3.5677272577965504 0.1711233750220791
0.25364385445831034 15.277304731506586 1723199.4316104404 3.7848172354211207 0.17388814350496543
0.26603967166481624 14.981272673732565 1383074.5536560528 4.011396502846401 0.17666660092198852
0.2788147260346327 14.723512906302497 1116484.037495825 4.2477212259753045 0.17945743316094448
0.29196826610461507 14.498470321691677 905948.6553097162 4.494416519781448 0.18226720520196957
0.30550472190767036 14.301191383357008 738668.9678242275 4.751637294582959 0.18509160970609384
0.3194202714767998 14.128152000505041 605115.4722821255 5.020066996601011 0.1879372909639478
0.3337188030520288 13.975929505805365 497670.6781389399 5.299928052623445 0.19080084015823204
0.3483986366515528 13.842046611473352 411017.5166550176 5.5919509848946305 0.19368859252198095
0.3634598189946527 13.724033235951268 340653.8605542032 5.896300668934501 0.19659556666443853
0.37891424418087205 13.620013111182807 283316.48718309874 6.21384217811377 0.19952946422530216
0.39474551327607876 13.528480024994643 236417.28241925777 6.544834330931659 0.20248648853772339
0.41097072830817083 13.447907333075115 197878.41585627853 6.889976733847571 0.20547030364983726
0.42757814627344665 13.37709107556893 166094.14924874774 7.249975714185683 0.20848400579020215
0.444572947449315 13.314947178991906 139812.5709150493 7.625092334638367 0.21152317512924795
0.46195374309311604 13.260583100614147 117987.1504671676 8.016271417678107 0.21459390906944964
0.4797185327521766 13.213160680600357 99816.77925090298 8.424219854702708 0.21769788590286704
0.4978752827258617 13.172023711841186 84649.1476070344 8.849381437796506 0.22083261602116608
0.5164123196122054 13.136416787272342 71944.11415524503 9.292623608062534 0.2240014246403739
0.5353303047962167 13.105879319701806 61280.874558290554 9.754833875823335 0.22720727106090755
0.5546368773723542 13.079844029194948 52303.01730681493 10.23682176299678 0.2304515061127479
0.5743187831513513 13.057846198485636 44733.17864025401 10.73906231523577 0.23373087608247903
0.5943749958257543 13.039553993778185 38330.8129306016 11.262792476013066 0.23705147198352247
0.6148103821417155 13.02451508098882 32903.90832210808 11.808953439507777 0.2404149560797981
0.635615315687478 13.012434808179405 28293.62230764405 12.37852413019107 0.24382296117667768
0.6567837456499895 13.00302491247281 24372.574430830162 12.972198979524254 0.2472734995074977
0.6783161129202675 12.995976648373205 21029.75167086734 13.591293894025833 0.25077123527461953
0.7002030699866033 12.991056400859518 18173.537185791363 14.237011626223294 0.25431886437811413
0.7224370737323585 12.988003097975838 15731.026113405846 14.910541758510124 0.25791837123707495
0.7450233857803861 12.986664106228687 13635.17041196683 15.612920061130056 0.2615697141992492
0.7679429424250171 12.986763210036074 11837.188027993776 16.345400458954522 0.2652746666121969
0.7911871394117818 12.988129383149547 10289.868122249583 17.109604687360907 0.2690379782931449
0.8147597648036383 12.990674219291865 8957.018836792678 17.906987652567242 0.27286208154577385
0.8386429170533708 12.994121124675969 7808.232378115858 18.738919675670886 0.2767481030682886
0.8628233548310282 12.99840320853811 6815.403000394015 19.606735059715046 0.28069643388421184
0.8872934169358575 13.003374101258267 5955.710900542413 20.512524252911714 0.28471347780683126
0.9120568456765878 13.008840204746859 5211.58451418435 21.458081189956754 0.2888022478004706
0.9370769549689897 13.014733957687966 4565.645040689169 22.44489623132043 0.2929627165255685
0.9623546612040218 13.020926948508375 4005.0608886375676 23.474982053701897 0.29719858253254766
0.9878792491654391 13.027326664913286 3516.960608485378 24.550766773637804 0.30151599477525426
1.013620358959355 13.03378830758703 3092.2043275522524 25.674199780641207 0.30591663848815465
1.039584056482804 13.040241314286945 2721.750972051635 26.84722776130324 0.31040166697348187
1.065734276078631 13.046569449254683 2398.6002541535577 28.07295406877497 0.3149798666315722
1.0920656822908898 13.052695653538617 2115.938179836221 29.353441032286735 0.3196517346751312
1.118562553172644 13.058534448562359 1868.8053941547662 30.69142912630233 0.32442185297595133
1.1451927454485635 13.063986671655194 1652.3079411352508 32.09033387134953 0.32929838612560536
1.1719549498043762 13.069005316083778 1462.271652081089 33.55207766532022 0.33427891148484795
1.198809782512696 13.073465000376867 1295.5616165510974 35.08121120929577 0.3393770534054947
1.2257564683356315 13.07732946698388 1149.2379086174053 36.67976808834536 0.34458963767321404
1.252750034265746 13.080491674154198 1020.2866598973784 38.352788245540275 0.3499310266673203
1.2797916855798768 13.082932950775602 906.8081107561756 40.10250583768567 0.3553977720692822
1.306834824464398 13.084521781098012 806.8590894074139 41.93440992858029 0.36100453875369704
1.333871374848717 13.085239471755937 718.6801473235897 43.851954892116304 0.36675309418373514
1.3608801579902077 13.085031571384096 640.6969744388455 45.859864443083545 0.37265139057187785
1.3878091192263615 13.083777742291568 571.8918851909582 47.96345313426128 0.37870928452103586
1.414665375419995 13.081487389043254 510.8705575869924 50.16745438683515 0.38493231225474006
1.4413884911421828 13.07803619339295 456.9350086413331 52.477130382529786 0.3913276681722531
1.4679818538531346 13.073444674093732 409.0693508110436 54.89887453963399 0.3979069292301934
1.494390821288214 13.067577440288717 366.57401723130755 57.43887513004382 0.4046791537752461
1.5206023622060851 13.060435967093971 328.8762838359026 60.10375839186396 0.4116541100216819
1.546585549137543 13.05195000212537 295.3284495954211 62.90062795437766 0.41884233449632924
1.5723019051188103 13.042073286262633 265.4977046939191 65.83710803748953 0.4262551952546369
1.5977258424606493 13.030746772981448 238.9578040170876 68.92139080878472 0.4339049604262727
1.622812600658935 13.017929772560562 215.26716047601784 72.16228832897903 0.4418048727171003
1.6475639704232612 13.003594730540792 194.1271685018732 75.5692895705375 0.44996923057013277
1.6719139579045248 12.987660851271615 175.25737508065794 79.15235156785653 0.45841234303658746
1.6958516581136986 12.970119026199766 158.38659431028918 82.92162028687872 0.46714729611020256
1.719331566436107 12.95091128448498 143.3006146800784 86.88985090980972 0.47619572396476495
1.7423174829330916 12.92997317728607 129.79230330340778 91.06864998957896 0.48557209059776063
1.7647975048361735 12.907330955181648 117.69479132581054 95.47204050189754 0.4952980595614035
1.786724181382485 12.882897190384531 106.8320449668517 100.11375342719101 0.5053914092128483
1.8080639918815598 12.856647064650506 97.10012601560437 105.01027731924826 0.5158777048756431
1.8287758161747463 12.828517461382981 88.34345227012223 110.17814867357059 0.5267794773124972
1.8488556302856132 12.798557157072402 80.47736559739963 115.63496060646175 0.538119972352506
1.8682415280573994 12.766655419876852 73.39025785117607 121.40098280194927 0.5499287596219551
1.8869135036993174 12.732809656667072 67.0181124380682 127.49759921000438 0.5622355071258419
1.9048367578231207 12.697000611882965 61.26719568317768 133.94727857717706 0.5750696256439475
1.9219802859955777 12.659189825811069 56.08328940165399 140.77561950883575 0.5884671280682734
1.9382951686126162 12.619308234719261 51.39830111996927 148.010335165316 0.6024664254229234
1.9537933940457242 12.57747112986931 47.16808431473195 155.67997150759396 0.6171034613008614
1.9684116404943324 12.533550273742676 43.34451453892185 163.81811110873966 0.6324256331474575
1.9821289430325049 12.487556131076149 39.884874529517106 172.45846616359358 0.6484743194501141
1.9949192605520771 12.439489122085787 36.74982490678105 181.64041626507228 0.6653030157805337
2.0067593787755573 12.38933444850905 33.9082537514879 191.4059008642164 0.6829659535637512
2.017608525647081 12.337069545242256 31.33137902558741 201.80093875758965 0.7015223461514303
2.027447273121161 12.282691163975642 28.995547276210385 212.87551669906614 0.7210350250476503
2.0362606529272043 12.22623372980592 26.873797706955365 224.68499344601705 0.7415739385868177
2.04400872698397 12.167647149755748 24.946150636428705 237.29062226172215 0.7632165552981625
2.0506715025957294 12.10695031422841 23.191400527542296 250.75919077222613 0.7860452613668567
2.0562475022762814 12.044212974745793 21.597158675157594 265.1637355766295 0.8101480628589945
2.060697650205489 11.97937205550623 20.144415567268823 280.5860988203704 0.8356250422731337
2.0640066324373887 11.912482480592953 18.823797613847752 297.1158389222357 0.8625826755609411
2.0661702269113125 11.843593708312865 17.621112195744928 314.8533597091128 0.8911416087817066
2.0671673815818132 11.772711193763712 16.525159780911387 333.90807603249567 0.9214278168426424
