M[M_sun], R[km], Lambda[1], P_c[MeV/fm^3], rho_c[fm^-3]
0.24162668629717493 15.618656898711224 2160425.4255784233 3.5677272577965504 0.1711233750220791
0.2536343279167521 15.277520686454462 1723535.632072181 3.784642684497986 0.1738859678119147
0.26601913529668403 14.98173227640452 1383415.4553389736 4.0110295738940795 0.17666216680214636
0.2787837539315052 14.724112584424825 1116986.2479935677 4.247149517490283 0.17945080220406456
0.29192673953894754 14.499089075667706 906518.0784965988 4.493625042394511 0.1822583919175737
0.30544972334344284 14.301951088445369 739243.3192694812 4.750599188700097 0.1850803961813041
0.3193538226512633 14.128900686705137 605625.0844561022 5.01877462865136 0.18792388214766195
0.3336376161831355 13.976744308297945 490257.398208469 5.298347415520392 0.19078492576535552
0.3483068409272763 13.84278458569013 411503.2843667169 5.590078145934836 0.1936704722898447
0.36335332803948733 13.72477659772593 341102.6676019415 5.894093572974005 0.19657483715210625
0.3787908470577485 13.620786289021654 283721.7755881996 6.211274136302673 0.1995060467761086
0.3946060254891068 13.529241060634757 236784.46786300826 6.5419080232398565 0.2024608287725143
0.4108152916068039 13.448622216380961 198206.86178891925 6.886635695641031 0.2054418499664581
0.427405736331525 13.377774289041904 166395.002257473 7.246188617946253 0.20845267611356297
0.4443832128863549 13.315598908591449 140076.88164070953 7.620869660102432 0.2114895599247711
0.4617451310588438 13.261194994121503 118225.8302855874 8.011539547880059 0.21455730423100933
0.4794910836445419 13.213737420022241 100034.67484385583 8.418941920608944 0.21765820321689847
0.4976283268788455 13.172514886838446 84831.36571714554 8.843576910300616 0.22079058876201205
0.5161449770956176 13.136892611325166 72116.06293481046 9.28619860011294 0.2239561921838562
0.5350439670038061 13.106271285645867 61431.38794641728 9.747744859547398 0.2271587359030475
0.5543286781817368 13.080217859892503 52435.162504733154 10.22902256715646 0.23039956651092752
0.5739871935042318 13.05817752453666 44848.456257861115 10.730586832465017 0.2336764608577148
0.5940274531924489 13.03981950614747 38432.79937087428 11.25351331698231 0.23699349562997984
0.6144368071061124 13.024754576506949 32992.6143976313 11.798815832941735 0.24035330251765347
0.6352151701238538 13.012655890041213 28375.79476660276 12.367469889712753 0.2437575081985481
0.6563609176632714 13.003167983131458 24447.931793439933 12.96027886493679 0.24720536902058876
0.6778702731030833 12.996112189968434 21094.036636770048 13.578338736282603 0.2506991044271997
0.6997339354217984 12.991150807280002 18094.026887489632 14.222952020917088 0.2542425903331487
0.7219409243424812 12.988060457502712 15780.894073261965 14.895303844330241 0.2578378026408307
0.7445034242421196 12.986661905409894 13679.64334139224 15.596573826868061 0.2614861630925876
0.7673963657693993 12.986731100637822 11876.601915036996 16.327724682277434 0.2651865572986995
0.790614737279114 12.988089659695936 10324.589512883607 17.090510734377013 0.2689451308655392
0.81416269186921 12.990585249520793 8989.251015669619 17.886381016276626 0.27276430453002
0.8380172563918664 12.994034267175145 7836.383556092891 18.716862256950265 0.2766466347706399
0.8621745668215305 12.99828593863127 6839.468790677212 19.582999571670335 0.2805899477185442
0.8866178126051866 13.003209090134721 5978.365630544086 20.48696709193872 0.28460148236474714
0.9113511788393098 13.008671753443018 5231.400559660436 21.430580408368815 0.28868449741757957
0.9363467374665178 13.014567378222585 4583.582152875698 22.415566337237284 0.29284089684345643
0.9615924686748525 13.020745524027866 4020.6100909188 23.443455248385575 0.2970705428086315
0.9870908372332061 13.027125814910484 3530.8927152329725 24.51689480035716 0.301381437505191
1.0128054853520716 13.033583150869696 3104.9148517998815 25.63810831383828 0.30577733580119487
1.0387358555998871 13.040023051622995 2733.1313080414275 26.808486729500075 0.3102553103314095
1.06486717244533 13.046370802068212 2408.548656380934 28.031376925972584 0.3148260547012189
1.0911685362729617 13.052492093019074 2124.8753917614863 29.309175049972083 0.3194924043182501
1.1176391218879413 13.058342826132035 1876.6716448862858 30.6439462484255 0.32425435404742703
1.1442488740555217 13.063814754631718 1659.3708079024043 32.03950853386067 0.3291229042642372
1.1709817701088396 13.068833979409375 1468.6918090056038 33.497878372427536 0.33409625427961864
1.197812657327177 13.073294710871872 1295.445965818942 35.02310196609218 0.33918490189167183
1.2247339549264091 13.077193801632191 1154.304416390142 36.61791740724989 0.3443901169502797
1.2517103572814627 13.080399589380091 1024.9827850139764 38.286485143884214 0.34972099297635895
1.2787249493540855 13.082857502247375 911.0188863214985 40.03192302810933 0.3551794124366462
1.3057461538400592 13.08447167576717 810.6329184962019 41.85925591580095 0.3607773367872821
1.3327698938107546 13.085249493552869 722.0486514839428 43.771387878242095 0.3665136073523097
1.3597507076478679 13.085064048717918 643.835670877571 45.77405310785715 0.37240186286562826
1.3866634804971778 13.083855155155453 574.6381407372689 47.872031300094164 0.3784490684693861
1.4134931827605475 13.081589123582336 513.381829386607 50.069420591955115 0.3846576107579387
1.440217215491846 13.078233167386474 459.1650466951888 52.37264011813646 0.39104077705534795
1.466785282682729 13.073662168566642 411.1064107136628 54.78746559369993 0.3976070363842009
1.4931854673823066 13.067877930891395 368.4225321885327 57.320047873334914 0.4043653843494726
1.5193877921969814 13.0608016940508 330.5268745071319 59.97697243012701 0.4113255212753229
1.5453605914596615 13.052382081943392 296.83061486351664 62.7652984467037 0.41849791014012605
1.571069763924592 13.04258126389867 266.8550284820731 65.69260164370318 0.4258938392279197
1.596487340163077 13.031337963038554 240.16076309943102 68.76702122419081 0.43352549004829066
1.6215820625887354 13.018611640701787 216.36968944065444 71.99731135967939 0.4414060111442609
1.646314139914653 13.004348163808926 195.13494341057148 75.39289769673283 0.4495495984825417
1.6706787332174304 12.988522214721218 176.17355559715693 78.96393942355624 0.4579715832036968
1.6946104742864276 12.971073686854279 159.21797044729914 82.72065488622295 0.4666854782048018
1.7181023548572065 12.951973464846377 144.0576938298456 86.6746505354642 0.47570840099747097
1.7411065858011876 12.931160964906217 130.48778704052668 90.83912502009461 0.4850614820257622
1.7635919003881 12.908617675866832 118.32044949832229 95.22598254448361 0.4947581534607653
1.7855281354102026 12.884296895843004 107.41022741321619 99.8509483151573 0.5048242871825566
1.806875094643862 12.858140617007097 97.61483427013432 104.72912021721699 0.5152802635912439
1.8276251275688045 12.830188793954065 88.82087355780628 109.8765251030059 0.526147038421315
1.8477077494622591 12.800305224983356 80.91075154828317 115.31201439098167 0.5374528769114957
1.8671285794954862 12.768570291816754 73.78500116114006 121.05500986949605 0.5492244855164158
1.8858182152993312 12.734838545616535 67.37344896758255 127.12665953188304 0.5614910341516319
1.9037715496398442 12.699170629934935 61.59528420564872 133.55001284976734 0.5742843686495536
1.9209444134160851 12.661484860344823 56.38208139343737 140.3495874002572 0.5876370555089395
1.9373214176716897 12.6218476504643 51.67638457740979 147.55239076031006 0.6015855465757396
1.9528633861831821 12.580175934926412 47.420071188539254 155.18882233904588 0.6161726844617379
1.9675169065890818 12.536394171181776 43.57512710916361 163.28936082478455 0.6314357606124962
1.9812846841180356 12.490569091337331 40.09651324554962 171.89011405913686 0.6474249194315683
1.9941345885286774 12.442700895686205 36.942600662306134 181.02898052202426 0.6641892770965352
2.00600943808009 12.392675478247522 34.08603916233948 190.74741632917403 0.6817821880177714
2.016915485714143 12.34058185968586 31.49774184837202 201.09103174920037 0.7002623312380913
2.026817120776472 12.286397454803133 29.14624133651165 212.1100518486484 0.7196942192604749
2.035689656848993 12.230112701698879 27.010992529326852 223.8590919180714 0.740146348133837
2.0435109602353485 12.171740626663425 25.07161266469028 236.39824639827236 0.7616935313525758
2.050250149893107 12.111253410227565 23.308071543777967 249.7938605899583 0.7844179796778699
2.0558816153151525 12.04865474616132 21.704374016365612 264.1192149111888 0.8084099197863297
2.060411497272252 11.984031154136002 20.243923704792447 279.45474962385754 0.833766485552199
2.06381276987294 11.917367905730298 18.915079864083687 295.8897498834647 0.8605951069244718
2.0660527467796364 11.848662016507365 17.704545903508674 313.5222454033046 0.8890107565881417
2.067134297056527 11.77798159103068 16.60175581771799 332.4623680300699 0.9191441807828797
