M[M_sun], R[km], Lambda[1], P_c[MeV/fm^3], rho_c[fm^-3]
0.24162668629717493 15.618656898711224 2160425.4255784233 3.5677272577965504 0.1711233750220791
0.2536384334671062 15.277456165569282 1723338.2603496327 3.784731186542093 0.17388707094719968
0.266029414575312 14.98149999254353 1383284.8284500095 4.0112156138070345 0.17666441498470117
0.27879938626224127 14.72379645851771 1116720.148989723 4.247439379980207 0.17945416417213422
0.29194839660732375 14.498736551671172 906165.4688611767 4.494026324041951 0.18226286028185057
0.3054773466783489 14.301586740853867 738965.7772469936 4.751125503705587 0.18508608138785065
0.3193869233509541 14.128536158113382 605333.0768811055 5.019429843840651 0.1879306802581407
0.3336783169141065 13.97635387091651 497975.0789208308 5.299148767716033 0.1907929940522819
0.34835272722927824 13.842426883224878 411251.568247433 5.591027625487296 0.19367965876570759
0.3634090985255166 13.724354313553082 340871.8524704827 5.895212495526658 0.19658534630951002
0.3788538629453998 13.620382304245783 283507.12133422587 6.212576027166809 0.19951791845321085
0.39467609450261437 13.52887522634474 236596.72245790396 6.543391520346142 0.20247383703803
0.41089442220017136 13.448230518624623 198031.7910259529 6.8883294169767515 0.20545627440809566
0.4274933569580723 13.377396777226542 166231.75664968492 7.248108438764482 0.20846855829918426
0.4444796215849796 13.315284566467513 139947.43996320007 7.623010264670026 0.21150660051353337
0.46185169082956895 13.260881906208457 118097.95789329674 8.013938245833955 0.21457586009894672
0.4796068462364542 13.213437855943477 99919.75147550528 8.421617394450823 0.21767831903994556
0.4977538312470562 13.17224573423861 84739.41648913399 8.846519287310644 0.2208118928287456
0.5162808530277314 13.13665504409606 72029.31107916942 9.289455460658415 0.22397912068513792
0.5351888486653007 13.10606022090816 61354.82260666364 9.751338259300834 0.22718333821985684
0.5544849666737995 13.080005776798444 52369.47980724055 10.232975900799877 0.23042589417079223
0.5741546091208035 13.05801909795139 44788.305553992934 10.734882918871614 0.23370404306320616
0.5942029959876223 13.039708804137076 38044.594513285636 11.258216710496855 0.23702288251777276
0.6146265003144059 13.024632633362659 32950.095933898374 11.803954284578053 0.24038455287691954
0.635416266277588 13.012540492932446 28333.692334385327 12.373072880336743 0.2437906839217913
0.6565722651708069 13.00308974085307 24409.76544871701 12.966320667008812 0.24723990148367492
0.6780957291390737 12.996046574976258 21061.60695091524 13.584905069870192 0.25073566401338937
0.6999715843196707 12.991110288755925 18065.737537099234 14.23007804907705 0.2542812493837024
0.7221924809392952 12.988029917595693 15755.198322544102 14.903026987555434 0.25787863781032316
0.7447669319323232 12.986660927528842 13657.335824190453 15.604858615874045 0.26152850943846845
0.7676740564537641 12.986742430967015 11855.781441480665 16.336683204987384 0.2652312132875335
0.7909059359912018 12.988111205079537 10307.256239119826 17.10018789352512 0.2689921876135154
0.8144665076749024 12.990625464375192 8973.131664686636 17.896824689171286 0.27281385901114674
0.8383336088796975 12.99408962713576 7821.374724298166 18.728055612016313 0.27669818831701337
0.8625004312535361 12.998344978565108 6827.46848521953 19.595028684712286 0.2806439147623988
0.8869622846499561 13.003277526042567 5967.042188170768 20.499919249151624 0.28465824072591783
0.911708580336992 13.008763890621973 5221.111266223976 21.444517384604403 0.2887441715138534
0.9367148737252697 13.014645669934461 4574.618454932922 22.43043011385907 0.2929026325093923
0.9619790075263965 13.020841896370968 4012.646958192281 23.459432151535037 0.29713542975952195
0.9874903884218041 13.027233904732617 3523.789925543831 24.534059928570144 0.3014496264109122
1.0132200141359866 13.03369331153284 3098.382510920915 25.656400646078584 0.3058479481999577
1.0391676653986384 13.040135477451672 2727.276106853405 26.828118824229524 0.310329476850155
1.0653085577325192 13.046472005673373 2403.3777827915656 28.05244592338259 0.3149039980841407
1.0916225604918262 13.052600231671777 2120.314436895595 29.331606341942816 0.31957314319646124
1.118108636423314 13.058434194077103 1872.6122035598628 30.668007314902884 0.3243392310185442
1.144725607746565 13.063896070619768 1655.8710947688005 32.06531210006244 0.32921214303399726
1.1714763125679544 13.06891633173855 1465.4517151000484 33.525342122248176 0.3341888099481453
1.1983233067090069 13.073402059597337 1298.3847443521347 35.05254651319276 0.33928226702649866
1.225251428262019 13.07726671992261 1151.71885075562 36.64925739308601 0.3444912148932615
1.2522351400068243 13.080440453903762 1022.6062606653783 38.32008066945456 0.3498274162364943
1.2792662952902156 13.082889089840902 908.9044603047508 40.06768661151407 0.3552900530158592
1.3062985737144654 13.084495773226173 808.7769527211494 41.897335190004014 0.3608924562021827
1.333323688202233 13.085233753234515 720.2855021135692 43.812209172226 0.3666349493492485
1.3603228741485212 13.085047005206729 642.2843714675768 45.81753098877144 0.3725282906373033
1.3872445316965485 13.083815852927378 573.2651691521794 47.91835121377018 0.3785809098961015
1.4140837740867218 13.081530739847667 512.1175313048257 50.119089694867164 0.3847967890579465
1.4408149241013157 13.078139649337636 458.03633212281943 52.425579663103264 0.39118612921109336
1.4673949172849683 13.073555843719175 410.0706393451687 54.84390964663031 0.3977589736234479
1.493797845286082 13.06772375778864 367.4926865244209 57.380249442851934 0.4045243496611459
1.5200030694279316 13.060619932929525 329.6801141043543 60.04120516187106 0.41149199201474734
1.5459824407467937 13.052163827703675 296.06788267611034 62.833858486526516 0.41867240089224
1.5716953056901912 13.042321531477118 266.17580839580427 65.76580968854222 0.4260769049561108
1.5971107206537267 13.031030930700231 239.54908390505904 68.8452247816979 0.4337177295597515
1.6222043101825878 13.018251848440286 215.81054005267617 72.08088724026551 0.4416080709064419
1.6469534884615473 13.003969150592491 194.62613071859212 75.48225476462063 0.4497621768294348
1.6713068074317432 12.988087178629177 175.70659597627818 79.05952163676275 0.4581954349754127
1.6952292863020815 12.970569382376494 158.7945372178067 82.82245721812346 0.46691941966701267
1.7187087006440465 12.951395505217878 143.68355049258798 86.78366185469768 0.4759552580009453
1.7417246980006125 12.93057147001753 130.1442845282213 90.9553907362605 0.4853201304483596
1.764205322793163 12.907973245100585 118.00654389854559 95.35062066179039 0.49503163732047556
1.7861356800535066 12.883591465692012 107.12228397143708 99.98406729749117 0.5051115521712295
1.807481790033259 12.857397526531486 97.34925400648275 104.87165280080953 0.5155833354201701
1.8282125567077523 12.829352769990347 88.57860016366635 110.02933644967027 0.5264675080254089
1.8482949675852245 12.799433526615699 80.68900662564408 115.47558749705169 0.5377907625038968
1.8676937853299405 12.767600111221341 73.59045520683257 121.2302427270768 0.5495811953987719
1.8863728869225318 12.733801069882285 67.19493120521652 127.314534171039 0.56186809705334
1.9043171336194267 12.698085968917523 61.42649412487822 133.75151271833315 0.5746831230538298
1.921466783101997 12.660321491141783 56.230511043518575 140.56535703555468 0.5880574568115443
1.93781202582321 12.62054773531896 51.53546750994338 147.78431776829908 0.6020316697146946
1.953331038027392 12.578793528902022 47.294580118368735 155.43756099652958 0.6166440691167602
1.9679701609655191 12.534947951003447 43.46067199269016 163.55719552039082 0.6319372634108978
1.9817134915478374 12.489041413306891 39.99037277156737 172.17793865915965 0.6479563560854197
1.9945258581010856 12.441048807723993 36.84568366027028 181.33861657017772 0.6647532834515936
2.006387435806919 12.39097395736109 33.99716580280224 191.08087050081326 0.6823816425813085
2.0172773313642667 12.338829726113511 31.41494984870101 201.450517383091 0.7009003827779134
2.02713471818727 12.284512281801236 29.06901256079565 212.49801327592562 0.7203743177880872
2.0359713509514012 12.228118959559028 26.941823658811185 224.27729482526476 0.7408692218149198
2.0437644417901573 12.169666234197324 25.008147680477848 236.85055525309733 0.7624662006232131
2.0504648767562936 12.109086117507797 23.24781289275198 250.28265366904182 0.785241974322954
2.0560665862605596 12.046397701359492 21.648414214495972 264.6480752766858 0.8092899741606563
2.0605606095353073 11.981674862681764 20.194014885892653 280.0276900191734 0.8347079161619547
2.0639139165117384 11.914902081338495 18.868485574746742 296.51083022933267 0.8616024530723062
2.0661133269486367 11.846091867438945 17.66223546351176 314.1961552674344 0.8900895537327446
2.06715137931761 11.775311969850064 16.56406549008549 333.1943444638502 0.9203005348424423
