M[M_sun], R[km], Lambda[1], P_c[MeV/fm^3], rho_c[fm^-3]
0.24162668629717493 15.618656898711224 2160425.4255784233 3.5677272577965504 0.1711233750220791
0.25364399555186096 15.27727603499813 1723121.8447100697 3.784820232989698 0.17388818086821164
0.26603997442821775 14.98125003802607 1383009.161051856 4.011402804338727 0.1766666770718044
0.278814961482257 14.723526104644323 1116388.654324251 4.247731044585744 0.17945754704202926
0.2919694490116894 14.498418671777696 905846.024867173 4.494430113163011 0.18226735656742812
0.30550458906637934 14.30125010690546 738688.5115440567 4.75165512429972 0.1850918023010634
0.31942093912548386 14.128142403277655 605096.1852706795 5.020089193996234 0.18793752127049063
0.33371939080802215 13.975940210705454 497669.9837878362 5.299955202099703 0.1908011135084088
0.34840024907066813 13.84203294665799 411009.2932945274 5.591983154242585 0.1936889037692719
0.3634619532541968 13.724004996147425 340655.9659942474 5.896338580889445 0.1965959227415424
0.37891599372651885 13.620005963399986 283305.5676768096 6.213886291469598 0.1995298664859914
0.39474954481812224 13.528425197750762 236406.78553444587 6.544884599892531 0.20248692932860018
0.41097322491146593 13.447882686272447 197871.347030974 6.890034128859108 0.20547079244984037
0.4275811629896942 13.377060557608765 166086.40661105534 7.250040773840843 0.20848454401205593
0.4445759940666149 13.314931837630725 139808.23793413793 7.625164879123749 0.21152375262999754
0.46195737867050873 13.260585844296937 117979.67825075373 8.01635271234973 0.21459453794945857
0.4797221954518416 13.2131531941975 98744.4855674284 8.424310533489447 0.2176985676805767
0.49787948830189993 13.171983467833028 83767.27134649351 8.84948116635559 0.22083333809854458
0.5164173328106387 13.136400963124386 71939.77922607756 9.292734000320898 0.22400220180875494
0.5353355664505038 13.105844946102424 61277.12990185194 9.754955680274918 0.22720810499865793
0.5546419663480514 13.079807421443133 52301.519686653344 10.236955773617407 0.23045239857120356
0.5743244907165508 13.057840434846986 44731.927138385065 10.739207949751693 0.23373181110118316
0.5943806636336255 13.039525597742937 38329.02105674481 11.262951924566776 0.23705246822097148
0.6148178543533199 13.024501917538489 32902.218221657735 11.80912764405194 0.24041601553408048
0.6356217931821965 13.01243517212436 28060.906266309747 12.378714091444722 0.24382408595135627
0.6567917926920617 13.00302757152334 24371.72777044034 12.972403825154718 0.24727467032112052
0.6783238287153721 12.995972297545961 21028.84089562166 13.591516532899481 0.2507724748682195
0.7002107152192549 12.991066013610764 18173.20748041429 14.237253252102118 0.2543201752102993
0.7224450850460801 12.987992722546537 15730.244626539614 14.910803641857937 0.2579197559130525
0.7450331787808449 12.986653734659447 13634.627449011045 15.61320099884382 0.26157115016648863
0.7679531555385859 12.986751487758216 11836.461695758613 16.345704255531412 0.2652761809619379
0.7911969640460885 12.988142143819386 10289.207221722569 17.109932867504284 0.26903957412205104
0.8147701060113911 12.990669557666303 8956.372434238236 17.907341842066835 0.27286376214962366
0.8386535344582868 12.994121486709554 7807.637833763804 18.739298303553763 0.2767498426675031
0.8628350083009021 12.998392431460239 6814.934607307842 19.60714304907521 0.2806982642751655
0.8873134421254733 13.003354339283176 5955.528465684696 20.512963567404753 0.2847154029510566
0.9120696000052098 13.008847613462283 5211.275542011055 21.458553927705204 0.2888042719266108
0.9370904133289523 13.01472763598009 4565.412500769998 22.44540042307054 0.29296481065105523
0.9623674683127107 13.020939407968324 4004.4648760553964 23.475524026706154 0.2972007836459538
0.9878924131382142 13.027343112452664 3516.6431732518286 24.5513490789239 0.3015183079977226
1.013634403267863 13.03378708642735 3091.8415033243155 25.674820164184265 0.30591903266772646
1.039598855403243 13.040242901414672 2721.597696885466 26.84789380741268 0.3104041831757487
1.0657491442687708 13.04657051727277 2398.420253333796 28.073668895196686 0.3149825110853365
1.0920803635188026 13.052696890614905 2115.8795196885485 29.354202105552073 0.31965447407158504
1.1185783787702113 13.058536895130631 1868.7377929565853 30.69224553283134 0.3244247329028842
1.1452091893868384 13.063997123286082 1652.150837947396 32.091202946566234 0.3293013721824495
1.1719716908981368 13.069002046766808 1462.1376231705815 33.55300960333178 0.3342820522120337
1.1988270204618345 13.0734593405501 1289.5475803155182 35.0822104086327 0.33938035748681833
1.2257730211843565 13.07733413386262 1149.1275290242854 36.68083164941773 0.3445930685565978
1.252767620231892 13.080491716449623 1020.1869174641805 38.35392318946064 0.3499346078470466
1.2798101369026387 13.082938460173748 906.7390054297629 40.103719623584226 0.3554015271173527
1.3068538537189376 13.084522492086482 806.7914661558685 41.935702358073804 0.36100844596385817
1.3338913427926062 13.085236708443578 718.623022593207 43.853340455372965 0.3667572127942945
1.3608982884706842 13.085036402626192 640.6528621643291 45.861340236903374 0.37265568197983445
1.38782921565602 13.083778629760197 571.8201129833951 47.965025462140844 0.37871375987373956
1.4146857967143482 13.081484873606861 510.85445269742024 50.169140489699814 0.38493703690077924
1.441409082855842 13.078032640929372 456.90351375106457 52.47892758375637 0.3913326026134682
1.4680032822993152 13.073437773106516 409.03892966823406 54.90079079695766 0.39791208745027734
1.494411774695025 13.067572985115131 366.54889688273147 57.44091904578309 0.4046845508388963
1.5206237259707567 13.060427848508086 328.8538594530506 60.10593927063204 0.41165976216337447
1.5466071036089277 13.051944762447441 295.30839462657866 62.90295586655143 0.4188482592178887
1.5723227707717709 13.042063636270983 265.4757083707282 65.83959388907896 0.42626141143255003
1.5977469587468582 13.03073668575304 238.93230498361157 68.92404641842106 0.43391148842979826
1.6228338829445654 13.0179184186497 215.2478238072035 72.16512651282973 0.4418117345383563
1.6475857897135113 13.0035802273537 194.10647684410995 75.5723242360555 0.4499764499674836
1.6719350804471624 12.987648099190542 175.24010663024947 79.1555819716832 0.4584198795317569
1.6958728038180821 12.970101754869154 158.3724941834072 82.92507794620161 0.4671552418012562
1.7193525376211989 12.950891438726401 143.2844581084339 86.89355362345887 0.4762041087894105
1.742338234206533 12.929951479287311 129.78028183522557 91.07259929879154 0.4855808763570702
1.764818318641664 12.907308259425081 117.68197722985694 95.47627445116257 0.49530734979148594
1.786745177512645 12.88287274854367 106.82587046740561 100.11827570310892 0.5054011680880858
1.808084086219995 12.856621555080695 97.08787076990374 105.01511137173881 0.5158879699962393
1.828794508873418 12.828489805293724 88.33671767335575 110.18332008080004 0.5267902893493795
1.8488746590786092 12.79852753126829 80.46713215844292 115.64051841888471 0.5381314528751182
1.8682616123877533 12.766620389163608 73.38411817660254 121.40693713151661 0.5499408804549358
1.8869308920170165 12.732775050143186 67.01103641323371 127.50398348603902 0.5622483203169023
1.9048544758601327 12.69696292822517 61.258758763012494 133.95410591197688 0.575083104922711
1.9219979317101312 12.659148215421979 56.077489003800196 140.78295257254723 0.5884814156650066
1.9383130764956178 12.619276401267497 51.39562426129703 148.01821787090287 0.6024815881993087
1.9538102398947341 12.577423832685236 47.16482819030017 155.68842612334907 0.6171194836440362
1.9684285993074393 12.533500268199608 43.340803723655256 163.8271888682394 0.6324425904776445
1.9821439618095669 12.487504568725425 39.881596157851156 172.46825064853957 0.6484923854317534
1.9949352613281985 12.439432428995877 36.74661478038624 181.6509429443598 0.6653221902728167
2.0067718477810303 12.389277704675257 33.905053726132024 191.41723809503242 0.6829863346395588
2.017620356491001 12.337008572322516 31.328703049889707 201.81316194577943 0.701544041104749
2.027460173669446 12.282625993658876 28.993560674799255 212.8886782935701 0.7210580504698018
2.03627108306709 12.226166721468804 26.871719615108663 224.69921526571216 0.7415985213407342
2.044016868639015 12.167577527850609 24.94377151791279 237.3059735902915 0.7632427307235703
2.0506784605939288 12.106876764676095 23.189003875271492 250.77578251617186 0.78607317895228
2.056253983065141 12.044135250505361 21.595253589452756 265.18172493148904 0.8101779981906403
2.0607033369942114 11.979294094095074 20.143598494117438 280.60555416276816 0.8356569535628573
2.0640093642210355 11.912399253223239 18.82202818947535 297.13694650836584 0.8626168736325528
2.0661726384951735 11.843506670139359 17.619821352000635 314.87628902851174 0.8911783141122142
2.0671681549389227 11.772621336419876 16.524181481018246 333.93297831176704 0.9214671480035715
