M[M_sun], R[km], Lambda[1], P_c[MeV/fm^3], rho_c[fm^-3]
0.24162668629717493 15.618656898711224 2160425.4255784233 3.5677272577965504 0.1711233750220791
0.25363575212855405 15.277471167171363 1723461.8394349725 3.78466863075846 0.1738862912195346
0.2660219951349225 14.98166634603033 1383361.4968907228 4.011084114820094 0.1766628258970494
0.27878804285638065 14.724055763063935 1116936.472236567 4.247234494898166 0.17945178781393778
0.29193305993849816 14.49901409890811 906441.1145866966 4.493742682651636 0.18225970186913967
0.305459623755465 14.301782377402596 739173.4432404765 4.750753482174492 0.18508206284530107
0.3193635083637238 14.128800063287352 605544.3334601113 5.018966708218064 0.1879258750473024
0.3336498382947015 13.976627652426727 498198.7876478029 5.298582333308648 0.19078729099768416
0.34831884700967397 13.842671850789829 411413.61912336363 5.59035648468355 0.19367316529380685
0.3633702727368076 13.724640375068063 341035.09031299927 5.894421580230291 0.19657791786567103
0.37880981240847733 13.62065604809314 283656.1839036017 6.211655775881298 0.19950952686954168
0.3946277649586286 13.529122159738959 236732.80126292576 6.542342895128485 0.20246464201149444
0.4108386390926038 13.44850904604537 198154.58302798733 6.887132187445424 0.205446078299009
0.42743158216319344 13.377642860947557 166342.28999183574 7.246751381993229 0.20845733171629954
0.4444102704212551 13.315494593220961 140034.469060307 7.62149713749822 0.2114945550483082
0.4617765303264894 13.261094930908564 118184.59613106043 8.012242673297811 0.21456274347456814
0.4795248807531988 13.21364732305764 99995.79128958199 8.419726168858581 0.2176640996673768
0.497664866219286 13.172470925132645 84808.35051640145 8.84443938688857 0.22079683346101672
0.5161834488566477 13.136811375840507 72087.41245440989 9.287153249357857 0.22396291297405585
0.5350865774891717 13.10620543397829 61407.397224507244 9.74879814452865 0.22716594724956538
0.554374297968534 13.080154831570875 52413.09457281562 10.230181343246787 0.23040728350764908
0.5740354567676682 13.058142114101962 44831.429279679716 10.731846063366543 0.23368454551016352
0.5940783841901877 13.039786940049249 38416.89023203488 11.25489192061689 0.23700210917043632
0.6144924959851662 13.024718254815113 32979.05684212679 11.800321940956568 0.2403624621672694
0.6352722505493121 13.01262818367318 28363.53459878439 12.369112140536668 0.2437672320875364
0.6564212993351601 13.003166340475456 24241.43566481129 12.962049717922778 0.24721549049008423
0.6779371336062356 12.996094262372019 21085.332711363415 13.580263310760953 0.2507098199422708
0.6998034736578483 12.991124394355564 18085.708366415085 14.22504061996838 0.25425392108493605
0.7220144710819223 12.98805096207397 15773.44785572187 14.897567432353528 0.2578497710839758
0.7445795694284356 12.986659723957313 13672.660004361964 15.599002008893093 0.2614985743484228
0.7674782171762797 12.986736447369152 11871.221687868192 16.330350302702126 0.26519964535798823
0.7907003903454123 12.988094295068633 10319.848164707148 17.093346949506373 0.26895892241929026
0.814251137936405 12.990595446482573 8984.391663452076 17.889441853783566 0.27277882798513003
0.8381107556791298 12.99404834025104 7832.364387986992 18.720162680781844 0.2766619203852937
0.8622679239964879 12.998294815630787 6836.263897882744 19.586525007661727 0.28060576412646143
0.8867181140092483 13.003232249617762 5974.8943743705 20.49076301165044 0.2846181166734906
0.9114550944642741 13.008700257768513 5228.4771659368635 21.434664910508538 0.2887019860729232
0.936452102892857 13.014580954148846 4581.08294683715 22.41992242094185 0.29285898953518724
0.9617064478318159 13.020769425812752 4018.2458703531447 23.448137505541347 0.2970895588461753
0.987207041133964 13.027157404525106 3528.8971385569307 24.521925232449362 0.30140142102383505
1.0129260702658953 13.033617712061597 3102.993080605863 25.643472839542472 0.3057980573047799
1.0388645798746616 13.040071488389009 2731.293360325944 26.814240026819835 0.3102770452526899
1.064996182059062 13.046396003560057 2407.161344171293 28.03755125147514 0.31484889621605533
1.0913015875158316 13.052526398942364 2123.5363206445127 29.315748544009082 0.3195160648606374
1.1177768222330824 13.05836812698436 1875.6165905965852 30.650997273356253 0.3242792269947653
1.1443909193587698 13.063835029384572 1658.258573408843 32.047070112095575 0.32914905514329984
1.1711262540423777 13.068858813789857 1467.7548721783699 33.505926387202116 0.334123376919194
1.1979597538014877 13.073324951548727 1300.6152897037935 35.03173034180361 0.3392134335909916
1.2248856095740603 13.077214669880457 1153.5937577463715 36.627101136642594 0.34441974223968985
1.251865906082319 13.080409589237872 1024.278293818317 38.296329715979724 0.34975217842261275
1.27888302930081 13.082863267635519 910.4329843790041 40.04240281447995 0.35521183339460644
1.305907365475194 13.08448403151621 810.0413756622224 41.87041416349746 0.36081106986053574
1.3329270995754845 13.08522102746 721.5626005497061 43.78334947139293 0.36654916339323446
1.359918335444533 13.08506060503182 643.3750588799611 45.78679301966402 0.37243890879857644
1.3868341948422398 13.083842590657502 574.1835303989399 47.885603851961825 0.3784877003333165
1.4136666488885152 13.081574677879317 513.0235622270095 50.08397433741799 0.38469839195658156
1.4403930756953482 13.078205184418623 458.83727830467024 52.3881519901711 0.39108336684415884
1.4669623078070637 13.07362479250037 410.8118295621308 54.804004152409 0.3976515552098508
1.4933653644869949 13.067829561441892 368.1479980161107 57.33768722614991 0.4044119619593331
1.5195677694911982 13.060749306271717 330.27959823810806 59.995792727864256 0.4113742974801555
1.5455425429507805 13.05231803867469 296.6078827744399 62.78538642905588 0.4185490356522778
1.5712536282614926 13.042506335563058 266.6587903200308 65.71405123966566 0.42594747658311627
1.5966713640502272 13.031249774814286 239.97449727979972 68.78993421358959 0.433581814620069
1.6217675955442783 13.018510065306934 216.21109709923667 72.02179810272453 0.4414652122611572
1.6464979873901209 13.004237547464314 194.98023698532347 75.41907793937858 0.4496118806593683
1.670863667153454 12.988394034013423 176.04249248772766 78.99194318742434 0.45803716749962686
1.694794360294834 12.970930846538286 159.0963877069421 82.75048070579845 0.4667540178513194
1.7182855088367293 12.951813980172608 143.9456833311318 86.70658800823598 0.4757807236597635
1.7412861148926075 12.930989231106023 130.38379094813956 90.87318745229722 0.4851372583994824
1.7637712827610446 12.908433934723066 118.23267461821119 95.2624973389501 0.4948382750731822
1.7857066698584696 12.884087275063191 107.32601649989924 99.88994724393936 0.5049084451789476
1.8070469582076845 12.857911943326675 97.54554799834524 104.77097566055171 0.5153694263249915
1.827796878406932 12.829946226605394 88.74333470915305 109.92129193241408 0.5262409215550622
1.847875975654376 12.800045949492993 80.83921530126067 115.35993328797288 0.5375518608171393
1.8672956340129627 12.768287664265658 73.73005672940626 121.10634379102498 0.5493289825688651
1.8859906953210934 12.734561695003292 67.32331847279396 127.18169603708394 0.5616014919784261
1.9039284702545427 12.698843966196407 61.54841508771994 133.6090666998477 0.5744012737459645
1.92109640441848 12.661152529722049 56.33686333055547 140.4127937579413 0.5877602055298712
1.9374674337372897 12.621478085725416 51.63571353089895 147.62032909800848 0.6017162293484455
1.9529853760674096 12.579721479622329 47.385021072522555 155.2616842510183 0.6163107650785058
1.9676507438802378 12.535974058532252 43.54201351019526 163.36781513540603 0.6315826611334846
1.9814101512977011 12.490121899314765 40.06494144017032 171.97442250337735 0.6475805857557637
1.9942539760285711 12.442227899094503 36.91345375833727 181.11967641189955 0.6643544809175127
2.006120287569355 12.392174767922112 34.061929618058834 190.8450871638644 0.6819577720486797
2.017016983952933 12.340059302933357 31.473829424403462 201.19632551549816 0.7004492172868964
2.0269100938898164 12.285841686424098 29.12327012623015 212.22368413966132 0.7198934172950566
2.0357732395659798 12.229535238477412 26.99003419331027 223.98157968186385 0.7403580711495722
2.0435848297619663 12.171132680880836 25.053072413013982 236.5307294718689 0.761919862593093
2.05030787716965 12.110601492455764 23.290649207710167 249.93701805327294 0.7846593108018626
2.0559373993803116 12.04804559120511 21.688552272789007 264.2801819057005 0.8334948505845008
2.059902466507217 11.98457321189896 20.288182967307915 279.88469925367554 1.0078801098071624
2.061647424740894 11.9195854652515 19.089333523549378 297.00882369917747 1.1899327594048918
