M[M_sun], R[km], Lambda[1], P_c[MeV/fm^3], rho_c[fm^-3]
0.24162668629717493 15.618656898711224 2160425.4255784233 3.5677272577965504 0.1711233750220791
0.25364470358111163 15.277277756647532 1723121.113849385 3.7848429126457797 0.1738884635591837
0.2660421749837837 14.981230883802862 1383007.2905985697 4.011450481768921 0.176667253225411
0.2788191436360569 14.723437993123307 1116475.0038446467 4.247805333066243 0.17945840867645269
0.29197449826640903 14.498338706122446 905781.1388564035 4.4945329623638735 0.18226850181714976
0.30551177823019016 14.301129624555564 738578.9341016482 4.751790026754726 0.18509325950504268
0.3194295451629128 14.128050180656262 605031.5191792786 5.020257143726455 0.18793926381376433
0.33373010297695177 13.975827162159156 497635.7314107525 5.300160621140571 0.19080318173729854
0.3484124589942294 13.841930725617205 410944.4157280952 5.592226555777574 0.19369125874608037
0.36347762211015205 13.723863622306377 340614.10753217 5.896625433716786 0.1965986169240013
0.3789315953450923 13.619920125280276 283264.7533119299 6.214220067341419 0.19953291012005006
0.39476572246944114 13.528368570572306 236365.37750480362 6.545264952565569 0.20249026450771143
0.41099338830309756 13.44777913584416 197820.93139370362 6.8904684015923445 0.2054744908986721
0.42760342954385144 13.376976486864137 166047.80121702602 7.250533042299685 0.20848861642285835
0.4446015297034517 13.314833271662673 139765.12955549447 7.625713783007301 0.21152812225785464
0.4619821322161928 13.260521121993602 117946.95656187888 8.01696782660041 0.2145992963554861
0.4797514992163526 13.213089460703848 99791.3599244736 8.424996655273576 0.2177037263572127
0.4979113085509199 13.171916191479891 84621.09145057882 8.850235766064735 0.22083880172285444
0.5164521589862782 13.136337245918938 71921.71902739545 9.29356929070805 0.22400808230515476
0.535371596789807 13.105802411946922 61257.956082948265 9.755877325540819 0.22721441507000356
0.5546814720177483 13.079781686897265 52288.499534476796 10.23796713754492 0.23045911746787684
0.5743666778329638 13.057816480969983 44717.05144049733 10.740309915851428 0.23373888606488985
0.5944268868648909 13.03948828304724 38317.0190030562 11.26415842158242 0.23706000643615835
0.6148662658435733 13.024472900451366 32613.768180605144 11.810445800307612 0.2404240321234101
0.635674000595582 13.012420658964395 28282.309799760555 12.380151480021507 0.2438325968357779
0.656846407254451 13.003008065659015 24362.346655604866 12.973953845276464 0.24728352960052075
0.6783816782933134 12.99596434950327 21022.761130840383 13.593201197174892 0.2507818546275564
0.7002713708587557 12.991058267356726 18165.31945777468 14.239081594612411 0.25433009405764995
0.7225089810190759 12.987996501687595 15724.32482580836 14.912785277190626 0.2579302335660395
0.7451002507353337 12.986638133913525 13628.428280707707 15.61532682300497 0.2615820159694855
0.7680235286824637 12.986758645330147 11831.40127970282 16.348003059371006 0.26528763992251836
0.7912717650971528 12.988144605188792 10285.75278776977 17.11241618979276 0.2690516496774164
0.8148480766284633 12.990684944100888 8952.382694451046 17.91002198664551 0.27287647924400993
0.8387339148823663 12.994151100121787 7804.278541575439 18.74216338233039 0.27676300622205013
0.8629169104461619 12.9984215992763 6810.931442781096 19.61023031880982 0.28071211490742554
0.8874028514152312 13.003367356258654 5952.651041550075 20.516287889084442 0.28472997064410116
0.9121618306847311 13.008869887567608 5208.824117004225 21.462131180047837 0.2888195886852162
0.9371849645360514 13.014757305011894 4563.085030242903 22.44921570359879 0.29298065715427823
0.9624722181012791 13.020979304255857 4002.6086901054987 23.479625219610995 0.29721743980892357
0.9879956928244548 13.027354255692147 3514.9075893113068 24.555755490816434 0.3015358125803497
1.0137404762058888 13.033813122661808 3090.7354511710732 25.67951473718363 0.30593714992905474
1.03970857126478 13.040272098746028 2720.1211803366605 26.852933940043755 0.31042322388925453
1.0658620303570634 13.046594867933347 2397.0037099277897 28.079078183447447 0.3150025223947148
1.0921966151115028 13.05273181738868 2114.7003281601806 29.359961376365927 0.3196752039103046
1.118698477916322 13.05855742000802 1867.4411454848669 30.69842355405378 0.32444652627307213
1.145332038046108 13.06401159761207 1651.218213464676 32.09777955264397 0.32932396875316294
1.1720982843960042 13.06902888444838 1461.2497331233867 33.560061946256326 0.33430581933481646
1.198956797078932 13.073480087047075 1294.7255837363246 35.0897717786194 0.3394053608874723
1.225905877967133 13.07734428179654 1148.434812857307 36.68888010185083 0.34461903161827334
1.2529042603890437 13.080511327605691 1019.6088942240401 38.36249139097524 0.34996158829221213
1.2799486432869496 13.082945111016363 906.2105114108042 40.112904973044785 0.35542994351995666
1.307001425114641 13.084548857445213 806.3216773986986 41.94548288215849 0.36103801396990903
1.334035282309153 13.085242452067423 718.1199518772978 43.86382582415934 0.36678838073296105
1.3610447470005347 13.08502926985265 640.2560860584141 45.87250847765494 0.3726881577068492
1.3879847575481135 13.08378139724179 571.456044866473 47.976924283796926 0.37874762776119597
1.414829752869897 13.08145879535711 510.55224381779374 50.18190038431502 0.3849727915316605
1.4415622226864089 13.0780096152065 456.60506148108266 52.49252829297698 0.3913699450652426
1.4681574543834859 13.073408918128527 408.7648972098847 54.91529255124468 0.3979511235647344
1.494568171231857 13.067534497914934 366.30684695928625 57.45638695473961 0.40472539464061
1.5207812792351336 13.060380352427488 328.6531886976293 60.122443759884995 0.4117025365317558
1.5467656026025824 13.051886652051712 295.10712491291275 62.920573158232145 0.4188930966258529
1.5724827864351798 13.041998122159502 265.29714490097797 65.85840653075371 0.42630845475893525
1.5978971008274907 13.030654007500747 238.76909295719594 68.94414386592173 0.4339608918535337
1.6230052464745066 13.017841985465745 215.09016468779177 72.1866057730978 0.4418636645233131
1.6477477123258932 13.00347917436228 193.95944278568913 75.59529057687449 0.4500310863480284
1.6720974895925647 12.987535955635071 175.13574607824083 79.18002976423091 0.45847691595206974
1.696031049868997 12.969974973649212 158.2510469026517 82.9512457530253 0.46721537534512403
1.7195123268063264 12.950753134460387 143.1893779008014 86.92157616984571 0.47626756606962156
1.7424945754407564 12.929804181029562 129.6961178042402 91.10248824815379 0.4856473682676744
1.764975423882373 12.907141515549531 117.60073147282787 95.50831778005768 0.49537766001000944
1.7868864110422582 12.882665047438591 106.75968729514287 100.15250131398618 0.5054750254715228
1.808237419964002 12.856423126324923 97.0225414468972 105.05169676774051 0.515965659161335
1.8289416926203366 12.82826839467008 88.27557439753669 110.22245887641282 0.5268721181597824
1.8490224404669477 12.798292829983948 80.4160278332037 115.68258191261589 0.538218341538171
1.868393952592921 12.76634248571115 73.33861926552476 121.45200186388534 0.5500326157356565
1.8870699988588993 12.732508564368871 66.96329221821202 127.55216075753977 0.5623447898351004
1.9049910397659753 12.696676074724452 61.217515993819845 134.0057784732745 0.5751851226029003
1.922129578827915 12.658842243999144 56.037255954539035 140.8384530823415 0.588589551763863
1.9384391047689715 12.618935986733437 51.35913482358935 148.07787874795983 0.6025963488646415
1.953932008656456 12.577077027224483 47.13467541240509 155.7524159297762 0.6172407507326856
1.9685443422590927 12.533133579099978 43.3139675083534 163.89589544226092 0.6325709349289081
1.9822540456628432 12.487114829264218 39.853863477519134 172.54230672351977 0.6486291218770807
1.995036999447412 12.439015942692665 36.72206543066167 181.73061701755077 0.6654673177018776
2.006869897154765 12.388839064988222 33.88298304719422 191.50304764733792 0.6831405955008693
2.0177104993070647 12.336547234056454 31.30881962527399 201.90567782460596 0.7017082476637272
2.027541305926756 12.282149999691413 28.973867175506467 212.9882975434101 0.7212323283873665
2.0363435064937643 12.225659954388497 26.85333702391571 224.80686012722356 0.7417845880465174
2.044081206369206 12.167047279781238 24.927299916798543 237.42216856440186 0.7634408538282805
2.050733569237263 12.10631984825919 23.173960075787015 250.9013672336255 0.7862844901977303
2.0562990831221213 12.043551967353224 21.581453827248932 265.31780105102706 0.8104042957653756
2.0607383434039437 11.978682954331067 20.13116222966811 280.75281620496526 0.8358984975870006
2.0640355840626183 11.911766349070822 18.810645146997768 297.2967161720418 0.8628757291154143
2.0661847668532967 11.842841785055096 17.609492685676017 315.0498495214137 0.8914561503246287
2.06717206534544 11.771936423336278 16.514379993576544 334.1214745609034 0.9217648627721082
