M[M_sun], R[km], Lambda[1], P_c[MeV/fm^3], rho_c[fm^-3]
0.24162668629717493 15.618656898711224 2160425.4255784233 3.5677272577965504 0.1711233750220791
0.25364507924093305 15.277240298047118 1723198.5472674835 3.784841384473175 0.17388844451124938
0.2660419572049242 14.981243382110145 1383005.0604989405 4.011447269214406 0.1766672144035856
0.2788180919087757 14.723479793699386 1116551.4869047317 4.247800327412484 0.17945835061841245
0.2919742928843821 14.498334667348157 905803.4307272566 4.494526032226033 0.18226842464845652
0.30551106199094613 14.301157049631492 738593.8549410119 4.751780936784749 0.18509316131601847
0.319429062573985 14.128069139362093 605023.5182183066 5.020245826931161 0.18793914639764525
0.333727169282986 13.975922894691458 497655.5242869843 5.300146779535651 0.19080304237530435
0.3484116386824673 13.841937636862701 410951.64239430486 5.59221015476889 0.1936911000618096
0.3634764494117219 13.723875105745815 340622.5202679996 5.896606104780875 0.1965984353825448
0.3789312158133928 13.619918204096214 283256.3054124806 6.21419757652066 0.19953270503084547
0.39476429237462135 13.528417436461545 236362.1892577604 6.545239323176295 0.2024900397725911
0.41099210443647816 13.44778693169093 197821.7796360684 6.890439138792957 0.20547424168439285
0.4276022775094515 13.37697288555585 166046.77800473224 7.250499871431927 0.20848834200877034
0.4445991314433013 13.314851478752264 139767.44508042614 7.625676795719887 0.21152782781526408
0.46198002725981074 13.26050000989608 117944.9526070351 8.016926377657692 0.21459897571440414
0.4797467722796623 13.213131939381006 99782.52528233163 8.424950421391669 0.2177033787430545
0.49790842237188376 13.171928321351306 84621.04668121973 8.850184917688685 0.220838433558886
0.5164493806962813 13.13634478678021 71919.33710478712 9.293513004835852 0.22400768604910548
0.5353699132839624 13.105805073722085 61260.10837493741 9.755815220454174 0.22721398986570623
0.5546789588397341 13.079776661189065 52290.64058766578 10.237899472852941 0.23045867096639955
0.5743638324499495 13.057825141918311 44716.24361848098 10.740235659379183 0.23373840931533624
0.594423605041801 13.039491154554492 38317.45335304814 11.26407712097843 0.23705949846851337
0.614862810931555 13.024479986900756 32891.28021868866 11.81035697517694 0.24042349191841417
0.6356699765067665 13.012431639008263 28283.269427801206 12.380054619994068 0.24383202332036813
0.6568426592068407 13.002997944804497 24362.8576195486 12.973849395156062 0.24728293260646433
0.6783767322157549 12.995971632096229 21020.895902620017 13.593087673508814 0.2507812225581985
0.7002685155069208 12.99104289537244 18166.822897870312 14.238958388563168 0.2543294256588197
0.7225046735961734 12.988004254109027 15724.428429224105 14.912651740795804 0.2579295275087832
0.7450957648249887 12.986651362444702 13629.085132074859 15.615183569770533 0.2615812837539747
0.7680187535212577 12.986763804403674 11831.996183696247 16.347848149016688 0.26528686773325494
0.791267346501454 12.988142173912257 10286.405055007182 17.11224884466985 0.2690508359347515
0.8148458353215479 12.990661714934747 8952.953767772391 17.909841377540292 0.27287562226671985
0.8387295675650405 12.994149560003114 7804.876172394559 18.741970310387277 0.2767621191563696
0.8629120599046495 12.998428549001476 6811.3230842527755 19.61002227316548 0.28071118153782687
0.8873967493944027 13.003366098969307 5952.83939409152 20.516063868175628 0.28472898894974374
0.9121547041331834 13.00886245924988 5208.930459905436 21.461890113716503 0.2888185565089951
0.9371797230577708 13.014758238125772 4563.34328790339 22.448958596155652 0.2929795892763342
0.9624661040821787 13.020961122910359 4002.7934998810506 23.47934884391151 0.2972163173650887
0.987988375374852 13.027362552606919 3514.955504645231 24.555458545661455 0.3015346329582155
1.0137333622312674 13.033811276251754 3090.482242076022 25.679198372162187 0.30593592901550853
1.039702291802475 13.04026566693962 2720.228253215268 26.852594286738327 0.31042194074022783
1.065854600590206 13.046599645875167 2397.0517728278796 28.07871365154993 0.3150011738327153
1.0921907729209475 13.052732339855014 2114.630421679534 29.359573258037386 0.3196738069226277
1.1186907726593762 13.058557428709852 1867.5207505408628 30.698007214563003 0.3244450576085403
1.1453235641843613 13.06401217658698 1651.2589672437273 32.09733635105704 0.32932244595616383
1.1720906185130866 13.069024902231604 1461.3532761359993 33.55958668272493 0.3343042176477139
1.1989483739835012 13.073478531376441 1294.780469094601 35.089262209420774 0.339403675880277
1.2258965869068021 13.077343649434539 1148.4703214212814 36.688337705977816 0.34461728193314806
1.2528949681945112 13.080506775208258 1019.6557805113241 38.3619139667492 0.34995977003868006
1.2799393538303725 13.082942701668932 906.247224179059 40.11228595589215 0.3554280284876867
1.3069922614994325 13.084551715370338 806.3671060965215 41.944823753033525 0.3610360213227067
1.3340256571641087 13.085242527712738 718.1512345577303 43.86311919134224 0.36678628025478505
1.3610363839791946 13.085028217928608 640.2942899051061 45.87175582207827 0.3726859690866728
1.3879749709723328 13.083783138840294 571.4689623194663 47.97612238987564 0.378745345312239
1.4148193497668557 13.081457254887388 510.58833856495187 50.181040456789894 0.38497038191996913
1.4415516868241256 13.078014821588903 456.6256023026409 52.491611697258904 0.3913674284368195
1.4681470529938603 13.073410057560752 408.78063739805003 54.914315227732025 0.3979484927856061
1.4945582751430035 13.067536975547084 366.32780054355067 57.45534451494772 0.4047226420252256
1.5207706045343785 13.060383439602173 328.67025684169647 60.12133145699538 0.4116996537976813
1.5467549204575015 13.051890386587482 295.121406721902 62.919385854702114 0.41889007484397417
1.5724719441056867 13.04200444277789 265.30779255365013 65.85713866266047 0.42630528429869075
1.5978855371032834 13.030661770217288 238.77843972802356 68.94278940367161 0.4339575623226331
1.6229952961838991 13.017847185090679 215.10309187437906 72.18515817809052 0.4418601647013447
1.6477368989012553 13.00348774048004 193.97370172571664 75.5937427536571 0.4500274041132751
1.6720851941004584 12.987545242774443 175.13751642195106 79.17838209233045 0.4584730719523766
1.696021691471981 12.969982721082541 158.26487974899587 82.94948215219836 0.46721132259556014
1.7195014450135553 12.95076268902307 143.19592502971776 86.91968755892206 0.47626328929509376
1.7424831275622654 12.929815670464684 129.70037775336266 91.10047384111118 0.4856428869534812
1.764964556179925 12.907153170518448 117.60432245331502 95.50615816552545 0.49537292133350724
1.786876041345838 12.882676172296623 106.76188032109411 100.15019461134497 0.5054700477072965
1.8082270071895548 12.856436203067494 97.02724221319474 105.04923101221488 0.5159604231243078
1.8289392073815054 12.828299940171801 88.2803121096878 110.2198210171338 0.526866603097721
1.8490119232727869 12.798307642373102 80.41468476864448 115.6797469211049 0.5382124854239897
1.8683857504388344 12.766358100444313 73.34338288097811 121.44896458093346 0.5500264329406066
1.887060751837033 12.732527385103303 66.96839396383291 127.54891567703218 0.5623382950633896
1.9049819179808005 12.696695350541937 61.22101620120039 134.00229580227523 0.575178246728988
1.9221215823761482 12.658862890628043 56.04132807397988 140.8347123926969 0.5885822634779229
1.9384308886532597 12.618959143800573 51.36132848740807 148.0738576314597 0.6025886140469905
1.9539239618928625 12.577100138562875 47.136234221841505 155.7481030241449 0.6172325773447864
1.9685358455907023 12.533161284163297 43.31654735810895 163.89126460332946 0.6325622844832992
1.9822461878541573 12.487141032324518 39.85603381694886 172.53731529764278 0.64861990575495
1.9947438899428767 12.439726001801644 36.77889195768753 181.84545905440422 0.9178186667029636
1.997054337857923 12.398508411040215 35.29557188491382 194.1214333429299 1.8499787780316175
