M[M_sun], R[km], Lambda[1], P_c[MeV/fm^3], rho_c[fm^-3]
0.24162668629717493 15.618656898711224 2160425.4255784233 3.5677272577965504 0.1711233750220791
0.25364585569531933 15.27723475249742 1722969.9937542628 3.7848629499991597 0.17388871331512723
0.266043959545514 14.98118814886628 1383009.4636518594 4.011492604857685 0.17666776225807934
0.27882168493926923 14.72343772384672 1116281.7842777334 4.247870967569746 0.17945916993778424
0.29197973865284743 14.498244845320373 905706.2876503657 4.49462383119131 0.18226951366263283
0.3055178014760332 14.301056968924659 738480.473145776 4.751909216028856 0.18509454697667943
0.31943808151271336 14.127944886264268 604969.399875853 5.020405532064517 0.18794080340004435
0.33373967736280896 13.97572878877434 497550.65669674665 5.300342116026928 0.19080500908964967
0.34842322776357887 13.841840002731523 410890.41778368835 5.5924416110161665 0.1936933394646734
0.3634890921277549 13.723788567451747 340517.9929105542 5.89687888179951 0.19660099736202957
0.37894554483754994 13.619845528493588 283205.75724000455 6.214514976291518 0.19953559933458148
0.39478267204645895 13.5282754481723 236323.6052487454 6.545601016844981 0.20249321133744128
0.4110113284927967 13.447695742572009 197783.3579967056 6.890852110180578 0.20547775872202656
0.42762268839341133 13.376912711684096 166013.35408336422 7.250967996997939 0.20849221469160767
0.4446226863278739 13.31479131977235 139741.9619631764 7.626198782247632 0.21153198316366117
0.46200655366618953 13.26041700504107 117924.01155750972 8.017511331610555 0.2146035008061445
0.4797778828064267 13.213021326903677 99762.03683649993 8.42560290557282 0.21770828451194063
0.4979388949312701 13.17186525145603 83722.3198822975 8.850902526808898 0.22084362935552712
0.5164825759344355 13.136289349680725 71898.3719989661 9.294307354376341 0.22401327831939244
0.5354057908953551 13.10575931066672 61245.72211248322 9.756691698015311 0.2272199906950364
0.5547176817161572 13.079715114324559 52274.00095522872 10.238854414716124 0.23046497237619182
0.5744046238741664 13.05777655078913 44702.240672694665 10.741283633370116 0.23374513763297977
0.5944670438295951 13.039463075159862 38302.08044622151 11.265224511687881 0.23706666738642956
0.614910281320369 13.024437415028963 32880.43071102095 11.811610563031739 0.24043111582413648
0.6357185747901178 13.012388054571241 28272.88478411243 12.381421608527866 0.24384011736091135
0.6568943081455492 13.002979548251282 24353.692857096794 12.975323506796995 0.24729135802411598
0.6784316709014524 12.995949095813321 21012.227464034993 13.594689845721478 0.250790143023831
0.7003267902080765 12.991041951817042 18159.281708936916 14.240697214771478 0.2543388588758632
0.722567165146955 12.987993061339395 15718.02310649786 14.914536366685745 0.2579394922362784
0.7451599517435972 12.986637531480161 13623.715296850936 15.617205336602527 0.2615916176849289
0.7680861173102354 12.986760116383232 11827.4967831733 16.350034442390236 0.26529776585738074
0.7913383697581831 12.988149911663657 10281.571717600289 17.114610640848092 0.269062320549795
0.8149170167179891 12.990691716940853 8948.811418588108 17.912390380653612 0.2728877171042301
0.838805268276432 12.994162756818106 7800.943448014265 18.744695213163464 0.2767746386747236
0.862993525332341 12.99843097034454 6808.324644622767 19.612958515176736 0.28072435460394046
0.8874812274028255 13.003393284981492 5950.199650381593 20.519225586371896 0.284742844089112
0.9122433646163264 13.008879794603976 5206.489615259194 21.46529241331845 0.28883312417062895
0.9372693834456979 13.014783768752762 4561.5353739051525 22.45258730208304 0.29299466085488474
0.9625592785014334 13.020995136325862 4000.8164834746035 23.483249506505754 0.2972321591148837
0.9880851513672733 13.027376162096557 3513.275309467716 24.55964953148112 0.30155128175532264
1.0110155545783646 13.03195663777203 3129.930495045617 25.773350046232085 0.6652202993859162
1.0119985131602205 13.012918694658682 3074.193429111315 27.651273559990408 1.4388791862943136
