M[M_sun], R[km], Lambda[1], P_c[MeV/fm^3], rho_c[fm^-3]
0.24162668629717493 15.618656898711224 2160425.4255784233 3.5677272577965504 0.1711233750220791
0.25364019691664835 15.277392055712879 1723188.2692075172 3.7847668600097544 0.17388751559976465
0.26603362584635915 14.981402881841785 1383135.872713976 4.011290604654527 0.17666532120483655
0.27880530037592677 14.723714644762387 1116586.0965914393 4.247556223307689 0.17945551937865387
0.29195689458141894 14.498628923542524 906117.0483423953 4.494188083882824 0.18226466151522117
0.30548844337299635 14.301455201957708 725645.6277660116 4.751337670206461 0.18508837319098595
0.31940045220769714 14.128387654975818 605208.9041629715 5.0196939777390845 0.18793342074928324
0.3336949875558435 13.976176966880436 497820.8246131021 5.299471820152984 0.19079624665428105
0.348371761389266 13.842226241388909 411134.3078896358 5.591410400849741 0.1936833622226371
0.36342933656536797 13.72422921585374 340789.3221092694 5.895663590074416 0.19658958308496435
0.3788773855884702 13.620275517287737 283424.7511177994 6.213100896564506 0.19952270463013397
0.3947055762411633 13.528698414105742 236514.48710938057 6.54398961746116 0.2024790815417391
0.4109265617489255 13.448077130889054 195477.04077802115 6.889012283630157 0.2054620899870699
0.42752763981192754 13.377282404700324 166173.82638154592 7.248882478993553 0.20847496173562985
0.44451798251458574 13.315127206994887 139890.94145072016 7.623873337097838 0.21151347112501248
0.4618938147775352 13.260753784430596 118053.20611933315 8.014905398652989 0.21458334180791142
0.4796521372108153 13.213339461214327 99875.85817182557 8.422696164670713 0.21768642988390602
0.49780274917630357 13.172156845862428 84704.15807019967 8.847705695689394 0.22082048293232107
0.5163366204350587 13.136533629104362 71991.28169546132 9.290768699248508 0.22398836596668306
0.5352477682495604 13.105972697682278 61321.42772936491 9.752787226540173 0.22719325861656042
0.5545482387264911 13.079941042318623 52344.0516361917 10.234570035581221 0.23043651048656197
0.5742218988056289 13.057969748164183 44766.128918401846 10.736615293861432 0.2337151654472634
0.5942724591105946 13.039611536373625 38359.3054709851 11.260113366948886 0.2370347328616075
0.6147033304894444 13.024577179088862 32930.47054898239 11.80602641973397 0.24039715491594868
0.635498065742813 13.012502726048622 28319.96535991284 12.375332389694996 0.24380406264436383
0.656662307787817 13.003070136587992 24393.348004211843 12.968757175027417 0.24725382756437211
0.6781874674839495 12.996014637616948 21047.917179938486 13.587553159604708 0.2507504078675655
0.7000670638496599 12.991078410437499 18054.24877071858 14.232951909695105 0.2542968402178142
0.7222919198855217 12.988021236695788 15745.587780847794 14.906141719511112 0.25789510657227993
0.7448734911042205 12.986655268265928 13648.501639747024 15.608199912337353 0.26154558792961935
0.7677848755646428 12.986753649216844 11848.018851513594 16.340296291675 0.26524922361847786
0.791022719071481 12.98811309886408 10231.790718445642 17.104090891406795 0.269011166570548
0.8145869221523209 12.990649938918104 8966.803432367764 17.901036920100317 0.27283384574571606
0.8384614518364042 12.99409893138629 7815.6611554398505 18.732558397941432 0.27671887628853525
0.8626346204952953 12.998358282592395 6822.262655054096 19.599880541474224 0.2806656819837837
0.8871013673255249 13.003300212710197 5962.323411888799 20.505143512251227 0.2846811342568551
0.9118531503796501 13.008799007644125 5217.107982132155 21.45013898681295 0.28876824158656755
0.93686473916703 13.014691360379302 4570.7324894620115 22.436425645674092 0.29292753453521375
0.9621350245098532 13.020875765772102 4009.2999429076726 23.46587680917594 0.29716160342909603
0.9876513234675145 13.027267389965685 3520.9012296330748 24.54098402446451 0.30147713255687786
1.0133902018878551 13.033735961075713 3096.0936358616786 25.663777388716845 0.3058764164704792
1.0393400084085942 13.040183190975968 2724.9956762638685 26.836038340649957 0.31035939535712764
1.0654854813176136 13.046515021897525 2401.44208619209 28.060945256961187 0.3149354408148414
1.0918058510018522 13.052638445969626 2118.6329921709876 29.340655383233422 0.31960571418896777
1.1182963507351116 13.058476927698882 1871.098210294025 30.677714030375927 0.32437347208635486
1.144919903587486 13.063938983978861 1654.2588441956036 32.075721996434076 0.32924814450519974
1.1716741655093292 13.06895520126889 1464.183928510023 33.53642197590966 0.33422615019736523
1.198521465000664 13.073413027394801 1297.2392643295716 35.06442574943434 0.3393215484402814
1.225461004419868 13.07728821495112 1150.6750040548986 36.66190155794928 0.3445320030118358
1.2524497791072744 13.08045849974513 1021.6411134605668 38.333635137409274 0.34987035381954
1.2794845042895904 13.082909390138497 908.0598189602655 40.08211606907226 0.3553346929369739
1.3065204337236627 13.084506187434226 808.0036429081149 41.91269923995686 0.3609389040528335
1.3335509119815117 13.085229501845124 719.6092527598266 43.82867994174817 0.3666839089943231
1.3605533936440823 13.085040166019873 641.5956783719662 45.8350739878298 0.37257930329552874
1.3874789024544196 13.083797464799243 572.6812152888637 47.937041317653 0.37863410796504876
1.4143302084517941 13.081525304136862 511.6071985540388 50.13913168424362 0.38485294892085226
1.4410551747056273 13.078107769725161 457.57000816957077 52.4469417435477 0.3912447814803139
1.4676377282215598 13.073508680028684 409.64384143926264 54.86668633309234 0.397820284367106
1.494043121407483 13.06766210974952 367.1235829407321 57.404542902478774 0.4045884977790802
1.5202517761324494 13.060538680200766 329.35896952760055 60.0671258987672 0.41155917029162215
1.5462320618773 13.052077964816268 295.76575717570074 62.8615260948026 0.418742817154975
1.571946340523381 13.042219244833557 265.88716888799274 65.7953536812553 0.42615078334682027
1.5973634643708086 13.030909060815892 239.29176374795415 68.87678550420729 0.43379531193669146
1.6224550148603363 13.018121096770644 215.59115223658995 72.11461687757752 0.44168961838695797
1.6472069014946547 13.003814817650118 194.41883175263058 75.51831845348231 0.4498479714905881
1.6715562219486997 12.987912039046725 175.51677130595118 79.09809325657206 0.4582857590171162
1.6954954379015976 12.970396942113169 158.6361473934764 82.8635455965799 0.4670138406410368
1.7189679609915292 12.951209809811823 143.5188262569141 86.82766099588244 0.47605489440773946
1.7419737584388344 12.930335015890401 130.00158880235296 91.0023189618556 0.4854245284766498
1.7644539474887142 12.90770833295266 117.87773279758513 95.40092961220353 0.49514202639112476
1.7863807199287725 12.883303544801349 107.00660901457644 100.03780076473332 0.5052275066623776
1.807722800644387 12.857085980542061 97.24307313987761 104.92908917014218 0.5157053016708393
1.8284495823120908 12.829020036517742 88.48265164526714 110.09102210789979 0.5265968726236707
1.8485276183089874 12.799068546269375 80.59997189454835 115.541619132336 0.5379271610766286
1.8679214588423134 12.76720962572432 73.50703553661182 121.30098314602752 0.549725196968284
1.8866004676657886 12.733408372945304 67.11754514082808 127.3903801509511 0.5620203193298379
1.904533320531169 12.697634917525031 61.36016659871606 133.83261994993723 0.5748432539125883
1.9216863546845695 12.659873483983217 56.16739214331381 140.65246924856532 0.5882271845295894
1.9380193239418397 12.620059944134365 51.479385973009315 147.87795609163388 0.6022117876884262
1.9535158418726042 12.578217198923697 47.24437943979716 155.53798976044982 0.61683439167745
1.9681530023888938 12.5343669712197 43.41069124343986 163.6653379583012 0.6321397529917016
1.9818865000310057 12.488425819665672 39.94569852057974 172.29415594875934 0.6481709386037299
1.9946896298059453 12.44040412426017 36.80504045413914 181.4636448877898 0.6649810242657398
2.006539573737819 12.390291443046852 33.96003675037963 191.21552088669782 0.6826237051949017
2.017411026037087 12.338087838850122 31.379859166466726 201.59568445344163 0.7011580400082351
2.0272665326678427 12.28376460776525 29.039653056734487 212.65450763249692 0.7206483829082398
2.03609825564993 12.227360446925253 26.913315959190996 224.44618496706383 0.7411611524457236
2.0438654922285258 12.168831360091113 24.98182677573718 237.0328514090803 0.7627770323151742
2.0505483767801937 12.108192459037829 23.22334634316149 250.48006653752145 0.7855747677962227
2.0561396085684334 12.045481263178749 21.627365097725264 264.86167878958196 0.809645422816218
2.060617021773116 11.980720617152533 20.174307911537475 280.25910659659854 0.835088169764902
2.0639553646985687 11.913904942023368 18.84996694062663 296.7614366056293 0.8620084803058365
2.066137889092056 11.845057440134523 17.64531648308327 314.4683772694915 0.8905253276160909
2.067158387238757 11.774235152378044 16.548442732497335 333.4899754721099 0.9207674604051502
