M[M_sun], R[km], Lambda[1], P_c[MeV/fm^3], rho_c[fm^-3]
0.24162668629717493 15.618656898711224 2160425.4255784233 3.5677272577965504 0.1711233750220791
0.2536442791599996 15.277266254892657 1723193.4576927284 3.7848240636683204 0.17388822861577272
0.26604029721565703 14.98123986473066 1382990.2334674257 4.01141085720632 0.17666677438595677
0.27881484961001496 14.72351006176212 1116426.753768496 4.247743592100435 0.17945769257429098
0.29197055652654635 14.498394993936238 905824.4357981463 4.494447484598773 0.18226755000239703
0.30550576964399345 14.301227797744678 738633.2862413465 4.751677909517382 0.1850920484249004
0.319422131366228 14.128139988708398 605097.7325713227 5.0201175608555175 0.1879378155876043
0.33372173349840273 13.975930658052711 489691.7499802561 5.299989897444899 0.19080146283296495
0.3484023123775033 13.842016582539628 411000.04225606145 5.592024264717803 0.19368930152442873
0.3634658225500518 13.723960866997603 340634.1534904216 5.896387030124432 0.19659637778701033
0.3789189226836047 13.619988825301515 279379.1792864569 6.213942665793082 0.19953038055194244
0.3947517245877747 13.528443344150219 236410.78795703253 6.544948840791842 0.20248749263450194
0.41097729288701695 13.44787771195931 197864.94914660233 6.890107476532715 0.20547141710940797
0.42758533331293275 13.37706253899057 166076.9400467627 7.250123916601752 0.20848523183080928
0.4445802757226013 13.314936393255085 139801.90623347755 7.6252575871909825 0.2115244906458238
0.4619619238531521 13.260561135866407 117978.75013887245 8.016456602813445 0.21459534162618724
0.4797265963186361 13.213145840563925 99809.61496815927 8.424426416503655 0.21769943895884206
0.49788415418214255 13.171977438385916 84640.3531334512 8.849608614655661 0.22083426087869157
0.5164229390743466 13.136392992668085 71936.4847256821 9.292875076468961 0.22400319499363236
0.5353415953224212 13.105845616079135 61274.92989985419 9.755111340841447 0.22720917073329233
0.5546451352353425 13.079851698836679 52297.21993027614 10.237127033299718 0.2304535390938791
0.574330836713875 13.057852357133434 44728.33130221488 10.739394064433966 0.23373300601509447
0.5943892129406388 13.039516205657382 38327.660333025065 11.263155693216827 0.23705374137118446
0.6148257699945606 13.024498466848318 32900.27928894881 11.80935027048514 0.24041736947423833
0.6356307843136576 13.012452406809546 28291.677745385776 12.378956854581352 0.243825523369902
0.6568008550691117 13.003025896145616 24369.91225040786 12.97266561018496 0.24727616657700338
0.6783330559230517 12.995980884824899 21027.43085803833 13.59180105732986 0.2507740590240192
0.7002200224715684 12.991056719267991 18035.2449276712 14.237562041567575 0.25432185040821986
0.722455663166755 12.987995708053635 15728.715989861605 14.911138320020946 0.25792152548265823
0.7450440178412737 12.986653690933345 13633.581955773154 15.613560028166441 0.2615729852862323
0.7679644409558912 12.986762767182599 11835.846434165955 16.346092498156985 0.26527811625405173
0.791210465939157 12.988142954598528 10288.672806733588 17.110352272022357 0.26904161354420014
0.8147862138550491 12.990663892045395 8956.272122097862 17.90779448625922 0.2728659099139509
0.8386672551371618 12.994133925730107 7807.191876830253 18.73978217973569 0.2767520658281948
0.8628491382947089 12.998403029632136 6814.295563316002 19.607664448993074 0.2807006034677672
0.8873295518649843 13.003364164968259 5919.20648623935 20.513525000646805 0.28471786323857484
0.9120850303050758 13.008848437408389 5210.9746885321665 21.459158075714903 0.2888068587134349
0.9371043942408869 13.014744671466964 4564.892280876823 22.446044769144326 0.2929674868978107
0.9623895342536963 13.020953367746309 4004.4660906185536 23.476216657163743 0.29720359662404267
0.9879104947071963 13.027334762526756 3516.411891025587 24.55209325404322 0.30152126425219516
1.01365214606601 13.033794173516057 3091.698912185958 25.67561300330774 0.3059220923865961
1.0396169496210297 13.040248490525762 2721.2906374874988 26.848745003442716 0.3104073988410757
1.0657690107856295 13.046576701263893 2398.2240807055878 28.074582432707366 0.31498589065782506
1.092101748688075 13.052697127068834 2115.70846191136 29.355174746736182 0.3196579749826431
1.118598454550808 13.058537852341262 1868.498774358346 30.693288890375825 0.3244284134142303
1.1452285965069848 13.063996527294837 1651.9849446685946 32.09231361509408 0.3293051883301147
1.171992939987522 13.069011373040581 1461.9814314684836 33.55420061122576 0.3342860660314345
1.198849425077934 13.073469740687964 1295.4238321687792 35.083487377388636 0.33938458007630723
1.22579557627589 13.07732989854785 1149.0176013687858 36.68219087328499 0.34459745320239027
1.2527908271093713 13.080492893252208 1020.100359444791 38.35537018467017 0.34993916429624294
1.2798336146613354 13.082939927639108 906.6283002967288 40.105270837229284 0.35540632605414346
1.306877893543048 13.084520207207689 806.6896125693705 41.9373540796159 0.3610134393683146
1.3339156278295639 13.085230577460976 718.5354491177799 43.85511120388363 0.3667624763746319
1.3609234320764036 13.085035499747434 640.5709346540182 45.86322630198258 0.3726611664008822
1.387854070419674 13.083773700442283 571.7714106265391 47.96703489995156 0.3787194793824095
1.414711489040254 13.081485630911144 510.7943167609617 50.17129533502031 0.3849430750148361
1.4414341552883276 13.078032231185228 456.83857934421883 52.48122441574027 0.39133890885354744
1.4680292248652436 13.073434741453255 408.9803661936691 54.90323978601445 0.3979186796883772
1.494438226895024 13.067565657614406 366.5067662746847 57.443531186153635 0.4046914483286374
1.5206503495397365 13.060418966129431 328.81858244895835 60.10872645414927 0.4116669856534616
1.546633952139375 13.051933463932142 295.27843656710957 62.90593096376201 0.41885583107682034
1.5723508116352527 13.042053245403787 265.4464800836766 65.84277083854495 0.4262693557857792
1.5977742474059093 13.030723851807954 238.90468718557108 68.92744032511952 0.43391983131069084
1.6228611774273123 13.01790071329729 215.2193140782813 72.16875375668599 0.4418205040544635
1.6476135442698352 13.00356421645549 194.08457138675797 75.57620259176589 0.44998567648380816
1.671961666501533 12.987628764171442 175.2176689421147 79.15971048908398 0.4584295113156196
1.6958990746552496 12.970077663757506 158.3478983506263 82.92949690663156 0.4671653965594541
1.7193804304835847 12.950868942218962 143.27132038253404 86.89828577520262 0.4762148247848471
1.742360314116313 12.929923657036529 129.76666898715771 91.07764661154768 0.48559210477010356
1.7648445039081246 12.907280028724083 117.67093444329849 95.48168554896704 0.4953192229483083
1.7867712630696075 12.88284398526454 106.81234049542023 100.12405529760389 0.5054136402022652
1.8081099154343636 12.856587957797643 97.08216103210812 105.0212894338679 0.5159010891241202
1.8288199321395318 12.828453200213424 88.32438610518894 110.18992930165909 0.5268041074720917
1.8488990138055068 12.798488454218424 80.46068496319906 115.64762148962141 0.538146125368179
1.868276623237342 12.766549508564095 73.38190905380245 121.41454697597817 0.5499563713095628
1.8869552460443286 12.732729903465147 67.00462614191585 127.51214283008902 0.5622646960553062
1.9048788026244852 12.69691374054587 61.251540581930826 133.96283151407195 0.575100331970522
1.9220202631799883 12.659097329023265 56.070254009856434 140.79232453169655 0.5884996758054053
1.9383336764510635 12.619209670742707 51.38876281400045 148.0282923124854 0.6025009668889275
1.9538309420830637 12.577366570532018 47.15962483132136 155.69923150823777 0.6171399609300346
1.9684468430099984 12.533438815548424 43.33827087987432 163.83879067845083 0.6324642627555372
1.9821619170223288 12.487438589694282 39.87564519931542 172.48075571136087 0.6485154746629777
1.994952825837557 12.439363147621629 36.74363990494014 181.66439659274678 0.665346696279899
2.0067886514128017 12.389203167833966 33.90133170610448 191.43172769757732 0.6830123827718304
2.017636134291013 12.336930517608778 31.324709385797615 201.82878388038284 0.7015717684976933
2.027472573814919 12.28254550129913 28.990087429669103 212.90549959588182 0.7210874783318095
2.0362826435714814 12.226081752350137 26.86775294918203 224.71739163656662 0.7416299396304742
2.0440272431763526 12.167487653415504 24.93997554759684 237.32559358273087 0.7632761846130026
2.050688227268803 12.106782056644638 23.18667882491476 250.79698788369703 0.7861088595089021
2.05626032402618 12.044037987141776 21.59162602663248 265.2047165929294 0.8102162576510644
2.0607083748636548 11.979188875834721 20.140283629316446 280.6304195115708 0.8356977385222528
2.0640118711035544 11.912295367787154 18.819071541551057 297.16392360828723 0.8626605813682123
2.066175598051613 11.843394636760674 17.61752329763834 314.9055945131055 0.8912252264291036
2.067168454067875 11.772504846210222 16.523007051233755 333.9648054712378 0.92151741645962
