M[M_sun], R[km], Lambda[1], P_c[MeV/fm^3], rho_c[fm^-3]
0.24162668629717493 15.618656898711224 2160425.4255784233 3.5677272577965504 0.1711233750220791
0.2536443301038832 15.277316964100372 1723286.451132357 3.7848458933236215 0.17388850071189507
0.26604251986838007 14.981223710122496 1382900.1039053497 4.011456747813816 0.17666732894686557
0.27881946913705236 14.723429071297996 1116357.9599279643 4.247815096535345 0.17945852191798103
0.29197548103166904 14.49833620643518 905855.7523535867 4.4945464795274415 0.18226865233390327
0.30551428418454707 14.301075122924466 738560.4043323805 4.751807756663221 0.18509345102189245
0.31943057406622233 14.12804151283896 605021.7264381286 5.020279217055491 0.1879394928330726
0.3337304443040595 13.975834492051284 497592.00770920014 5.300187619114095 0.1908034535620942
0.3484140595262769 13.841917255796794 410936.16818558687 5.592258545877407 0.19369156825909642
0.3634795589900737 13.723854619666557 340610.853362659 5.896663134755602 0.19659897102013627
0.37893413178617025 13.619897097673803 283244.0452555609 6.214263935661791 0.19953331014631095
0.3947690474916794 13.528347814550708 236365.48457580613 6.545314942695111 0.20249070285361417
0.4109961283488862 13.447775673297084 197826.49821442514 6.890525478731872 0.20547497699154382
0.42760673387457815 13.376955425350092 166042.97592450088 7.250597742181155 0.20848915166839657
0.444604647220939 13.314844950766437 139767.61916571096 7.625785926875353 0.21152869656943268
0.4619861842261718 13.260476528551013 117945.16120456274 8.017048673005966 0.21459992176779458
0.4797552206466016 13.213082299630482 99780.79398290663 8.425086834796659 0.2177044043811576
0.4979155237800428 13.171904864877712 84615.28710018695 8.850334946255678 0.22083951982981329
0.5164571983261919 13.136325435312639 71914.70998300056 9.29367907686047 0.22400885520651218
0.5353766429305662 13.10579183367563 61255.45987499045 9.755998462215489 0.2272152444357997
0.5546877356530064 13.079759998944116 52287.34485635564 10.238099118374333 0.23045998837460208
0.5743732151096707 13.057801893385784 44715.767260875975 10.740454754133465 0.2337398159715258
0.5944323038778121 13.039488938921503 38314.39385222987 11.264316999653683 0.23706099723481727
0.6148729108621629 13.024467118757862 32890.12757915394 11.81061905520554 0.24042508580225894
0.6356809067155673 13.012412868042606 28281.570319266917 12.380340407252987 0.24383371548793445
0.6568536421013915 13.002992140624743 24360.702963899617 12.974157577242346 0.2472846940488935
0.6783885111906839 12.995959873322438 21019.25979765973 13.593422627421539 0.250783087491845
0.7002804105473166 12.991053143417762 18164.64244918913 14.239321910715766 0.25433139778423924
0.7225178916631805 12.987988611001875 15722.360890761767 14.913045743043298 0.25793161074718596
0.7451090828504634 12.986651029196624 13628.024866119913 15.615606241942785 0.26158344417374974
0.7680326490633471 12.986759259642257 11831.141242019927 16.3483052160192 0.2652891460976261
0.7912823975177942 12.988152012855263 10216.464396155674 17.112742601009188 0.2690532369046298
0.8148583241075056 12.990683034480325 8951.94371667999 17.910374269870232 0.27287815080272176
0.838745496169069 12.994144694024849 7804.005317315752 18.742539974895173 0.2767647364700311
0.8629290030443024 12.99842505607389 6810.776293229502 19.610636118313437 0.2807139354738739
0.8874147177648612 13.003370264746415 5952.369871033801 20.516724849151707 0.28473188547086764
0.9121735296166487 13.008864697858984 5208.563063659014 21.462601388105018 0.28882160197995094
0.9371971512926408 13.0147646526228 4536.482278673619 22.449717200682066 0.292982740087653
0.9624848969576418 13.020968936289433 4002.4590406473862 23.48016430049677 0.29721962917657724
0.9880083985912603 13.027356188067644 3515.023697472949 24.556334693600732 0.30153811347805126
1.0137544987836793 13.03381374973517 3090.4264938947745 25.680131819520625 0.30593953136863655
1.0397218264247508 13.04027578397557 2719.85627521102 26.853596447581925 0.31042572672343627
1.0658769283360345 13.0466017071318 2396.8575385085683 28.079789218222277 0.3150051528215286
1.0922125299806527 13.052734974695783 2114.5682778646446 29.360718417926098 0.3196779287950953
1.1187139008816431 13.058565185993556 1867.2700429329477 30.699235642830967 0.3244493909688557
1.1453492116882842 13.064015772714184 1651.0251381398004 32.0986440376773 0.3293269390385891
1.1721149647760873 13.069026015011303 1461.1912698448643 33.5609889703076 0.3343089435014494
1.1989743131845185 13.073481389871105 1294.6380109676268 35.09076571828741 0.33940864757649675
1.2259225612893834 13.07735451851667 1148.2505276653183 36.689938072237176 0.3446224444669694
1.2529228297073611 13.080513194417069 1019.5353640125032 38.363617686660696 0.3499651348893516
1.2799667105954682 13.082949181538194 906.1556357587203 40.114112398865394 0.3554336788920707
1.3070203734556296 13.084552243182053 806.2520207464477 41.94676854937917 0.3610419007366949
1.3340535455948406 13.085237012688502 718.0636782341751 43.86520415107838 0.3667924778333826
1.361064191151241 13.085027959075138 640.1983138837383 45.87397657557198 0.3726924267361659
1.3880046701254074 13.083782086003897 571.4182059473086 47.978488425045455 0.37875207981210507
1.4148494778995573 13.08145302504307 510.49022535557134 50.18357772499969 0.3849774916251057
1.441582673463649 13.078009538391024 456.57026657900315 52.49431616972365 0.39137485390492943
1.4681780725527418 13.07340331378985 408.74490289491064 54.91719888275577 0.397956255066316
1.494588839885016 13.067529224120475 366.2762989954543 57.45842030125007 0.40473076379567313
1.52080203116044 13.060374622805792 328.6279309258465 60.124613380611535 0.41170815949619793
1.5467867048851263 13.051880483048647 295.08920512320867 62.92288907455539 0.4188989908170191
1.5725040403879966 13.041988672490074 265.2716029221071 65.86087959577287 0.4263146389624554
1.597917961356219 13.03064478407908 238.7444328792051 68.94678584109701 0.4339673863409097
1.6230267097737543 13.017830287906351 215.07413551826974 72.18942941278617 0.44187049118143407
1.6477688597693305 13.003468223458919 193.9519110783001 75.5983097216613 0.4500382688219276
1.672117113480218 12.987522934006893 175.1167474278066 79.18324367374836 0.4584844139662045
1.6960533052485656 12.969959747043 158.24466974465975 82.95468579392549 0.4672232805490936
1.719533384391766 12.950736268606338 143.17722460571096 86.92526005617941 0.4762759082596608
1.742514629118869 12.929784961909581 129.68371099117607 91.10641751310023 0.4856561094358698
1.7649957654508954 12.907119190062145 117.58896939507368 95.51253028823706 0.4953869031935624
1.7869066280316104 12.882638513669534 106.74724147468692 100.15700073373986 0.5054847350241494
1.8082571646991439 12.856397342892688 97.01518725137686 105.05650643804606 0.5159758725063103
1.8289609368492132 12.828242539175012 88.26987188183418 110.22760425486572 0.5268828757774168
1.8490425641606443 12.798262223281109 80.40971795140149 115.68811182108949 0.5382297644208528
1.868414209878656 12.766309029498755 73.33151754802947 121.45792636611034 0.5500446758510988
1.8870882536447047 12.732473878891495 66.9572324515091 127.55849059386497 0.5623574585013483
1.9050094713542616 12.6966383577139 61.2109627613843 134.01257175956724 0.5751985346593389
1.922147106239269 12.658802991934541 56.03358954550139 140.8457496669736 0.5886037682854772
1.9384568930284414 12.618895958762266 51.3546907761913 148.0857223417948 0.6026114364076262
1.9539481434295367 12.577032312465992 47.13062699250837 155.76082869660615 0.6172566937679582
1.9685572159759968 12.533078855044234 43.308306858729225 163.90492838061093 0.6325878085328148
1.9822684467614775 12.4870630223891 39.850173237619586 172.55204303683595 0.6486470989150724
1.9950506086612056 12.43896086277735 36.71908762970684 181.74109201139288 0.665486398048405
2.006881004138249 12.388782695099101 33.87911246495713 191.51432936973086 0.6831608767885189
2.01772134406441 12.336487879813903 31.3057195258462 201.9178413420394 0.7017298367073395
2.0275516365448776 12.28208644110742 28.971682245406157 213.00139506576426 0.7212552417191251
2.0363533886799843 12.225593621475868 26.85101886381418 224.82101293332096 0.7418090515087873
2.044089760276721 12.166977942306426 24.925011746904048 237.43744562620927 0.763466902622037
2.0507412198135317 12.106246115489585 23.172222903233198 250.91787896680728 0.7863122731555131
2.0563050173756414 12.043476238050198 21.579008207769704 265.33566995047573 0.8104339764349985
2.0607421051438406 11.978603342080717 20.127784136444653 280.7721783677536 0.8359302560404774
2.06403876518479 11.91168260912971 18.809131342169753 297.3177230337675 0.8629097639954428
2.0661869180352372 11.842755057088512 17.60824154732342 315.07266983918294 0.891492681164966
2.067172396584071 11.77184655361873 16.51319126663665 334.1462589047077 0.9218040076633877
