M[M_sun], R[km], Lambda[1], P_c[MeV/fm^3], rho_c[fm^-3]
0.24162668629717493 15.618656898711224 2160425.4255784233 3.5677272577965504 0.1711233750220791
0.2536421924918489 15.277361798497807 1723160.0057085212 3.784806061900766 0.17388800423242448
0.26603838297714233 14.981313286618429 1383002.5118165663 4.011373013920663 0.17666631707218317
0.278811851184247 14.723602419333561 1116500.1417063426 4.247684627022613 0.1794570086682467
0.2919656085890398 14.498479262208615 905948.6561233465 4.494365850464418 0.1822666409873647
0.3055002877002885 14.301299221889145 738710.4982661912 4.7515708344989775 0.18509089181034588
0.3194156744337357 14.128213490621398 605150.9550333739 5.019984256239277 0.18793643250075995
0.3337127415973639 13.976002957008827 497724.94966183265 5.299826853725444 0.19079982125324849
0.3483930590851108 13.842083524026568 411030.0396931107 5.5918310748445395 0.1936874323592602
0.36345322963153703 13.724073994880229 340690.49134391424 5.896159353871393 0.19659423940346035
0.3789064672281147 13.620066094607814 283351.83232758526 6.21367774800914 0.19952796482073468
0.3947368568952969 13.52852988094876 236435.74225609304 6.544646956558532 0.20248484551760143
0.41096062137777595 13.447943097997742 197896.1925378914 6.8897627980739315 0.20546848168301426
0.4275669881582646 13.377112571114154 166100.73749547036 7.249733209571295 0.20848199961167593
0.4445610170744406 13.314974901423696 139827.48194423653 7.624821931488978 0.21152102254631017
0.461941330390097 13.260612479650568 118001.50826374166 8.015968399680101 0.21459156498025556
0.47970304264407193 13.213212558127767 99832.09886321305 8.423881859099586 0.21769534464844073
0.49785892691190214 13.172029595298223 84659.34415970753 8.849009710869623 0.22082992455938874
0.516395619715438 13.13643964129842 71952.4948136167 9.292212134331114 0.2239985278396523
0.5353122324805454 13.105877964539745 61289.048097916486 9.754379865549632 0.22720416266625212
0.5546169742142935 13.079839365412198 52310.19284727018 10.236322256933995 0.2304481795972277
0.574297303373375 13.057887890521028 44740.11528526271 10.738519483755923 0.23372739093623024
0.5943530878547609 13.039542519627439 38338.48177857704 11.26219815603773 0.23704775866156158
0.6147869571298207 13.024545931533474 32910.290589229364 11.808304120288271 0.2404110071355783
0.6355868048189159 13.012452095841862 28301.497461602816 12.377816081960997 0.24381876877056816
0.6567574963339748 13.003042937135733 24377.447324031084 12.971435453739227 0.24726913550720897
0.6782873080728812 12.995983707000372 21033.694310179584 13.590464048913548 0.25076661491936314
0.700173301178869 12.991072260426954 18177.95460226496 14.236111012561937 0.2543139785050468
0.7224053022097079 12.988007810986993 15734.18834415163 14.909565641218276 0.25791321013700275
0.7449908635847151 12.986653993742577 13638.478907795201 15.611872924455689 0.26156436193116306
0.7679077164795921 12.986764186848445 11839.179507129154 16.34426812314792 0.2652690222022006
0.7911506916796975 12.988141772072778 10293.476692970573 17.10838146981953 0.2690320302004574
0.8147230299406578 12.990655803510874 8958.992860173525 17.905667493953874 0.2728558174875493
0.8386034126760165 12.994124856661822 7809.517215518704 18.737508431264477 0.2767416191304386
0.8627814767905996 12.998390594426533 6816.670285779682 19.60521438086857 0.2806896115572697
0.8872550375549194 13.003335545941113 5957.0204258532485 20.510886821113864 0.28470630232680527
0.9120138979495116 13.00882280144967 5212.8678574928035 21.45631918556216 0.28879470340790653
0.9370304845851941 13.014719836296475 4566.904793370302 22.44301699394309 0.2929549112433785
0.9623064124074423 13.020917391426835 4006.1066862152097 23.47296200161814 0.2971903785008196
0.9878278939631223 13.02731780770768 3517.804861968716 24.54859639931318 0.30150737290838764
1.013567970801495 13.03377420519118 3093.328936424727 25.671887484959235 0.3059077148937949
1.0395295858194693 13.040230651753939 2722.490373110659 26.84474527775469 0.3103922885976551
1.0656789540091776 13.046553793168115 2399.231704969449 28.07028977779616 0.3149700102607191
1.0920073915201676 13.052682718920602 2116.5099356409323 29.35060437615149 0.31964152445476
1.1185038354678327 13.058519953795722 1869.3037807025344 30.688386240517396 0.32441111899917086
1.145132384840653 13.063977263320895 1652.5984652875316 32.08709468674886 0.3292872566063643
1.1718934667703864 13.068990021684174 1462.6987398535189 33.54860418939118 0.33426720551283673
1.1987459515685608 13.073453524530175 1295.9407548255385 35.07748704934407 0.33936473861815647
1.2256907466943483 13.077315945862013 1149.51270456236 36.675804050969695 0.34457685030226
1.25268381943543 13.080488786504242 1020.5580852821078 38.34853872594021 0.3499175651208146
1.2797228458241863 13.082930471477418 907.0943281531034 40.09798191283249 0.3553837765571321
1.3067651803263165 13.08452276691429 807.0936586870421 41.92959289989056 0.3609899761461913
1.3338003276096297 13.085232327258968 718.821572457829 43.84679075719922 0.3667377437040677
1.3608076051670368 13.085032262408676 640.9011212062367 45.85436402177474 0.3726353960938876
1.3877360422252463 13.083779567849104 572.060295100959 47.95759293460655 0.37869260450110487
1.4145915964837161 13.08149848555817 511.0508942575158 50.161170155556185 0.3849147031461598
1.4413133077714584 13.07804865827681 457.0776024266465 52.47043209491747 0.3913092771841012
1.4679056481368045 13.07345822118983 409.20341774293536 54.89173253901508 0.3978877042489881
1.4943146737315693 13.067594689183032 366.701947215755 57.43125735764355 0.40465903865908587
1.520524980989488 13.060456854585627 328.98533332655154 60.09563017175215 0.41163304426944813
1.5465072284813837 13.051978412492572 295.42357074807376 62.8919517569572 0.41882025288410585
1.5722227681343253 13.042104600125253 265.5844406036687 65.82784321913849 0.4262320274358306
1.5976462414428663 13.030785270150627 239.03395558369365 68.91149332497262 0.4338806304915052
1.6227266823122242 13.017945522463938 215.3348939567489 72.1517104178466 0.44177929870947036
1.6474852360155896 13.003643177555013 194.18775347820574 75.55797940355703 0.44994232395091815
1.6718335013796675 12.987719115831334 175.31535690796102 79.14031191467947 0.458384254663468
1.695772000270536 12.970179812432496 158.44050063783837 82.90873369429244 0.4671176827579711
1.7192367685911862 12.950943775940928 143.34953070571788 86.87605104822208 0.47616447406793
1.7422400211796023 12.93005165866789 129.84113877562098 91.0539311146322 0.48553934651882724
1.7647204289773595 12.90741173850927 117.7354757124559 95.45626083738247 0.49526343545402957
1.78664833644434 12.882990396577698 106.86981193101795 100.09689923379918 0.5053550385947072
1.8079881353629956 12.856745700811848 97.13313740282732 104.9922612086689 0.5158394476270646
1.8287006304938034 12.828623267608062 88.37305337715567 110.15886898849234 0.5267391582813598
1.8487819670347618 12.798670287637266 80.50324174635438 115.6142472360717 0.5380771856769148
1.868170910926088 12.766778173285523 73.41931751075812 121.3787917243826 0.549883586720152
1.8868442451839464 12.73294255209312 67.04112116447618 127.4738058502694 0.5621877540427043
1.9047696990148628 12.697140852355348 61.2882510046389 133.9218340701714 0.5750193902866689
1.921915332994037 12.65934239353604 56.1019825857282 140.74829031663788 0.5884138804091054
1.9382325821579791 12.619468392791457 51.4170138123456 147.98095764801224 0.6024099163067669
1.9537444383694091 12.577677903942512 47.18483989295564 155.64846268119103 0.6170437489207499
1.96835403926938 12.53373239965512 43.3593334718804 163.7842800541171 0.6323624364562669
1.9820756430756516 12.487754169264878 39.899073239384904 172.4220014234901 0.6484069912944852
1.9948712005552018 12.439691828172158 36.764340921561846 181.60118566595668 0.6652315567002817
2.0067059040818473 12.389535820184859 33.920763209666795 191.36364968136493 0.6828899981056125
2.017565557227586 12.337295200893921 31.343814118741722 201.7553860020586 0.7014414945037715
2.027407176130693 12.282929346152589 29.005174726585132 212.8264669243626 0.7209492154013611
2.036224349186303 12.22648315165164 26.882354111327164 224.63199272021438 0.7414823255704995
2.0439763573567222 12.16790927954632 24.953122683221622 237.23341240931 0.7631190072444132
2.050643875160534 12.107225496584665 23.198560794537322 250.6972641279232 0.7859409138385353
2.056218632392227 12.044477790843217 21.60316736451954 265.09669519007207 0.8100365037607986
2.0606793194284383 11.979670841563715 20.150633625139587 280.5135954976387 0.835506119948853
2.0640003497268755 11.91280916626896 18.83046621412496 297.0371786401427 0.8624552318095136
2.0661633453001356 11.843916811930873 17.626441500666175 314.76791092082345 0.8910048220781385
2.067165883896359 11.773047496119526 16.53058957004488 333.8152752387515 0.9212812454017986
