M[M_sun], R[km], Lambda[1], P_c[MeV/fm^3], rho_c[fm^-3]
0.24162668629717493 15.618656898711224 2160425.4255784233 3.5677272577965504 0.1711233750220791
0.2536422824861233 15.277340787613877 1723220.909828195 3.7848065745005415 0.1738880106217334
0.266037729374297 14.98132845144844 1382959.943282918 4.011374091503514 0.176666330094136
0.2788120389581687 14.72363324662108 1116469.2032694775 4.247686306040559 0.17945702814232467
0.29196580339020134 14.498504989894553 905974.1953442922 4.494368174971715 0.18226666687129295
0.3055007450554631 14.30127083938884 738695.2110776858 4.751573883418218 0.18509092474449262
0.31941594922605093 14.128205390005238 605151.65443252 5.0199880520248215 0.18793647188350002
0.3337130434240085 13.976032507468643 497719.79294685816 5.299831496303647 0.19079986799630758
0.3483927448798535 13.842093601228438 411058.27191121667 5.591836575801861 0.19368748558253557
0.36345472366149423 13.724038115426845 340683.43455690134 5.896165836786858 0.19659430029237435
0.3789068917050261 13.62005972850117 283336.33033218054 6.213685291327758 0.19952803360671773
0.3947372188678564 13.528528104000031 236437.81429065415 6.5446555524435235 0.20248492089190034
0.41096173552524295 13.447918349714008 195406.72165615752 6.889772612457967 0.20546856526642715
0.4275677451507621 13.377115262899721 166112.15185393742 7.2497443345420765 0.20848209164570813
0.44456146659218027 13.31497211471459 139824.39128154106 7.6248343362937625 0.2115211212965325
0.46194121471702443 13.260614872333448 118003.62644036242 8.015982300674306 0.2145916725156842
0.4797036393393589 13.213210540513712 99829.06736086686 8.423897364669775 0.2176954612286522
0.49785989357761046 13.172050775951138 84659.88834448981 8.849026763840676 0.22083004803018536
0.5163964461331828 13.136444118213184 71952.17893677414 9.292231010654628 0.22399866073014665
0.5353128295284394 13.105880043231434 61287.05433046352 9.754400693198255 0.2272043052633593
0.554617951363775 13.079838571226952 52310.16417955408 10.236345171655952 0.23044833220033686
0.5742981143970136 13.05786856969861 44739.35025733958 10.73854438598503 0.23372755081625485
0.5943533392993792 13.039548622425116 38334.56262285569 11.262225420240304 0.23704792900879262
0.6147879026734472 13.024550021388645 32909.82422227289 11.808333907510463 0.2404111882915881
0.6355857743108342 13.01246010430411 28300.32421123124 12.377848563295416 0.24381896109495946
0.6567586406665931 13.00304268041617 24377.202764521553 12.97147048002767 0.2472693357031105
0.6782890189372158 12.995996147958694 21033.508500985507 13.590502117498154 0.2507668268750431
0.7001746749092865 12.991056306537605 18040.78439011629 14.236152327537281 0.2543142026408044
0.7224067468245315 12.988006925354771 15734.07703285451 14.909610419791381 0.2579134468981982
0.7449923247960782 12.986640624252622 13638.037707876205 15.611920960917962 0.26156460746169435
0.7679099111490691 12.98674824776253 11838.704280426142 16.344320067957923 0.2652692811340503
0.7911518286046566 12.988126636496292 10291.785503869498 17.108437583647497 0.2690323030630011
0.8147252696409871 12.990664322891542 8959.252528774638 17.90572805475074 0.2728561048442001
0.838605828465848 12.994117340833064 7810.120774291583 18.737573170431332 0.27674191657341335
0.862783557037627 12.998390323785113 6816.604882783104 19.60528414009319 0.2806899245229157
0.8872559755845847 13.003330094264088 5957.04655831482 20.510961936105613 0.2847066314923459
0.912014765207878 13.008834859732785 5212.901155327972 21.456400015017234 0.288795049496226
0.9370323226701402 13.014722720621764 4566.830756157386 22.44310320117588 0.2929552692991446
0.9623076663082785 13.020924791317846 4005.9044915422046 23.473054668357605 0.2971907548479825
0.9878316366782774 13.027316083839217 3517.803685859628 24.548695961678252 0.30150776842239957
1.0135706527362596 13.033770340476082 3093.209687792936 25.67199355758492 0.3059081242484859
1.0395319382629893 13.040228491489128 2722.4775549594397 26.84485915725846 0.3103927188139141
1.0656821404963022 13.046552394374809 2399.238559866877 28.07041199717422 0.3149704624033436
1.0920098168451864 13.052685161612173 2116.487667947377 29.350734502272267 0.319641992828897
1.1185065691985288 13.058520595845547 1869.282572582744 30.688525826772455 0.32441161139873054
1.1451357151647261 13.063979085534069 1652.600552606686 32.087243277598205 0.329287767149887
1.1718955836043743 13.068993872652786 1462.693265026116 33.54876352757311 0.33426774249893826
1.1987498374089183 13.073448806817186 1295.936894554007 35.077657886793034 0.339365303531286
1.2256926675373476 13.07732328922845 1149.5184470571485 36.67598589197763 0.3445774368932032
1.2526863619004447 13.080488039721724 1020.5632900829772 38.34873366240872 0.3499181826368125
1.279726352096664 13.082932523901299 907.0511231362361 40.098189436654486 0.35538441856650815
1.3067681143127121 13.084518981896814 807.0977302581215 41.929813868770644 0.36099064416859244
1.3338038290461196 13.0852325626207 718.8222953815527 43.84702764821808 0.36673844786668675
1.3608099816675223 13.085035786535244 640.9028127070621 45.854616338624965 0.3726361297970134
1.3877396718610815 13.083779090674547 572.0442158971356 47.957861754856346 0.37869336965031286
1.4145949652723029 13.081496349304254 511.0523505241982 50.16145842646835 0.3849155109130238
1.441316926776778 13.078049858781915 457.0749900820686 52.470739358928114 0.3913101208159525
1.4679090448457597 13.073456019551127 409.19441188114604 54.89206015645533 0.3978885861362165
1.4943178657386558 13.067596096736272 366.6893774693114 57.43160679902334 0.4046599613768538
1.5205285445258623 13.060456562873561 328.97908169792754 60.096003027623915 0.41163401059286275
1.5465108235512048 13.051977141371047 295.41916398541264 62.89234974876337 0.4188212658048943
1.572226838026069 13.042103602643403 265.58004994171966 65.82826821115327 0.426233090180681
1.5976502543013342 13.030783902677777 239.02844909026243 68.91194733745982 0.43388174654225176
1.6227305592687835 13.017941437387623 215.3405336145231 72.15219564157226 0.44178047182532537
1.6474887134738112 13.0036412948332 194.18735376741628 75.55849821581192 0.44994355819297754
1.671836014498907 12.98771709189524 175.30532645119365 79.14086418844494 0.4583855431118444
1.6957757437999634 12.970177249160429 158.43871555740873 82.90932481692192 0.467119041156052
1.719240758349759 12.950939853784325 143.34809058111676 86.87668406211799 0.4761659075329555
1.7422438282926678 12.930046990234374 129.83829198809696 91.05460628330243 0.4855408485205978
1.7647239915389579 12.907407894920976 117.7340887620593 95.45698466376346 0.49526502369073205
1.7866513220407338 12.882984812597057 106.87113954424548 100.09767234810995 0.5053567069418492
1.807991107697496 12.856740729001144 97.131039745709 104.99308761920545 0.5158412025115712
1.8287040058201842 12.828619595558232 88.37090780912673 110.15975656328622 0.5267410196663225
1.8487851845315095 12.798665086765084 80.49809333156311 115.6151973670508 0.5380791483196525
1.868173849004848 12.766773536158018 73.41389131316029 121.37980963600482 0.5498856588151919
1.8868473031878161 12.732935513913231 67.03955184656333 127.4748972564103 0.5621899444861206
1.9047727854939187 12.697134414264 61.28729083228151 133.92300121218972 0.5750216945874075
1.9219182985999288 12.659335043048488 56.098598967929206 140.7495439060842 0.5884163228780628
1.938235686876231 12.619460820176188 51.417195230552565 147.98230519046285 0.6024125083717151
1.9537468109522205 12.577669545593322 47.18423992642175 155.64990798289605 0.6170464879121575
1.968356625558894 12.533724039628162 43.35897720528701 163.785831871826 0.6323653352646437
1.9820774724414223 12.487742511919176 39.89848458555169 172.42367404240167 0.648410079602425
1.9948728148889252 12.439682660535412 36.762330278988486 181.60298514840107 0.6652348344825053
2.0067077687427513 12.38952493834858 33.92021570446851 191.3655877104575 0.6828934821237553
2.017567209910184 12.337284815782382 31.342331250057754 201.75747546548078 0.7014452030952373
2.027408976591641 12.282918350116791 29.00441363891039 212.8287167864619 0.720953151400499
2.0362265739217453 12.226471145317204 26.88225268540501 224.63442380048633 0.7414865277506254
2.0439777443935854 12.167896875998787 24.953211368130425 237.2360365490849 0.763123481643787
2.050644986719001 12.10721291583873 23.1981706167947 250.70010597749607 0.7859457045545466
2.0562196755127538 12.044464644403652 21.602855791479985 265.0997702223778 0.810041620793211
2.0606805673223376 11.979657479224615 20.15057188834031 280.5169210949609 0.8355115747024875
2.0640002072186707 11.91279804604415 18.83029940597691 297.0407866330038 0.8624610774044327
2.0661634063524645 11.8439024832447 17.625741217571438 314.77183027431465 0.8910110961922003
2.0671662137631244 11.773031828491204 16.53029564131087 333.81953179716106 0.921287968295795
