M[M_sun], R[km], Lambda[1], P_c[MeV/fm^3], rho_c[fm^-3]
0.24162668629717493 15.618656898711224 2160425.4255784233 3.5677272577965504 0.1711233750220791
0.253644205736173 15.27726036314661 1723206.336255946 3.7848229886952516 0.173888215216752
0.26604067316678764 14.981246608430828 1382985.6175053578 4.0114085973925535 0.17666674707744104
0.2788157619998284 14.723493084506059 1116371.6212348726 4.24774007098696 0.17945765173468087
0.29197037788808655 14.498418896122615 905879.6199218953 4.49444260978271 0.18226749572018877
0.3055056530881327 14.301224940868599 738641.5587033598 4.751671515469038 0.18509197935697505
0.319421881582102 14.128138444514082 605138.7482625924 5.02010960046837 0.18793773299551522
0.3337206194606822 13.975953050280694 497676.3211604275 5.2999801611357 0.19080136480448678
0.3484017344826781 13.842021458148432 411003.08071799274 5.59201272817091 0.19368918990516396
0.36346408744361214 13.72399261647837 340650.3050613784 5.896373434146001 0.1965962500907037
0.378918031739931 13.620017516155398 283312.43128916644 6.21392684584374 0.19953023629305291
0.3947493337308111 13.528493246672417 236407.3995196279 6.54493081329026 0.20248733455766704
0.4109758711418166 13.447859971064094 197855.09429912825 6.890086893447465 0.20547124181521662
0.4275839454107185 13.377047797414757 166072.3877187867 7.250100584773643 0.20848503881257477
0.4445789439950768 13.314928246843948 139794.26649862333 7.625231571100763 0.21152428354101738
0.46196068379411337 13.260581958053622 117980.46814408373 8.016427448663602 0.2145951160952681
0.47972558640179536 13.213146948801098 99810.5152814708 8.424393896942739 0.21769919445720548
0.4978826354446217 13.171980646337095 84640.52252409511 8.84957284958339 0.22083400192428707
0.5164208373091502 13.136411135020113 71936.32588515848 9.292835487075903 0.22400291628183713
0.5353405361533706 13.105839924754974 61276.3763939585 9.755067658687269 0.22720887166214251
0.5546461286936161 13.079827951888053 52299.013841068736 10.23707897363198 0.23045321903524013
0.5743287053272165 13.057839609734412 44728.37495699196 10.739341836069283 0.2337326706928149
0.5943867966453242 13.039517871417349 38327.6543716218 11.26309851068918 0.2370533840937169
0.6148222994482064 13.024521723329203 32901.459773453855 11.80928779596972 0.24041698952494814
0.6356280361197002 13.012429971191843 28291.16308711505 12.378888729176571 0.24382511999432518
0.6567981467292633 13.003028342550643 24370.89817448522 12.972592146734646 0.24727574669004648
0.6783300147863097 12.99598303752074 21027.49203674424 13.591721212598786 0.2507736144699483
0.700218786631055 12.991063845794235 18171.852918103657 14.237475387418463 0.25432138030523177
0.7224532337940254 12.988003007074703 15729.37921794907 14.911044400806796 0.25792102889636986
0.7450392582476693 12.986662953874523 13633.714963797576 15.61345927536098 0.26157247030472275
0.7679615652817358 12.986759363617667 11835.871853408737 16.345983547305043 0.2652775731613806
0.7912067710438286 12.988140945934019 10288.816487423215 17.110234576292196 0.26904104122971945
0.8147814077877272 12.990661957814849 8956.001683620154 17.90766746256367 0.27286530719559815
0.8386620383044747 12.994139400931546 7807.091126400252 18.739646391486005 0.2767514419514462
0.862844623815683 12.998394395296737 6814.3855450697265 19.607518130542754 0.28069994702915885
0.8873243704903145 13.003354925342368 5955.168843365578 20.513367447729948 0.2847171728172642
0.9120803983367404 13.008854124243388 5210.989038216205 21.4589885358374 0.28880613279277595
0.9371009283266467 13.014733354814329 4565.203888757272 22.44586394856439 0.2929667358720653
0.9623849025106717 13.020952310709223 4004.401756452158 23.476022286619912 0.2972028072275111
0.9879047230500969 13.027331272566023 3516.5098302911597 24.55188441860154 0.3015204346481242
1.0136471753566678 13.03379642905837 3091.977315725005 25.675390511364196 0.3059212337473365
1.0396118063741138 13.040249293596103 2721.369713298032 26.8485061348758 0.3104064964386428
1.0657620627080777 13.04657398672086 2398.198577749131 28.07432606932153 0.31498494225818546
1.0920947090581514 13.05270215018429 2115.7154580549827 29.354901797156103 0.3196569925317467
1.118594077657136 13.058533616228715 1868.5381029652792 30.69299609572396 0.32442738056212317
1.1452239178734371 13.063993066397416 1652.0716601864888 32.09200193102165 0.32930411741434146
1.1719868476410698 13.069014287871305 1461.9574815889355 33.55386638156266 0.33428493964300937
1.1988429574552124 13.073465009484886 1295.4686947226335 35.08312902456364 0.3393833951006646
1.2257895128592122 13.077334157607158 1149.0428868610816 36.68180943724562 0.3445962227487723
1.2527852134087711 13.080491612125 1020.1565140559806 38.35496411738727 0.3499378856292974
1.279826692678023 13.082934746773462 906.6901384539239 40.10483552312347 0.35540497933772913
1.3068707573003333 13.084523266152459 806.7350083059096 41.93689055998066 0.3610120380782344
1.333908597688406 13.085236100045849 718.5867440093332 43.85461428166902 0.36676099926482086
1.3609174172251688 13.085033890650788 640.6055440909829 45.862697018444834 0.3726596273162522
1.3878470627636694 13.083776274727018 571.7825244425479 47.96647099426886 0.37871787432480386
1.4147045491379662 13.081483075515802 510.8080503568258 50.17069062350851 0.3849413805465395
1.441427614222828 13.07803317012848 456.87183977195934 52.48057985839989 0.3913371391405855
1.4680217548861063 13.073435775372744 409.0149075929465 54.90255252869158 0.39791682971526454
1.4944308430001967 13.067569924077581 366.5146427824483 57.44279814349751 0.4046895126921542
1.5206428011243152 13.060421687188173 328.83180126404574 60.10794428891269 0.41166495853081325
1.546626369529344 13.051936497262929 295.2832489603831 62.90509606403532 0.41885370619063844
1.5723421603422856 13.042056516035458 265.4525860993374 65.8418792926941 0.4262671263656279
1.5977666348158772 13.0307287114037 238.91218968440552 68.9264878941721 0.43391749005070385
1.6228534115203326 13.017905721504707 215.23096807575303 72.16773584387123 0.44181804306667816
1.647605613016391 13.003568842180295 194.09167709571847 75.57511420888908 0.4499830872467371
1.6719541257940984 12.987633348731164 175.22414108777477 79.1585519028049 0.4584268083470856
1.6958916863491629 12.970085622400546 158.3565100426927 82.92825681259299 0.46716254682696523
1.7193720079150092 12.950876312882903 143.2726536852685 86.89695778943295 0.47621181755046027
1.7423533818705028 12.929934579902243 129.77366199832306 91.07623018129391 0.48558895373415817
1.7648374756357483 12.90728925661246 117.67412563386281 95.48016702858227 0.49531589097551504
1.7867639375154676 12.882854013418669 106.817883922281 100.1224333648485 0.5054101401417447
1.8081027968984626 12.856597723032106 97.082517386595 105.01955567782298 0.5158974074895247
1.8288127281287168 12.828462890926046 88.32722194753498 110.18807454802452 0.5268002296756207
1.8488930075255792 12.798498461920266 80.4618668632723 115.64562814495117 0.5381420078059406
1.8682697335126979 12.766560364687868 73.38654841142016 121.4124114133852 0.5499520240867198
1.886948841744788 12.73274189404919 67.00775431458001 127.50985305912045 0.5622601005032426
1.90487294969245 12.696926873239343 61.25680954438307 133.9603828317222 0.5750954975112544
1.9220140610026828 12.659112118580913 56.07300458993744 140.78969445916343 0.5884945514239448
1.9383275476233615 12.619224805432843 51.39086951214602 148.02546509887 0.6024955286028756
1.953824970372021 12.577382942042524 47.16033446783655 155.6961991663845 0.617134214338681
1.9684414465496736 12.53345379420406 43.33735636872326 163.83553483162055 0.6324581808066002
1.982156785014384 12.487456593115319 39.878363197410664 172.47724637966212 0.6485089950656983
1.9949471106621182 12.439383335160707 36.744524403544276 181.6606210540436 0.6653398190838002
2.006783364829624 12.389224102446907 33.90114421906982 191.4276614328416 0.6830050727989475
2.01763190625933 12.33695229217338 31.327532089208404 201.82439984219025 0.7015639872623511
2.0274685779283814 12.282568211653267 28.990834678032478 212.90077897145477 0.7210792198818005
2.0362794781463336 12.226105546750723 26.868853413091994 224.71229072997824 0.7416211225920009
2.0440248888970314 12.167513045949969 24.94117468872559 237.3200875425184 0.7632667963086468
2.0506848108681983 12.106808609875564 23.18675521342333 250.79103692810028 0.7860988463172951
2.05625904757994 12.044065158943146 21.593058999421462 265.19826433581693 0.810205520720361
2.0607063651818245 11.979218168385602 20.141482211753825 280.62344142693695 0.8356862928393184
2.0640131684962557 11.912323453261033 18.820905779935238 297.1563528854656 0.8626483154407107
2.0661744778636844 11.843426577259377 17.61832905537293 314.8973703556268 0.8912120611705475
2.067169937295411 11.772536977431205 16.523159988463895 333.9558736338155 0.9215033093358816
