M[M_sun], R[km], Lambda[1], P_c[MeV/fm^3], rho_c[fm^-3]
0.24162668629717493 15.618656898711224 2160425.4255784233 3.5677272577965504 0.1711233750220791
0.2536440239914561 15.277271125632563 1723187.8436767631 3.7848200231808873 0.17388817825304603
0.26603998746179397 14.981260077644418 1382909.7989876491 4.011402363278175 0.1766666717418479
0.27881482762262466 14.72352161334565 1116440.7536374743 4.247730357351092 0.17945753907114292
0.2919694132263883 14.498418388860951 905874.1630944976 4.494429161720089 0.18226734597289038
0.30550452449830123 14.301251368802326 738692.8966296477 4.751653876341934 0.18509178882073754
0.3194209629113097 14.128148345691317 605108.2034325412 5.020087640330221 0.1879375051506061
0.33371944704067447 13.975996357227961 497689.0400114093 5.2999533018209135 0.19080109437575454
0.34840013621236054 13.842033902712505 411009.8688047159 5.5919809026058775 0.19368888198406736
0.3634628269141764 13.723984045074051 340663.0216474612 5.896335927307839 0.1965958978185424
0.37891578582050406 13.620008181976626 283303.79858933855 6.2138832038302345 0.19952983833043814
0.39474848010972685 13.528455277989654 236418.65358859664 6.544881081400533 0.20248689847617862
0.4109727992996528 13.447878128300472 197863.60221983856 6.89003011158924 0.2054707582370844
0.4275810266634129 13.377061168917171 166078.0659095962 7.250036220094699 0.20848450634008112
0.44457609952098504 13.314948267055136 139822.08541923415 7.625159801486834 0.21152371220874278
0.46195710067127693 13.260575065031032 117980.91539808662 8.016347022254754 0.2145944939319737
0.47972220200910287 13.213160776116595 99813.81799420198 8.424304186564965 0.21769851996057743
0.49787921019406983 13.171983075189544 83768.1532781245 8.849474186003222 0.22083328755781095
0.516417048548792 13.136400630087527 71937.67925684914 9.292726273575301 0.22400214741198424
0.5353353701483857 13.105843713878576 61276.66516841959 9.75494715474569 0.22720804662837202
0.5546412654205616 13.079824194163404 52300.789007441424 10.236946393730605 0.23045233610481655
0.5743240717135102 13.057841058926416 44731.66379143991 10.739197756262644 0.23373174565582594
0.5943808403650971 13.039524049352623 37995.17726774845 11.262940764178165 0.23705239849066145
0.6148174555619121 13.02451746390738 32901.634144382944 11.809115450832163 0.2404159413789603
0.6356207690332291 13.012445259338339 28292.43611213705 12.378700795348772 0.24382400722418554
0.6567913212221923 13.003023671324193 24371.243064195234 12.972389487240509 0.24727458837148245
0.6783237592548536 12.995982074176045 21028.942273710687 13.591500949562693 0.2507723881043753
0.7002102289072363 12.991069420532275 18173.063819472023 14.237236339785667 0.25432008346015716
0.7224443873321553 12.987998058727028 15730.380997884693 14.910785311635994 0.25791965899425945
0.7450324717310723 12.986638404009355 13634.616652496901 15.61318133492652 0.261571049657587
0.7679517374097931 12.986756164244994 11836.756621724704 16.345682991624543 0.2652760749666953
0.7911962558785365 12.988137597479593 10288.8919412517 17.10990989688655 0.26903946242371546
0.8147694961835625 12.990671837971195 8956.659213813029 17.907317050941177 0.27286364451750506
0.8386536112239449 12.994131129859479 7807.868699116406 18.73927180187937 0.27674972090602157
0.8628332012513105 12.998393685457502 6814.71224533313 19.607114492261424 0.28069813615875183
0.8873127470472784 13.003358034761803 5955.5783117193705 20.51293281800547 0.28471526820242116
0.9120686791934413 13.008842171651768 5211.246432902177 21.458520838862295 0.28880413024976753
0.9370884898373084 13.014731043416175 4565.433167823115 22.44536513262101 0.2929646640746192
0.9623657399631899 13.02093495181019 4004.4631031034337 23.47548609177456 0.2972006295809251
0.9878913448661357 13.027333989091495 3516.7062203734577 24.551308320950582 0.30151814608564337
1.0136334669745402 13.033789948474737 3092.0421272413137 25.67477674093915 0.3059188650890607
1.0395975758601657 13.040244651030251 2721.551381440116 26.84784718803166 0.3104040070561219
1.0657481177444696 13.046571026087877 2398.445985384294 28.07361886145222 0.31498232598875936
1.0920795488148738 13.052699765159817 2115.9126176264654 29.354148834774097 0.3196542823294927
1.1185772057091796 13.058535595914327 1868.7068968250367 30.692188389014156 0.32442453132436627
1.1452081427868106 13.063987428615704 1652.1985106081595 32.09114211621695 0.3293011631753609
1.1719707599234288 13.069010484594415 1462.0831304455805 33.55294437291087 0.3342818323787897
1.1988266946563346 13.073456590550009 1295.5641136769802 35.08214047026307 0.3393801262195903
1.2257716615143022 13.077330072512177 1149.1251451486457 36.68075720605653 0.34459282841383815
1.2527668219885355 13.080497360380898 1020.2226943388328 38.35384393899548 0.34993435829492925
1.2798087835497027 13.082938474078826 906.7430749094145 40.103634665243035 0.35540126428462776
1.3068522237709979 13.08451708021743 806.7710191623289 41.93561189507552 0.36100817248050926
1.33388951137666 13.0852325092328 718.6387025924628 43.85324347346988 0.3667569245139232
1.3608956408600565 13.085033985418134 640.6497129457672 45.86123693930625 0.37265538160445394
1.3878276159932217 13.083774737426605 571.8250479636944 47.964915407632525 0.37871344662308254
1.4146844638641354 13.081485043851094 510.8624593585158 50.16902247148907 0.3849367062007468
1.4414074966114776 13.078034361852398 456.89650258958625 52.47880178919531 0.39133225722873466
1.4680026628993479 13.073438576021378 409.04934958582766 54.90065666903824 0.39791172640204064
1.4944103664478592 13.067573901490743 366.5618655605682 57.44077598237884 0.4046841730726881
1.5206206997020884 13.060432073293569 328.8391891092867 60.10578662045831 0.41165936654284574
1.546605525983277 13.051942534725248 295.30680770359226 62.902792924722824 0.41884784451798046
1.572321891377295 13.042063723050099 265.4722220780506 65.83941989221853 0.4262609763319811
1.597745485255531 13.030738329747734 238.9303063851304 68.92386053927147 0.43391103150279847
1.6228324627744066 13.017919460689184 215.2460507252334 72.16492785430944 0.44181125424556034
1.647584540168188 13.0035810021418 194.1085225672122 75.57211182469605 0.4499759446458933
1.6719334950150653 12.987648345126301 175.24423432441074 79.15535585951913 0.458419352014665
1.695871370348457 12.970102182160591 158.37502213649566 82.92483592714729 0.4671546856421742
1.7193510605974915 12.950892712455632 143.28516763279362 86.89329445166139 0.4762035218928041
1.7423367263748075 12.929953031874424 129.78261893227088 91.07232286637306 0.4855802613966902
1.7648179282769216 12.9073095150896 117.68509127733613 95.47597809514332 0.4953066995202066
1.7867428633025657 12.882876591756983 106.82852223168928 100.11795916544337 0.5054004850135361
1.808082583524596 12.856623958810962 97.08809225860492 105.01477301101552 0.5158872514865342
1.8287931406264084 12.828491505713199 88.33739266399512 110.18295810663673 0.526789532557692
1.8488735140254795 12.798529404945453 80.47039714317867 115.64012939791071 0.5381306492920267
1.8682602618425384 12.766623359540118 73.38263655126369 121.40652035593251 0.5499400320525779
1.886930080747012 12.732776946424678 67.01369477249483 127.5035366159019 0.5622474234521028
1.9048532078989064 12.696965575194167 61.25918034187074 133.95362802947568 0.5750821614342724
1.9219967347291207 12.659151456695433 56.07775853069423 140.78243929096394 0.5884804155972911
1.9383115426292927 12.619279168239451 51.39395976931137 148.01766611646448 0.602480526872195
1.9538093239154224 12.577427504555526 47.164295221302424 155.6878343373513 0.6171183621503319
1.968426529089384 12.53350384920606 43.340968524477084 163.82655346448564 0.6324414035381519
1.9821429397143733 12.48750774105023 39.88255793653761 172.46756577654196 0.6484911208904922
1.9949342439617148 12.43943668413752 36.74679534938284 181.6502061214049 0.6653208481395877
2.0067706492724398 12.389280978771128 33.90421598780225 191.41644453630573 0.6829849080495185
2.0176202001847567 12.337012485330433 31.33053325943163 201.8123063730731 0.7015425225475906
2.027459375227102 12.282630216494008 28.99333551885548 212.88775703560964 0.7210564387841171
2.036269546866242 12.226171510285187 26.871456515090753 224.6982197954712 0.741596800646724
2.0440162419313164 12.16758203849639 24.943403393808946 237.30489905809668 0.7632408985474699
2.0506776181821524 12.10688200329117 23.188435717612837 250.77462115883264 0.7860712248302281
2.056253902202912 12.044140961111841 21.595188323457666 265.18046574565574 0.8101759028322565
2.0607018532349546 11.979297284494718 20.142753666520246 280.6041923622651 0.8356547198930759
2.0640088447948175 11.91240893994144 18.822481478497675 297.13546905563385 0.8626144798943954
2.0661723120757194 11.843512577530344 17.61976628592928 314.87468405961954 0.8911757448726909
2.0671681058761577 11.7726274381757 16.524364342973904 333.93123524116623 0.9214643949627931
