M[M_sun], R[km], Lambda[1], P_c[MeV/fm^3], rho_c[fm^-3]
0.24162668629717493 15.618656898711224 2160425.4255784233 3.5677272577965504 0.1711233750220791
0.25364441308467084 15.277262571261515 1723203.1491774349 3.784826372880132 0.17388825739898395
0.26604067348107757 14.98123556446567 1383011.6356565654 4.011415711646023 0.1766668330489957
0.2788159753260571 14.723477289684679 1116447.215828305 4.247751156017311 0.17945778030432816
0.2919716155225061 14.498359321408875 905846.0788018514 4.494457956492361 0.18226766660936253
0.3055064143540568 14.301208933337396 738606.5069178601 4.751691644975972 0.1850921967940677
0.3194236625511262 14.128111622987095 605076.5879884526 5.020134661075107 0.18793799300898262
0.33372292616421173 13.975887597725327 497656.1909465806 5.300010812649209 0.19080167341436774
0.34840355381588534 13.84200610820258 410993.5161313875 5.59204904714445 0.19368954130122396
0.36346716166775134 13.723948439858175 335694.11533629685 5.89641623657029 0.19659665210013058
0.37891996859902805 13.619985969147066 283297.02377873147 6.213976649721547 0.19953069044445074
0.3947513730288757 13.528461971057705 236394.91862986394 6.5449875669363555 0.20248783221047287
0.4109786707237103 13.447873302953969 197859.53161463083 6.890151692531101 0.20547179367140475
0.42758597051780506 13.377058198371666 166067.06088014712 7.250174037399385 0.20848564646732323
0.4445831556894112 13.314908209558322 139799.96984513348 7.625313474275246 0.21152493554294982
0.4619647032673142 13.260569656916317 117976.04596314105 8.0165192310297 0.21459582610607272
0.47972969157526907 13.21313825147866 99803.9420255104 8.424496274250021 0.2176999641914354
0.4978873321777816 13.171970365663524 84636.95993043117 8.849685444369088 0.2208348171586436
0.5164263317582465 13.136388722680014 71935.17338749985 9.292960121547035 0.22400379371628396
0.5353455897129209 13.105833881373313 61271.994225658746 9.755205177950828 0.22720981319181402
0.5546528813319775 13.07981369124629 52301.79935470136 10.23723027414954 0.23045422663766454
0.5743355913338761 13.05783805530127 44726.04000659683 10.739506260449607 0.23373372634826886
0.5943929755701803 13.039516907314445 37990.21849208994 11.263278531739838 0.23705450886849913
0.6148304025541884 13.024497922546574 32898.73756866809 11.809484477236484 0.24041818567520554
0.6356354884165802 13.012436221208876 28290.178818240875 12.379103200560042 0.24382638989530112
0.656806700121364 13.003021444717875 24368.78921074327 12.972823423343804 0.247277068572305
0.6783391206317629 12.995972826320873 21026.309374914257 13.59197257875739 0.25077501400937435
0.7002282849436113 12.991052238102961 18171.073741169683 14.237748190998104 0.2543228602779655
0.7224581404899547 12.988018440129117 15727.765792050704 14.911340076285962 0.2579225922440839
0.7450514252437062 12.986638997765262 13633.18942948707 15.613776464374945 0.26157409156456235
0.7679716546776946 12.98675625749196 11835.053574120577 16.346326545453984 0.2652792829211262
0.7912174945244412 12.988145009418078 10288.083487465763 17.11060510512666 0.26904284298596987
0.8147926773553348 12.990678270319291 8955.416305653414 17.90806735777573 0.2728672046697855
0.8386748009885803 12.994137294797172 7806.529591836737 18.740073879339942 0.27675340603694687
0.8628558863864639 12.998413378518414 6813.465809794969 19.607978769687158 0.28070201362648983
0.8873382443979613 13.003354969032632 5954.814840181466 20.51386345535803 0.2847193463995977
0.912094709401964 13.008851224676437 5210.690254938855 21.45952228097671 0.2888084181348969
0.9371156463793355 13.014736801250725 4564.833343089671 22.446433207761306 0.29296910025068224
0.9623996362361668 13.020948828053124 4004.1501189545147 23.476634204030052 0.297205292405932
0.9879210209811545 13.027333835177208 3516.24664016644 24.55254187465503 0.3015230464089157
1.0136635021485685 13.033791615130474 3091.7625206851135 25.6760909610508 0.3059239369175761
1.039628263423813 13.040250181117482 2721.094008297591 26.849258141775344 0.31040933738529575
1.0657797140207546 13.046576684527478 2397.9254571603224 28.07513315378483 0.31498792801456243
1.0921075015402233 13.052712672140942 2115.4625040149413 29.355761098625166 0.31966008548942154
1.1186110995061909 13.058541907753076 1868.3735112408647 30.693917873925415 0.32443063219445856
1.1452417836220452 13.063996302026212 1651.8850582575376 32.09298317734338 0.32930748888005407
1.1720050670569795 13.069018818884608 1461.8283764632988 33.55491860651679 0.3342884857495937
1.1988621427955075 13.07346441976174 1295.2661243556054 35.0842571947385 0.33938712565358525
1.2258086394251484 13.077333908893065 1148.9190021812028 36.68301027863875 0.34460009647722023
1.2528050474842332 13.080493158066462 1020.0521622456666 38.356242503577505 0.34994191114485595
1.2798486247262084 13.082936282867006 906.6082044202183 40.106205985109554 0.3554092190892723
1.3068920194370142 13.084527545553938 806.6482536649078 41.93834981951565 0.3610164496408855
1.3339259391486213 13.08524527234982 718.4553519552638 43.85617870038581 0.3667656495263049
1.3609380093060708 13.085032351795409 640.5392421631294 45.864363318209506 0.37266447268961816
1.3878702065483528 13.083775879194356 571.7381721780116 47.96824629272722 0.37872292739729513
1.4147264668056363 13.081479764722284 510.7638783104762 50.17259438850425 0.38494671510585676
1.4414503522782938 13.078027762213186 456.8186483767894 52.48260906760596 0.39134271058878634
1.4680445050630853 13.073428177018474 408.9596530461961 54.90471616773196 0.39792265384243924
1.4944541690222914 13.067561813592267 366.48237819440754 57.44510592586896 0.40469560650909114
1.5206668533277308 13.060413621388847 328.79433693494957 60.11040672115533 0.411671340369248
1.5466501694715227 13.051929172753153 295.25841990646245 62.907724517406706 0.4188603958134399
1.5723663724070058 13.042045630865978 265.42756434395966 65.84468608207088 0.42627414508798644
1.5977905476021943 13.03071715432619 238.88790903570538 68.92948636499091 0.4339248608735118
1.622877665632694 13.017893587133916 215.20146798355358 72.17094046802198 0.4418257908234381
1.6476291655208954 13.00355311782834 194.06850282346107 75.57854069058446 0.4499912387654885
1.671979442562538 12.987620452918982 175.20571514203084 79.16219940249542 0.45843531792213343
1.6959160149796788 12.970065574713503 158.34944884724507 82.93216091956134 0.4671715184534079
1.7193959027359844 12.950853913350326 143.2587365806832 86.90113860222147 0.47622128503442723
1.7423789832210879 12.929916076590962 129.76132534193232 91.08068944008808 0.48559887394358103
1.7648598966946902 12.907264810698543 117.66445856168676 95.48494769379363 0.49532638082245944
1.7867873326348545 12.882827972443618 106.81042377229814 100.12753959922408 0.5054211591739994
1.808125501618411 12.85656829611009 97.0715645003331 105.02501396134585 0.5159089981660265
1.8288351823453837 12.8284307186756 88.31757710709553 110.19391376404114 0.5268124379230347
1.8489151187187012 12.79846246395645 80.45321813125949 115.65190368284861 0.538154970901715
1.8682912959478513 12.766523719775911 73.37941064996451 121.41913469162249 0.5499657102174044
1.8869692038654826 12.732701849805919 67.00017013579377 127.51704506275547 0.5622745085522308
1.9048930208569048 12.696883654692803 61.24819691174089 133.96809189601183 0.5751107175978054
1.922033891263198 12.659066629518858 56.06753399919098 140.79797458977612 0.5885106842671528
1.9383471082094559 12.619178175807159 51.3841535429838 148.03436588443665 0.6025126497067548
1.9538435669786436 12.57733088548239 47.15639150998058 155.70574575280224 0.6171523060755694
1.9684581007058886 12.533399914728395 43.33222183488764 163.84578507450303 0.6324773283454902
1.9821733790073486 12.487398599447623 39.87503329696496 172.48829466517162 0.6485293945168971
1.9949628058698334 12.439321657744333 36.74107458780191 181.67250743533685 0.66536147029214
2.0067985689425023 12.38915911854551 33.8983422744473 191.4404631035711 0.6830280865159508
2.017644558069002 12.336884210096075 31.323742663046577 201.83820195628235 0.7015884846533984
2.0274802048359977 12.282497502113186 28.98881455032314 212.915640757386 0.7211052196871347
2.036290138450682 12.22603064399575 26.86656804863147 224.7283497568954 0.7416488810023384
2.0440339943482693 12.167433807540212 24.939205743442976 237.33742205076572 0.7632963532375836
2.0506932546646714 12.106725635184354 23.18413944843981 250.80977216378224 0.7861303705828748
2.0562656523439147 12.043977759687433 21.590752730738625 265.218577821581 0.810239323540861
2.060711699493668 11.979126850483519 20.139100201033184 280.6454103784059 0.8357223270329561
2.0640161894450633 11.912230740191115 18.81917992142654 297.180187645604 0.8626869320228738
2.0661760908797415 11.843328063653283 17.616302038471204 314.9232623326813 0.8912535091332519
2.0671696874878283 11.77243391508844 16.522154794752517 333.98399361048695 0.9215477225928262
