M[M_sun], R[km], Lambda[1], P_c[MeV/fm^3], rho_c[fm^-3]
0.24162668629717493 15.618656898711224 2160425.4255784233 3.5677272577965504 0.1711233750220791
0.25364394068161883 15.2772752206487 1723242.1577345976 3.784819672443993 0.17388817388127986
0.26603994421433064 14.981251794467122 1382959.547792389 4.011401625958335 0.1766666628317728
0.2788149266701582 14.723539826057303 1116546.819265293 4.247729208502717 0.17945752574623305
0.29196939334013783 14.498413126735722 905855.3861008494 4.494427571195593 0.18226732826203096
0.3055044528783727 14.301245758114279 738667.3709783901 4.7516517901345825 0.18509176628571655
0.3194207244843287 14.128149106270723 605076.4870773193 5.020085043071532 0.18793747820304474
0.3337174520157049 13.975996434179073 497680.2837171681 5.299950125131054 0.19080106239175873
0.34839994754719394 13.842035501110564 411010.8307232979 5.591977138552464 0.19368884556581512
0.36346181130829003 13.724011290887365 340663.07342778525 5.89633149132495 0.19659585615485234
0.3789158681493671 13.620006878466079 283301.6793091784 6.213878042235015 0.1995297912629047
0.3947482441666291 13.528444893632823 236422.32816129268 6.544875199551079 0.20248684690030488
0.41097236726295583 13.447876919858576 197868.225408743 6.890023395935369 0.20547070104375792
0.4275806166540414 13.37706122811695 166085.1609175373 7.250028607616288 0.20848444336399813
0.4445755267239011 13.314951180466995 139806.73244708072 7.6251513132231326 0.21152364463670578
0.4619567118181048 13.260583268063133 117979.36176054779 8.0163375101484 0.21459442034814083
0.47972171445673506 13.213151578966404 99813.65899107738 8.424293576440638 0.21769844018727516
0.4978777426006271 13.172018443055435 84647.7148418231 8.84946251698138 0.22083320306910703
0.5164160245802135 13.136407921064652 71936.44948027133 9.292713356812607 0.2240020564771696
0.5353342666143894 13.105849964334652 61278.012453471354 9.75493290266155 0.22720794905105993
0.5546417687479152 13.079820781688507 52301.01073452817 10.236930713422632 0.23045223168008236
0.5743234196613852 13.057841470476744 44731.31609100086 10.739180715861368 0.23373163625117127
0.5943797892536611 13.039542574095947 38329.11087376385 11.262922107417616 0.23705228192288394
0.6148164784058713 13.024504179250547 32902.637494934 11.8090950674952 0.2404158174142627
0.6356202435087053 13.012460626374388 28061.357293974965 12.378678568341936 0.24382387561642874
0.6567904485711479 13.003024627278014 24371.746675735183 12.972365518633868 0.24727445137675566
0.6783221773165624 12.995986682920362 21029.067882331863 13.591474898992674 0.2507722430617808
0.7002092527791807 12.99105556020355 18172.64754320832 14.237208067570853 0.2543199300820119
0.7224437661106365 12.987998526705903 15730.773564298446 14.910754669120042 0.25791949697572686
0.7450302346929928 12.986657727623536 13634.532662497975 15.61314846288283 0.2615708816375045
0.7679514081355681 12.986759290675694 11837.067148888023 16.345647444891835 0.2652758977751482
0.7911951082352502 12.98813675031715 10289.261018880237 17.10987149705979 0.2690392756983612
0.8147684879725504 12.990661369442119 8956.602365029446 17.907275607787295 0.2728634478727032
0.8386514756965506 12.994128948751456 7807.8314525430005 18.739227499216188 0.2767495173582071
0.8628311866565448 12.998403506789296 6814.8219409723015 19.607066754040368 0.2806979219874609
0.8873114019761611 13.003354231702344 5955.637455721594 20.51288141445953 0.2847150429441126
0.9120672771439919 13.00884519128098 5211.292439062411 21.45846552449045 0.28880389340964563
0.9370877525538961 13.014735188498468 4565.521318417205 22.44530613784413 0.2929644190439026
0.962365682190513 13.020932487864677 4004.701476999126 23.475422676242708 0.29720037203160765
0.9878898966583679 13.02732764589998 3516.7407914757728 24.551240186168044 0.30151787541849745
1.0136316057275563 13.03378963214314 3092.0418179020744 25.674704150648086 0.3059185849491474
1.039595753839455 13.040244445295558 2721.5880454608437 26.847769254792965 0.31040371263837957
1.0657463890665788 13.04657255456432 2398.4696501032677 28.073535220458005 0.3149820165643519
1.0920786424644358 13.052693565616018 2115.929747765071 29.35405978246462 0.31965396179585703
1.1185751685478473 13.058535917271147 1868.7050270433997 30.692092862186847 0.32442419434729297
1.1452060566539417 13.063987274406934 1652.187158073653 32.09104042665335 0.32930081378003634
1.1719689701192608 13.069007854549964 1462.0943809757252 33.5528353277967 0.33428146488551197
1.1988244131759314 13.073459359017928 1295.5631048596983 35.08202355492423 0.3393797396122606
1.2257696070587734 13.077328953754963 1149.1153618941191 36.68063275977419 0.3445924269693952
1.2527643092631866 13.080491302681265 1020.2165194380516 38.35371145673239 0.3499339411209834
1.2798060707773489 13.082933008315086 906.763705266998 40.10349264119145 0.35540082490965935
1.3068504865091333 13.084522220129696 806.7994744403484 41.93546066895363 0.3610077153010321
1.3338872386301892 13.085232651112443 718.6250810980185 43.853081349774705 0.3667564425984569
1.3608944387473472 13.085037405290047 640.6405808289256 45.86106425774252 0.37265487946992365
1.3878253429779934 13.083775538932633 571.842897114191 47.9647314306238 0.37871292296512665
1.4146820533914954 13.081483972576766 510.8541783560754 50.168825181661404 0.38493615337290793
1.4414045551314987 13.07803380831833 456.8947607545564 52.47859149974173 0.3913316798526838
1.4679989874048192 13.073438129493011 409.0383082365767 54.900432448817504 0.3979111228415316
1.4944083130315058 13.06757346494536 366.55883539279694 57.4405368248259 0.4046835415649841
1.5206199896024561 13.060428010078411 328.86777387651665 60.10553143683115 0.4116587051883315
1.5466031105398175 13.051943563972639 295.3077029530938 62.90252053667598 0.4188471512687454
1.572319021153733 13.042066673607192 265.47725896604015 65.83912902362746 0.4262602489792626
1.5977430895322144 13.030740403316674 238.9397076743425 68.92354980722392 0.433910267663161
1.6228308952655641 13.017919883684172 215.25215968383594 72.16459575916936 0.441810451345674
1.6475836836342648 13.003582120387728 194.1103679312184 75.5717567391335 0.4499750999057549
1.6719303044483846 12.987650088426358 175.24568182113055 79.15497787051864 0.4584184701706513
1.695867862150733 12.970105317768002 158.3719459235047 82.92443134683495 0.46715375591779484
1.7193486003941194 12.950894871449028 143.28712528544978 86.89286119736833 0.4762025407849955
1.7423343343056286 12.92995623037916 129.78536282812146 91.07186075776006 0.4855792333751223
1.7648148494308147 12.90731154262797 117.6873476432813 95.47548268055797 0.49530561246998567
1.7867412984409097 12.882877329244813 106.8273315657087 100.11743001351412 0.5053993431266294
1.8080797987946857 12.856626248057015 97.08929394144066 105.01420737782665 0.5158860503632721
1.8287908166403204 12.82849561215675 88.33678018362117 110.18235299924001 0.5267882674390887
1.8488715898160415 12.798533206897371 80.46868779734697 115.63947907680924 0.5381293059530396
1.8682582919950244 12.766627269941027 73.3847547193808 121.40582363791151 0.5499386137900057
1.8869271960601353 12.732781854454762 67.01197895979351 127.50278958932543 0.5622459241757245
1.9048511204921665 12.69697031523099 61.26056440126964 133.95282916005564 0.5750805842179905
1.9219946554050624 12.65915583380525 56.07854368228995 140.78158124551663 0.5884787437984615
1.9383098766083173 12.61928453132447 51.397342491311875 148.01674375662864 0.6024787526671606
1.9538073058697918 12.577431986466756 47.16544767190424 155.6868450574709 0.6171164873659302
1.9684244692702288 12.533509867049741 43.34162556074023 163.82549126959339 0.6324394193492657
1.9821412146443833 12.487514294093343 39.88157115694164 172.4664208865097 0.6484890069762272
1.994929896138789 12.439445234210865 36.746017365246914 181.6489743859323 0.6653186045163454
2.006769200547543 12.389288061285702 33.90557165667896 191.41511795672676 0.6829825232414996
2.017618196185619 12.33701924081848 31.32958398421731 201.8108761259303 0.7015399839999944
2.0274566497792224 12.282638856714993 28.99268191388886 212.88621698371458 0.721053744555465
2.0362684801982436 12.22617908231499 26.87089843339784 224.69655568439958 0.7415939241911198
2.0440168604390814 12.167590018754 24.944561448321824 237.30310278076257 0.7632378357296064
2.0506749468843415 12.106901516558647 23.189685731885845 250.14859535228788 0.7849047816070372
2.0518737366802235 12.054186735723487 22.100117053183542 267.4225400934438 1.8132590056501
