M[M_sun], R[km], Lambda[1], P_c[MeV/fm^3], rho_c[fm^-3]
0.24162668629717493 15.618656898711224 2160425.4255784233 3.5677272577965504 0.1711233750220791
0.2536340925641575 15.27752626963036 1723277.8156341692 3.7846398711289773 0.17388593274462721
0.2660191376266947 14.981735470078311 1383516.9986874461 4.011023660019751 0.1766620953364652
0.27878291632985625 14.72412670819585 1117017.3479992144 4.247140303435263 0.1794506953349116
0.291926123967218 14.499095416537886 906525.4196580356 4.493612286788892 0.18225824988094472
0.30544885561771457 14.30198714616579 739318.5546329786 4.750582458911916 0.18508021546766246
0.3193529120184198 14.12891483611552 605610.5498145912 5.018753801880542 0.18792366606187633
0.3336364732728832 13.976769777430027 498257.5039251194 5.298321944021887 0.19078466930963045
0.34830320170389734 13.842854725716832 411520.02458993526 5.590047966560514 0.19367018029609606
0.3633514423979852 13.724785645219438 341101.34935486387 5.894058008377627 0.1965745031218908
0.37878882496016886 13.620794701108242 283731.0613381852 6.211232756756072 0.1995056694444678
0.39460456838528724 13.529242363573303 236795.19185904012 6.541860872151136 0.20246041532116424
0.41081202556624563 13.44862753347552 198210.83495682475 6.886581863654876 0.20544139151067425
0.42740303682039477 13.377761302573978 166393.49293000123 7.246127600699828 0.20845217133352067
0.44437992304174845 13.315597716798482 140083.27359287383 7.620801626651133 0.2114890183347534
0.4617418503103397 13.261208030016885 118219.30155904524 8.011463312742055 0.21455671449058342
0.4794878223429051 13.213737356248105 100036.7992170743 8.418856890265056 0.21765756390758267
0.4976243521477715 13.172526326814275 84838.20093366489 8.843483398607246 0.22078991169739756
0.5161403948204956 13.13687945171307 72115.17418338225 9.28609509532226 0.22395546350367704
0.5350391002532342 13.10628080941582 61433.20473292443 9.747630661013734 0.22715795403943723
0.5543245773379112 13.080199749680274 52439.00869896652 10.228896931710825 0.23039872982787013
0.5739819955238976 13.058192070499482 44849.44951602191 10.730450306160641 0.23367558431655014
0.5940201308592316 13.039836728788478 38433.464423410216 11.25336384891395 0.23699256175078393
0.6144308892715241 13.024763975822571 32994.73354060234 11.798652541596905 0.24035230943383132
0.635207728221174 13.01264320771158 28376.46179912019 12.367291838646265 0.24375645394497153
0.6563507647790517 13.003188116626925 24445.565926866406 12.96008687168943 0.2472042716659174
0.6778624340569896 12.996117636717115 21094.25290633266 13.57813007771472 0.2506979426721967
0.6997257025085578 12.991154823568856 18231.41530259286 14.22272558014425 0.2542413618809046
0.7219332385656491 12.988051846688556 15781.537273089583 14.895058432785577 0.25783650505748545
0.7444947729129281 12.98665797468415 13680.464867234725 15.596310571504869 0.2614848175057951
0.7673874732479044 12.986731662988852 11877.156506622434 16.32744002258281 0.2651851383415169
0.7906051780487707 12.988100272560409 10326.503080599845 17.09020324419771 0.26894363564492213
0.8141527590364953 12.990584537430248 8989.750827473994 17.886049175010942 0.2727627299669421
0.8380071347568462 12.994030803798124 7836.943520923724 18.716504442513283 0.27664497758541756
0.8621636269517318 12.998284454683434 6840.44496030641 19.582617364023097 0.28058823299387675
0.8866069120429758 13.003193231538527 5978.579610588089 20.486555561870524 0.2845996789761796
0.9113350010789194 13.008691324103113 5231.568027376773 21.430137594018838 0.28868260141476626
0.9363351142935563 13.014557407533584 4583.749639806146 22.415094081594276 0.292838935362377
0.9615802971491286 13.020745118624438 4020.7495078819584 23.442947633691162 0.2970684812345305
0.9870781124263696 13.027122590254784 3531.129064826868 24.516349441736427 0.3013792710542847
1.0127927193174342 13.033582064059015 3105.1314733405798 25.637522657862107 0.3057750593567464
1.0387214358288517 13.040027165616378 2733.283452859904 26.807863009019265 0.31025295402774605
1.0648538104156484 13.046366267920966 2408.7899909904577 28.030707564628372 0.314823578442546
1.0911547885686175 13.05248780477951 2125.011966951688 29.308462417356292 0.31948983927839186
1.1176247482074666 13.058337052700246 1876.8011260715182 30.643181850403337 0.3242516575838721
1.144232853389629 13.063808175252284 1659.424044061664 32.03868879105663 0.32912006927473303
1.1709660814380773 13.068831219686773 1468.7964828711124 33.49700589904228 0.33409331395435454
1.1977952972479367 13.073302279847436 1301.4782077252946 35.02216658134879 0.3391818088279088
1.2247177371561817 13.07719657866315 1154.3625480414235 36.61692182183242 0.34438690534583627
1.2516943460391157 13.080391328515372 1025.062597124212 38.28541792365079 0.34971761225661735
1.2787067213826122 13.082853675104449 911.0293548646456 40.0307869510317 0.35517589779370684
1.3057296235497446 13.084474006260255 810.6855559483545 41.858046294302916 0.36077367991823667
1.332751229904073 13.085251967034194 722.0867085527303 43.77009117620586 0.3665097528832531
1.3597323144765223 13.085062628845918 643.8981438789536 45.77267203797423 0.3723978469020129
1.386644424878058 13.08385622541858 574.6974515174945 47.87055997455203 0.3784448806019389
1.4134743980630795 13.081594483999366 513.4608963397555 50.06784290948687 0.38465318991779845
1.4401986415011756 13.078236821424564 459.22282302370564 52.37095857894763 0.3910361601787537
1.4667659046000274 13.073666691815674 411.14129627592524 54.785672766829585 0.39760221041669885
1.4931661034800625 13.067882059695183 368.450533951164 57.31813572662723 0.4043603352286641
1.5193671361031595 13.060807376970773 330.572536452989 59.97493227647648 0.4113202338482196
1.5453409397131703 13.052391177971783 296.85655086855405 62.76312088494438 0.41849236807232476
1.5710500192566021 13.042587920963703 266.8809573798625 65.69027649354555 0.42588802490371946
1.5964679534006259 13.031347850006831 240.17813576140534 68.76453745453799 0.4335193844607719
1.6215625333337977 13.018620916909764 216.39040011282736 71.99465700957313 0.44139959377423205
1.6462945589827318 13.00436315604503 195.15368018366135 75.39005978808612 0.4495428471651248
1.6706589427058152 12.988534388938831 176.18651067427112 78.96090386472386 0.45796447398117535
1.6945910561323816 12.971089759544276 159.2319467658525 82.71742183570532 0.4666780486641285
1.718083883818396 12.951987353974223 144.06842821068486 86.67118860748505 0.47570056143389916
1.741085660473442 12.931180624242563 130.4973591999009 90.83543277217683 0.48505326813321276
1.7635717887272837 12.908640337523131 118.32992884484597 95.22202449425782 0.49474946861478025
1.7855095493999027 12.884318531543618 107.41387268410718 99.84672101887631 0.5048151648605782
1.806855220559071 12.858164887083085 97.6251552938971 104.72458331883522 0.5152705988444338
1.827604299942729 12.830215815472776 88.81966076354372 109.87167265541602 0.5261368620699383
1.8476890069305953 12.800334288360586 80.91474599674729 115.30682031073748 0.5374421477340504
1.867112143068676 12.768599366115968 73.7962655681599 121.049445659376 0.5492131588236668
1.885800348831522 12.734872076536131 67.38033589942805 127.12069402879466 0.5614790614345332
1.9037557163923968 12.699206082428713 61.600160695581806 133.5436119430607 0.5742716971875805
1.920926708970567 12.661525256180324 56.38532055142268 140.34273644136 0.5876237072357198
1.9373046104513472 12.621889291361203 51.679346906264655 147.54502695379563 0.6015713819275368
1.95284803815311 12.580218261143811 47.425030378778146 155.18092492122827 0.6161577180644309
1.9675028159645247 12.536438409616668 43.57895670576255 163.28085731907183 0.6314198383590275
1.981271793379668 12.490616822292703 40.10071697254617 171.88097610142245 0.6474080471917723
1.9941216298278743 12.4427513937297 36.94468114402853 181.01915032041742 0.6641713712480048
2.005996804679021 12.392725468568749 34.091452193898206 190.73683022062175 0.6817631572434656
2.01690273314195 12.340640595882892 31.500113730228144 201.07961951692573 0.7002420756515277
2.0268070762238968 12.286456737904953 29.149649674586435 212.09773595095402 0.7196726294237045
2.035680065812464 12.230176128213348 27.012984303828198 223.8458163368295 0.7401234009756135
2.0435031525489706 12.171806783406796 25.073886826574867 236.38388762540276 0.7616690011330719
2.0502433245200242 12.111322376667223 23.31076907998883 249.77834504063767 0.784391823968833
2.0558760212323377 12.048726850693143 21.705359112180556 264.10242800533064 0.808381985399683
2.060406864719679 11.98410633484073 20.245450444773933 279.43656408840764 0.8337366038753836
2.0638093024412516 11.917445811577384 18.916337076330088 295.8700241352601 0.8605630920123981
2.0660514134923647 11.848743616373081 17.70594036281024 313.5008563433738 0.8889765169100967
2.0671336731879997 11.778065943786727 16.603886516974715 332.43910619888084 0.9191073793789406
