M[M_sun], R[km], Lambda[1], P_c[MeV/fm^3], rho_c[fm^-3]
0.24162668629717493 15.618656898711224 2160425.4255784233 3.5677272577965504 0.1711233750220791
0.2536447483700749 15.277288805884664 1723156.69248365 3.784833761385592 0.17388834949314017
0.26604077430105555 14.981254012744111 1382919.1149085069 4.011431243837193 0.1766670207463595
0.2788167719398705 14.72352599935131 1116449.2940523282 4.247775357452813 0.1794580610045092
0.291972514834425 14.498389914238556 905867.5952953649 4.494491462319388 0.18226803970452277
0.30550942961710875 14.30121161005546 738737.8540445748 4.751735592968283 0.18509267151626066
0.3194263736521968 14.128083388835435 605058.4840825379 5.020189375051153 0.18793856068760176
0.3337263358349759 13.975899957423096 497649.7744913714 5.3000777331888385 0.19080234719316058
0.3484075262055663 13.841972586635665 410972.6468741778 5.592128341420294 0.19369030849515584
0.36347161629070485 13.723922125621952 340632.24554049684 5.89650968616805 0.1965975297985288
0.3789260049140519 13.619951610030894 283278.65737432736 6.214085385638032 0.1995316819850825
0.3947592101049094 13.528401072646595 236390.2929868601 6.54511147636402 0.20248891872876004
0.4109852787621976 13.447819447037912 197835.63744501374 6.890293167700742 0.20547299853331716
0.4275937497810854 13.377015343662231 166063.06409183005 7.250334406042895 0.20848697315601203
0.44459110568007737 13.31488104107747 139784.35531774294 7.625492293231682 0.21152635905682327
0.46197359728548965 13.26055578706762 117966.53226509092 8.016719619545736 0.2145973762732514
0.479738953801226 13.213121557036597 99804.28181908326 8.424719795098628 0.2177016447557405
0.4978975543879534 13.171953720057754 84626.63615044307 8.849931273461264 0.22083659706630562
0.5164375752167447 13.136371427358274 71926.41742321866 9.293232237447123 0.22400570942918502
0.5353577417724661 13.10581306349445 61266.1263658293 9.75550542588259 0.22721186884808536
0.5546654591542317 13.079783131377866 52297.79759219825 10.237560611469464 0.23045642655535023
0.5743499793154252 13.057815152105867 44722.33350601328 10.739865251876427 0.23373603118443068
0.5944078796617139 13.039504435973473 38320.468370870294 11.263671576390218 0.23705696461858736
0.6148466490085118 13.024492615227857 32896.18510011136 11.809913897295822 0.24042079726563784
0.6356523973853149 13.012443723217087 28287.08635820994 12.379571463100298 0.24382916251254844
0.6568246122522504 13.00300264524151 24366.373968773318 12.973328378011812 0.24727995468612093
0.6783577051396906 12.995979254422428 21023.80692591161 13.592521396594329 0.25077806968005334
0.7002473366236178 12.991061976742484 18168.773633092405 14.238343815019244 0.25432609156734964
0.7224837498844586 12.987991012387404 15725.529196009942 14.911985638615269 0.2579260055754656
0.7450728499145332 12.986639186651425 13631.003956803543 15.614468999192018 0.26157763134317075
0.7679952419070445 12.986761546340999 11833.894462763417 16.347075431921727 0.26528301593234066
0.791242388841386 12.988144585733618 10286.551444686458 17.111414102200133 0.2690467768647888
0.8148191678872793 12.990667567161081 8954.461686369146 17.908940473642808 0.272871347542144
0.8387011590553711 12.99414672561925 7805.656175467948 18.74100724121571 0.2767576943518316
0.8628835345480137 12.998421472462685 6812.42476431019 19.608984514632574 0.2807065257697698
0.8873677064158595 13.003367472198352 5953.953669885932 20.514946424587293 0.28472409213867733
0.9121247733390376 13.00886339862746 5209.744399449128 21.460687647243667 0.2888134078957771
0.9371463119044504 13.014751951123928 4564.135099784786 22.44767611630207 0.29297426258515574
0.962431829193832 13.020957433069778 4003.5685588568795 23.477970253940445 0.29721071850159725
0.9879531146269807 13.027344089684073 3515.4776567767344 24.55397735537093 0.30152874889234527
1.0136976512364317 13.033804144365451 3091.0391034898876 25.677620315659166 0.3059298389915468
1.0396624425537258 13.040264316959666 2720.683162268508 26.850900068790388 0.31041554028989754
1.0658165443329428 13.046589690386336 2397.5361662442374 28.076895339961546 0.3149944471074874
1.0921504410194978 13.052719233371162 2115.064590603572 29.35763729800977 0.31966683865521384
1.1186499202841522 13.058550803157313 1867.8642006175098 30.695930488727452 0.32443773182358693
1.1452832546100347 13.064001437811754 1651.6490267082463 32.09512563829733 0.32931485016486794
1.1720475098824121 13.069013336152612 1461.6149557863769 33.557216047063626 0.33429622836111256
1.1989051267817432 13.073471679262806 1295.0186429393518 35.08672045964269 0.3393952710028308
1.225851867113868 13.077340159193307 1148.728495292095 36.685632219093335 0.3446085544512591
1.252849983629873 13.080500726594266 1019.8536854898903 38.359033761217496 0.34995070054757604
1.2798927330374048 13.082938062774966 906.4423798794559 40.109198289009804 0.35541847627787554
1.3069371891673291 13.084525700459041 806.5404063022072 41.94153601153608 0.3610260819820692
1.333976090077977 13.085240865385492 718.3632853501739 43.85959450706935 0.36677580307029356
1.3609854870323703 13.085033331151042 640.4141841204945 45.868001581619176 0.37267505226539277
1.3879178702702233 13.0837690735328 571.619978129572 47.97212255469417 0.37873396049013763
1.4147687477025042 13.081461780671575 510.6594912335123 50.17675115851748 0.38495836283351936
1.441499980330536 13.078024223587606 456.729578494749 52.48703974623049 0.3913548755722575
1.4680954688098315 13.07341905562635 408.8855871062433 54.90944037580921 0.3979353705609529
1.4945055380466823 13.067550310280817 366.40151725450136 57.450144873666794 0.40470891210749355
1.5207180863407728 13.060400828651876 328.73766056735565 60.11578335068488 0.4116852748769218
1.546701973980695 13.051908044772999 295.18884400349754 62.913463658941915 0.41887500238492903
1.5724181410434603 13.042024766031007 265.37440798875616 65.85081462644996 0.42628947026764363
1.5978314940898062 13.030685592406607 238.82714953264772 68.9360334534761 0.43394095488677675
1.6229295132215482 13.017864758572479 215.1592323320457 72.17793770170914 0.44184270789765656
1.6476826687241612 13.003520814896117 194.02819173473492 75.5860223616011 0.4500090374835341
1.6720307796070057 12.987584273356273 175.17098402311925 79.170163677276 0.4584538984840793
1.695967889554096 12.970024845332162 158.30977138788958 82.94068551230984 0.4671911079427163
1.7194481495362208 12.950808790915916 143.22927086518033 86.91026740105207 0.47624195727232405
1.7424244541916012 12.929830899731748 129.7280348689766 91.09042624457841 0.4856205347495831
1.7649117654151842 12.907208551774184 117.63671586263891 95.49538631500164 0.49534928548822066
1.7868385985768573 12.88276691997024 106.78816107566765 100.13868912675395 0.5054452193707004
1.8081760482813498 12.856502766823697 97.05642881682988 105.03693221851793 0.5159343066101131
1.8288842230862288 12.828360707829694 88.29760035550838 110.2066638225333 0.5268390949037273
1.8489630465649933 12.798385603695946 80.4380181482502 115.66560649613987 0.5381832761854974
1.8683382048829793 12.76644193215279 73.36085179317591 121.43381519356313 0.5499955943395517
1.8870140699462155 12.73261638046333 66.98239617001614 127.5327298646422 0.5623059004413825
1.904936897547681 12.696791228453428 61.23448140585725 133.9849249736752 0.5751439513197372
1.9220750891801885 12.658966954155103 56.053088021665964 140.8160546632272 0.58854591112574
1.9383881598948027 12.619070441575047 51.37196770673693 148.05380124139606 0.6025500345828355
1.9538821818080958 12.577219790992334 47.147011357189115 155.7265913038395 0.6171918104814541
1.968497115488953 12.533278302958191 43.32683648616255 163.86816716050447 0.632519138268149
1.9822097708877495 12.487272135491828 39.86617307292451 172.51241940249085 0.6485739382066128
1.9949957528222078 12.439184934290841 36.73276126408293 181.69846228883148 0.6654087474176649
2.006829835929788 12.389016976864095 33.892082343672904 191.46841664544675 0.6830783389334331
2.017674006235667 12.336733180826418 31.316768002462247 201.86834014292643 0.7016419769618046
2.027507685234563 12.282341909642478 28.981681248758665 212.94809292846003 0.7211619928188769
2.036313613984372 12.225863891494521 26.859404100279374 224.76341633569984 0.7417094944186187
2.044054766819471 12.167261779078414 24.933555452759073 237.37527389607948 0.7633608941109733
2.050711512903732 12.106544095567624 23.17980478203809 250.8506827882985 0.786199207581468
2.056280766634608 12.043787546559901 21.586810355788685 265.26293490474507 0.8103131363043383
2.060723726713292 11.978928297775731 20.135399385124913 280.6933825404412 0.8358010125441169
2.0640253698145883 11.912024633605679 18.815483152534323 297.23223424353114 0.8627712568372833
2.0661816997094737 11.843112876713855 17.613305207864947 314.9798013734045 0.8913440170170762
2.0671712148078782 11.772210881959586 16.519427799298477 334.0453980561976 0.9216447060098738
