M[M_sun], R[km], Lambda[1], P_c[MeV/fm^3], rho_c[fm^-3]
0.24162668629717493 15.618656898711224 2160425.4255784233 3.5677272577965504 0.1711233750220791
0.2536447058115746 15.277253487717765 1723182.1533272923 3.784834218275877 0.17388835518805715
0.2660408236300571 14.98125202079047 1382940.6591852058 4.011432204318011 0.17666703235320336
0.27881657017291933 14.723507763941196 1116331.8368561915 4.247776854025136 0.17945807836249286
0.2919725866627564 14.49838213269843 905843.0452313352 4.494493534261072 0.1822680627760743
0.305508906568255 14.30119097541168 738654.314656552 4.751738310638999 0.18509270087229113
0.31942692660253474 14.128070596005548 605048.3878516889 5.020192758476892 0.1879385957919497
0.33372684756716553 13.975914439396735 497656.14829679014 5.30008187145483 0.1908023888586325
0.3484077718675655 13.841970513273852 410971.3570236991 5.592133244865848 0.1936903559373405
0.3634716593070397 13.723928147824822 340638.09891790646 5.896515464966372 0.19659758407422553
0.37892564914953314 13.619957426026057 283265.27306999697 6.214092109730817 0.19953174330071238
0.3947595255967477 13.528400366419975 236382.22940700108 6.545119138777011 0.20248898591777056
0.41098571325904276 13.447815988887161 197838.59972022838 6.890301916369891 0.20547307304065487
0.42759478965061337 13.377044125023133 166068.85733043074 7.250344323076549 0.20848705519708993
0.44459051728133836 13.314889742250278 139783.36246267695 7.625503351226712 0.21152644708557397
0.4619741356643534 13.260523306348734 117962.33113069255 8.016732011397679 0.21459747213424457
0.47974021381677295 13.213136430220747 99796.46432999022 8.424733617451453 0.21770174868051045
0.49789826366630485 13.17195485951339 84629.33700379705 8.849946475355157 0.22083670713451267
0.5164387175719051 13.136363187183793 71927.64383895231 9.293249064919308 0.22400582789563828
0.5353584870971598 13.105812205451093 61265.345513525375 9.755523993044632 0.22721199596870487
0.5546657206840411 13.079785375854273 52294.683935556845 10.23758103936762 0.230456562597183
0.5743507907826513 13.057813669392022 44720.96626575424 10.739887451754225 0.2337361737145228
0.5944044086131784 13.039540971885803 38318.801123277524 11.263695882134822 0.2370571164813195
0.6148480766625614 13.02450535904893 32896.310164624265 11.809940452515715 0.2404209587656812
0.6356534138347759 13.012419643854045 28286.18308885801 12.379600420364268 0.24382933397065712
0.6568257286403504 13.003009352625526 24365.412567695934 12.973359604342077 0.24728013316301975
0.6783588106273752 12.995969440398607 21023.598041184734 13.59255533545871 0.25077825864255743
0.7002486063315437 12.991063722715044 18168.04395271024 14.238380648420543 0.25432629139034935
0.722484507302084 12.987993700912257 15725.65017685704 14.912025560251488 0.2579262166562048
0.7450742097173941 12.986639163814678 13630.894768605673 15.614511825654818 0.26157785024364066
0.7679961263881989 12.986765776151767 11833.404258708211 16.347121743236315 0.2652832467826286
0.7912429953711618 12.988143774981358 10286.008081959953 17.111464130830186 0.2690470201370756
0.8148200128970542 12.990671082110309 8954.253066925066 17.90899446746555 0.2728716037389722
0.8387028037023176 12.99414965410413 7805.69881663539 18.741064960733187 0.2767579595431496
0.862885028205022 12.998419958201739 6812.368091054644 19.609046710428764 0.28070680480308247
0.8873694761212267 13.003358907430448 5953.804263668652 20.515013396057313 0.28472438561804303
0.9121266621905266 13.00886094662367 5209.911270172331 21.460759714286542 0.28881371646598497
0.9371490280077648 13.01474521901773 4564.163786606156 22.447752978690193 0.2929745818277572
0.9624338032547889 13.020964163478476 4003.384841857166 23.47805287636482 0.2972110540558121
0.9879568167366665 13.02734190240927 3515.6929376226603 24.55406612679142 0.3015291015390571
1.013698909252791 13.033804929144079 3091.076109029611 25.677714892423484 0.3059302039814948
1.0396662429528516 13.040261119806644 2720.6893151662434 26.851001607272476 0.3104159238839989
1.0658184654330716 13.046585158307868 2397.4857590511247 28.077004315538318 0.3149948502555321
1.0921531936022424 13.052716922769225 2115.072789791553 29.357753324414624 0.3196672562790307
1.1186526296577146 13.058552510164827 1867.8485481858509 30.69605495139 0.32443817087369403
1.1452857926221 13.064004369722767 1651.5986053721608 32.09525813095452 0.32931530539658804
1.1720497862568968 13.06901336760637 1461.6143432261329 33.5573581240597 0.3342967071752381
1.198907567678951 13.073472235087323 1295.0241911061253 35.08687279166277 0.3393957747235239
1.2258547748492743 13.077338195875432 1148.6857184356302 36.6857943640312 0.34460907750572917
1.2528524173702151 13.080501212159493 1019.8336801234404 38.359206377194134 0.3499512440987384
1.2798959360700384 13.082944421703223 906.3982664285963 40.10938333828274 0.35541904875850505
1.3069405955326994 13.084520054381763 806.5230022800107 41.941733051418865 0.3610266776634863
1.333979164693217 13.085240621111332 718.3590843029245 43.85980574704855 0.366776430984757
1.3609874118307397 13.085032888949671 640.3706505273553 45.868226579018604 0.37267570652726667
1.387921444257854 13.0837667329567 571.6026289882764 47.972362270691725 0.37873464279924873
1.4147718432779424 13.081460258927672 510.6422409784902 50.17700822210277 0.38495908315401434
1.4415032693540009 13.07802163285825 456.7313360866689 52.487313749265105 0.3913556278819305
1.468098593463591 13.07341843731623 408.8776411447927 54.90973253174228 0.3979361569921816
1.4945085576555084 13.067548524592874 366.40589014973926 57.45045649424829 0.40470973495751655
1.520720733697416 13.060400980087556 328.73158943382475 60.11611585476725 0.4116861366213775
1.5467051814008397 13.051907580873918 295.1887327730414 62.91381858216075 0.4188759056927386
1.5724214055352532 13.042023142324142 265.3688567419533 65.85119363188062 0.4262904180173794
1.5978344100112876 13.030685741062959 238.82714429509494 68.93643834337637 0.43394195018467757
1.6229329495634974 13.01786266682461 215.1635764579073 72.17837043047092 0.44184375409747023
1.6476856423727169 13.003519159998657 194.02546284258278 75.58648505004963 0.45001013820838826
1.6720329312153615 12.987582082746645 175.16317347250384 79.17065621199939 0.45845504756195404
1.6959714392046352 12.97002213010078 158.3099724775562 82.94121269963152 0.4671923194176461
1.7194513615868956 12.9508060212121 143.22731695478427 86.91083195528822 0.47624323570990296
1.742427950403031 12.929827733786707 129.74303097804716 91.09102840070175 0.48562187432531184
1.7649155337093936 12.907204066555613 117.63606418463833 95.49603187490717 0.49535070199079995
1.7868418128846453 12.882764475040107 106.78724901481792 100.13937865258363 0.5054467073375266
1.8081787794809911 12.856498895392198 97.05067269732493 105.03766928644554 0.5159358717754023
1.8288921830367244 12.828368091657728 88.29967434626677 110.20745233333622 0.5268407434700662
1.8489656412710556 12.798381686089678 80.43593572825462 115.66645393045754 0.5381850266923707
1.8683411430770231 12.766436799599086 73.3588186390977 121.43472309345968 0.5499974424910329
1.8870157638105598 12.732611532643284 66.98049270443583 127.53369987590787 0.5623078418421313
1.904939638348844 12.696785886603639 61.23347378492349 133.98596600086864 0.5751460066306531
1.9220789828909535 12.658960714179436 56.053764906732795 140.81717281194523 0.5885480897046531
1.9383912474978475 12.619067175715617 51.373801458504225 148.05500320899515 0.6025523466273139
1.9538851239756345 12.577212680125056 47.14596514622341 155.72788048637 0.6171942536113983
1.9684991699037409 12.533272732537213 43.32515275099544 163.8695513718886 0.6325217239865182
1.9822116332741755 12.487264748857555 39.865444843418466 172.5139113907205 0.6485766929997482
1.9949969012615425 12.439176411092776 36.73121218674088 181.70006746341247 0.6654116712654211
2.006831424973186 12.389007954580704 33.889484065422394 191.47014543232567 0.6830814467943389
2.0176756600742505 12.336724333484787 31.31713455997233 201.8702040432751 0.701645285201065
2.027509374087428 12.282332016992374 28.98076522159417 212.9500999417056 0.7211655039684743
2.036315110090769 12.225853885159246 26.859857576669505 224.76558504284273 0.7417132430805448
2.0440555149488353 12.167251253665677 24.933033705331876 237.3776148645251 0.763364885677218
2.0507126501672595 12.106532969031276 23.179382920336614 250.85321293466234 0.7862034648540897
2.0562822484037624 12.043774945935164 21.58626657146919 265.2656782070259 0.8103177013187162
2.06072413755879 11.978916326573085 20.135164615466348 280.6963494275569 0.8358058789295236
2.064025744874519 11.912011801488006 18.815372070323466 297.23545312690356 0.8627764720051097
2.0661832073409014 11.843098485656878 17.61324437751436 314.98329810695304 0.8913496145997328
2.0671706833148384 11.772197907402314 16.51832965566764 334.04919570773296 0.9216507040971196
