M[M_sun], R[km], Lambda[1], P_c[MeV/fm^3], rho_c[fm^-3]
0.24162668629717493 15.618656898711224 2160425.4255784233 3.5677272577965504 0.1711233750220791
0.2536403536490358 15.277402345056009 1723260.5152399668 3.7847699299874074 0.17388755386555507
0.2660340276037063 14.98139327172741 1383192.6308505218 4.011297058243515 0.1766653991926508
0.2788062441597503 14.723688266513298 1116595.6366911703 4.247566278722794 0.1794556360063159
0.2919574791255164 14.498592598917377 906051.3521038287 4.4942020048614735 0.1822648165285493
0.305488927110021 14.3014420918899 738833.5845757345 4.751355929286 0.18508857042389296
0.31940273542521735 14.128350649613548 605227.2557939618 5.019716709289316 0.18793365659789046
0.3336956490577533 13.976218520368155 497843.1453851704 5.299499622462211 0.1907965265774026
0.3483723583670526 13.842273412656946 411150.1298716132 5.591443343198488 0.19368368094892335
0.3634310888261548 13.724237624763656 340774.82176139794 5.8957024123537325 0.19658994771202737
0.37887940515039714 13.620263469262948 283414.8044062495 6.21314606838051 0.19952311654270552
0.39470854011474493 13.528675687789594 236512.16428982554 6.544041091779674 0.20247953290197407
0.4109284400937987 13.448099327431047 197965.1246060205 6.889071053887644 0.20546259049924467
0.42753043336835017 13.377273634407585 166143.12220140477 7.248949096442017 0.2084755128447084
0.4445217611091505 13.315114901168629 139884.04043851202 7.62394761749001 0.2115140624446963
0.4618974618212036 13.260744484262739 118047.32318857055 8.014988637254593 0.21458398572579035
0.47965689766020836 13.21331491381892 99874.20087036038 8.422789010272977 0.2176871279530393
0.49780744426407536 13.172142256380033 84697.08938127915 8.847807805854892 0.22082122225354758
0.5163400313175277 13.136549368587358 71987.20017906955 9.290881725959595 0.22398916168177552
0.5352522164773741 13.105972457127208 61318.994238161686 9.752911935797123 0.22719411244214596
0.5545535877715103 13.079933951478354 52341.40165907919 10.234707239914085 0.23043742421389526
0.5742295459793426 13.05794955991075 44764.95786990177 10.736764397067235 0.23371612273603107
0.5942794156693105 13.039616938137252 38027.09909760647 11.260276610633355 0.23703575281110217
0.6147101262195815 13.024570104360965 32928.94494383342 11.806204767811055 0.24039823956982456
0.6355045769037919 13.01250333897635 28318.412309432802 12.375526866195575 0.2438052141541545
0.6566706412594752 13.003077013767038 24391.651135153712 12.968966886914473 0.24725502619152212
0.6781947851828681 12.996014824250153 21047.029393886318 13.587781083849002 0.2507516768886931
0.7000752956983969 12.991087188649107 18189.04830981217 14.233199267803878 0.25429818214762656
0.7223019611978754 12.988010732108114 15743.97072536119 14.906409811451253 0.25789652407542546
0.7448826510630986 12.986657772346527 13647.462765391087 15.608487506631196 0.2615470579208806
0.7677949286954285 12.986752094981231 11846.973437780398 16.340607281560406 0.26525077382505763
0.7910329443806268 12.988124055195843 10231.608042413973 17.10442683691231 0.26901280015978063
0.8145986995429502 12.990635232801464 8965.803744523359 17.901399484650472 0.2728355660885819
0.8384722227152488 12.994110242696339 7815.06683501327 18.732945973720373 0.2767206569987024
0.8626465054658023 12.998366309683712 6821.860892920346 19.600298165965352 0.2806675556014934
0.887113106940623 13.003306059284228 5962.049872814083 20.505593194457173 0.2846831048340059
0.9118659873236546 13.008802210262246 5216.879418089318 21.450622873265445 0.2887703134482299
0.9368775032196798 13.01468887673658 4570.476139286192 22.436941721178307 0.2929296780190494
0.9621484256554597 13.020874576637183 4009.4203957085474 23.466431547413375 0.29716385638590703
0.9876655520363675 13.027273706277647 3520.741319908498 24.541580035173315 0.3014795002244844
1.013404455228049 13.03373857514383 3095.745788463073 25.66441236548715 0.3058788669681254
1.039354743251649 13.040182490762815 2724.824209703697 26.836720042772587 0.31036197070499316
1.065501756994205 13.046518840130668 2401.3661681562617 28.061676873745952 0.31493814738345965
1.0918227093301718 13.052636075300887 2107.852684151935 29.341434322553077 0.31960851789224737
1.118312812852406 13.05848026400296 1870.9824802875855 30.67854958762375 0.32437641956868934
1.144936744280524 13.063943648831739 1654.1151518597542 32.07661808967907 0.3292512435442298
1.1716911884157792 13.068957267779853 1464.0496769471874 33.53737574483263 0.3342293644969733
1.1985397666492388 13.073420288293887 1297.1713950047317 35.06544833724558 0.339324929860949
1.225478787216591 13.077290451514997 1150.5665397530133 36.662989998340734 0.34453551415205164
1.2524669985920072 13.080466217230944 1021.5534128009564 38.33480194701794 0.34987405001659017
1.279502305516875 13.082911265842261 907.9540164143326 40.08335820752312 0.3553385356983692
1.3065397332471098 13.084506551980652 807.939661507303 41.914021839079055 0.36094290247035277
1.3335709554969988 13.085233540156196 719.5661073396254 43.83009782200102 0.36668812366770825
1.3605728067755807 13.085042393636334 641.5365830680303 45.836584179636574 0.37258369472815883
1.387498911700338 13.083798070812419 572.6207308528101 47.938650267989075 0.37863868755708574
1.4143496660794026 13.08152107520979 511.5637004575058 50.14085702563021 0.384857783517554
1.441075784579563 13.078102867599654 457.53511735679876 52.448780738405894 0.39124983067118263
1.4676575205259996 13.07350991403728 409.61408250159985 54.86864711966746 0.39782556245192646
1.4940651487438414 13.067655839724106 367.0954190236871 57.40663427799763 0.4045940201626966
1.5202741559764383 13.060532775906086 329.33096021918004 60.069357378415596 0.4115649535746461
1.546254123810968 13.052069354037883 295.73960012648735 62.863907976585836 0.41874887923348136
1.5719680890561685 13.04221013710237 265.8679729917214 65.79789711739613 0.42615714352199296
1.5973899620674714 13.0309081476964 239.28437620697534 68.87950257981541 0.43380199103549666
1.6224771699296727 13.018110990506285 215.57581243283542 72.11752069741615 0.4416966388950507
1.6472285526943093 13.003802103602961 194.3995640790408 75.5214232377585 0.44985535769880297
1.6715785066735376 12.987897336123437 175.50415388433376 79.10139824638823 0.4582934695205458
1.6955168399556655 12.970379728069972 158.6182057354903 82.86708301587129 0.46702196962026576
1.7189894202470806 12.951191386975456 143.50490308953687 86.83144904213611 0.4760634724687498
1.7419955624144599 12.930313781811073 129.9897694553725 91.00635921227781 0.4854335165466765
1.7644740489841733 12.90768593340513 117.8669946337575 95.40526096068685 0.4951515303368403
1.7864008708914836 12.883280579246852 106.99090515753288 100.04242698186495 0.5052374898382449
1.8077434542949247 12.85705743322716 97.23455427686258 104.93403422955116 0.5157158025148595
1.828470059245366 12.828990605189793 88.47194250090023 110.09633306454897 0.5266080105411871
1.8485467363781922 12.799038520141035 80.59319811922103 115.54730431223763 0.5379389046965006
1.867940398586245 12.767176045576868 73.49762436198843 121.30707379417824 0.5497375952959453
1.8866194607549298 12.73337151716388 67.11380729519308 127.39691043838668 0.562033425564615
1.9045518254110487 12.69759581423336 61.353929495577965 133.8396032835548 0.5748570411814552
1.921703865577933 12.659830912826433 56.162961399728474 140.6599696821034 0.5882417982263923
1.9380365219048106 12.620016565871326 51.47481480863703 147.88601850738812 0.6022272961462597
1.9535326864617373 12.578169520805757 47.238854715068136 155.54663692232975 0.6168507789148056
1.9681686462311492 12.534318858587554 43.407333675402086 163.67464938333052 0.632157188020792
1.9819019565419291 12.488375674705232 39.94309268754393 172.30416274267895 0.6481894150545823
1.9947029267706244 12.440348232532326 36.800976079540554 181.4744104566507 0.665000633898693
2.0065517179256296 12.390229925062373 33.95742500215219 191.2271150856563 0.6826445482254208
2.0174221327360455 12.338026510012863 31.37521142372986 201.6081843373809 0.7011802260692154
2.027278278768626 12.28369941924098 29.03641685612053 212.66796680344626 0.720671928922579
2.036107161483236 12.227292367928458 26.910529566018063 224.4607278914669 0.7411862902367722
2.0438740279892063 12.168759944460255 24.979584057882967 237.04854888561567 0.7628037979546618
2.050556322558139 12.10811785454376 23.22288189894414 250.4970659243698 0.7856034249199263
2.0561462195580793 12.04540369280541 21.62600749558263 264.8800725905731 0.8096760311697245
2.0606220383566836 11.980638991858562 20.171362159483778 280.2790345670282 0.8351209145347003
2.06395827057632 11.913819173494902 18.84749803746587 296.78301733471574 0.8620434449538157
2.0661398616280584 11.844967481481355 17.643955094912048 314.49181972972184 0.8905628543841427
2.0671605645012585 11.77414186815276 16.54705251770545 333.5154341490491 0.9208076703517509
