M[M_sun], R[km], Lambda[1], P_c[MeV/fm^3], rho_c[fm^-3]
0.24162668629717493 15.618656898711224 2160425.4255784233 3.5677272577965504 0.1711233750220791
0.25364212191511526 15.277339206114585 1723190.7354509172 3.784805367211086 0.17388799557345275
0.26603823873299237 14.981277597973 1383091.9029595046 4.011371553550302 0.1766662994244692
0.2788120569044883 14.723589911346407 1116522.7015169042 4.247682351571142 0.1794569822764387
0.29196513513701605 14.498506626884165 905930.6100728632 4.494362700228628 0.18226660590875804
0.30550017591486833 14.301303481229146 738680.7267174768 4.751566702521226 0.18509084717710017
0.31941558874540915 14.128209046558297 605154.7624060408 5.01997911208917 0.18793637912821715
0.33371184365002465 13.97603077866648 497709.6110995485 5.299820561980627 0.19079975790581807
0.3483924863275048 13.842039820075984 411035.9036011206 5.591823619803075 0.19368736022968322
0.3634541518106028 13.724039645703602 340721.3650559126 5.896150568056316 0.19659415688522588
0.37890576810082194 13.620069888736063 283344.8142365703 6.21366752511034 0.1995278716002068
0.3947362486317188 13.528537589840788 236443.42020146525 6.54463530719695 0.2024847433684379
0.4109599174506508 13.44795810424578 197895.52715063418 6.889749497374195 0.20546836840867388
0.42756638552943493 13.377116637649493 166109.78649077492 7.249718132734482 0.20848187488486886
0.4445603192759834 13.314984368161383 139828.1334220351 7.624805120192295 0.21152088871757893
0.4619394434860759 13.260624753771928 118002.47130264064 8.01594956071438 0.21459141924562505
0.47970261570184214 13.213217218109603 99828.75654396409 8.423860845577538 0.2176951866561313
0.49785811159450083 13.172029669504463 83784.28982397291 8.84898660027662 0.220829757228821
0.5163936437552851 13.136450071375394 71954.54810840794 9.29218655269233 0.22399834774332045
0.5353114658980453 13.1058769268377 61290.858989748434 9.754351639434436 0.22720396941532653
0.5546154087118341 13.079862929539255 52313.11637423571 10.236291202374245 0.23044797278597418
0.574296001980834 13.057872782156897 44741.81752128047 10.738485735686192 0.23372717426316872
0.5943504448037662 13.039551645821234 38337.76737121245 11.262161206974646 0.23704752780314678
0.6147860628566147 13.024522621931357 32633.699355071647 11.80826375197966 0.2404107616289089
0.6355851758839043 13.012446715617173 28302.23602642253 12.37777206253959 0.24381850812830763
0.656755796292547 13.003043870750252 24376.7802622494 12.971387985347532 0.24726886419734737
0.6782852328291621 12.995986002308722 21033.886984283716 13.590412457545291 0.2507663276724469
0.7001714328859991 12.9910583826973 18041.407034110714 14.236055021625415 0.25431367475148353
0.7224033226515089 12.987999773309404 15734.730948267485 14.90950495635157 0.25791288927323713
0.7449881336169568 12.98664551765962 13638.3866419205 15.611807824438978 0.26156402918306015
0.7679059917685921 12.986754427045717 11839.46796869121 16.344197726469996 0.26526867129241727
0.7911486283656597 12.988131974594147 10293.490255666724 17.108305423216983 0.2690316604115807
0.8147210028590053 12.990660209978985 8959.41160478611 17.905585420744018 0.272855428056037
0.838600510426295 12.99412091981771 7809.549465131408 18.737420695457306 0.2767412160298004
0.8627791559961804 12.998389687680232 6816.965465909881 19.60511984179718 0.280689187420079
0.8872530124211108 13.003330923716428 5957.772769428673 20.51078502382118 0.2847058562352848
0.9120113188466007 13.008826078238483 5213.116694596204 21.456209643939207 0.2887942343823989
0.9370292368714535 13.01472082977653 4566.9906545848135 22.44290016427116 0.29295442599943405
0.9623029233773239 13.02092049016668 4006.126967052119 23.472836417925166 0.2971898684681279
0.9878247253766799 13.027317373180185 3517.9201423224795 24.548461470566373 0.30150683690053026
1.0135661993840457 13.033769548847955 3093.3843997513072 25.671743733410423 0.3059071601288831
1.0395269773244857 13.040223652436145 2722.504890880385 26.844590946213803 0.3103917055608841
1.065675710809315 13.046552410074042 2399.1919927437784 28.07012414394166 0.31496939750906816
1.0920036582631563 13.052682744064288 2116.4901786019723 29.35042802696881 0.3196408897059813
1.1184994729325899 13.058522918270723 1869.396106967756 30.68819707083485 0.3244104516908578
1.1451282146094222 13.063978608214013 1652.7797706368822 32.08689331391942 0.32928656470915674
1.1718890142444418 13.06899122850886 1462.7263794389457 33.54838825164017 0.33426647778035173
1.1987423286900354 13.073451778643127 1295.9745110407691 35.07725552764455 0.33936397303866184
1.2256856910677 13.07731873219322 1149.5379796910086 36.67555761710999 0.3445760553447757
1.2526801857352887 13.080486041821512 1020.600406764194 38.34827454495887 0.34991672825337994
1.2797173802446293 13.082927697431476 907.0963821509334 40.09770067332104 0.35538290649603976
1.306760095769426 13.084520145514185 807.1194547091434 41.92929343948146 0.3609890708320066
1.3337959072782744 13.085230748603825 718.8630076954328 43.846469718936184 0.3667367894123212
1.3608031577298525 13.085036944836586 640.9094457958096 45.85402207825772 0.37263440176858964
1.387731540400214 13.083781417472442 572.055270510839 47.95722862550815 0.3786915675598093
1.4145868897529073 13.081495533360044 511.05266559390253 50.16077948673051 0.38491360844905764
1.4413082649828788 13.078048271575863 457.06349431819586 52.470015686458076 0.3913081338824865
1.4679009595912023 13.073456989289658 409.20536740008146 54.891288547394545 0.3978865091033958
1.4943097383863724 13.067595097073696 366.7075452665017 57.43078379002047 0.4046577881796481
1.5205200198471316 13.060461192172113 328.99008542802665 60.09512487260334 0.4116317346953315
1.5465023563959523 13.051980134232828 295.42888736781435 62.89141239337759 0.41881888016091445
1.5722178293002484 13.042108467681977 265.5908807660399 65.8272672646581 0.42623058719075113
1.597641249433132 13.030788142369271 239.0377674705997 68.9108780417245 0.43387911800595086
1.6227215843531835 13.017949878622199 215.3335489586576 72.1510528368998 0.4417777088889528
1.647480244040945 13.00364703395399 194.19292479579053 75.55727630320297 0.44994065129183813
1.6718288578220746 12.987722000879542 175.31689465104654 79.1395634670507 0.4583825085437129
1.695767617889477 12.970183392092059 158.4431928969187 82.90793259844416 0.46711584184204497
1.7192320651628965 12.950948524181461 143.3542633896479 86.87519318108912 0.4761625314209525
1.7422345650236395 12.930057180130225 129.83910814499893 91.05301611910541 0.48553731099057784
1.7647157842500245 12.90741669964868 117.73850263258277 95.45527990068722 0.49526128305988765
1.7866437883207495 12.882995058099429 106.87391180660751 100.09585150185904 0.5053527776346349
1.8079834148817635 12.85675157791706 97.13222471587193 104.99114124944356 0.515837069391302
1.8286963203277067 12.828630333562197 88.37299995755622 110.15766613924517 0.5267366357159192
1.8487774528152632 12.798678448589916 80.50384387656194 115.61295961046035 0.5380745258867271
1.8681661566650762 12.766785919720492 73.41690283356554 121.3774122422336 0.5498807786000205
1.8868399078087552 12.732950684693584 67.04237782476872 127.47232676815656 0.5621847855367057
1.9047655210029186 12.69714962819229 61.28966458099587 133.92025235060262 0.5750162674811207
1.9219112610072084 12.659351505642737 56.10295950880094 140.74659144337076 0.5884105703579322
1.938228661993068 12.619478535438597 51.41714144125758 147.97913144952653 0.6024064035231206
1.9537399509848592 12.577688240648449 47.18597093232777 155.64650399926384 0.6170400370224309
1.9683511172197317 12.533743245360046 43.360751448921775 163.78217702164866 0.6323585079741385
1.9820738118456669 12.487765064856225 39.89765581042 172.41973468128282 0.64840280600284
1.9948672607476836 12.43970529243108 36.76480578610899 181.59874699837093 0.6652271146334602
2.0067022673750676 12.389550595129597 33.921010348925236 191.3610232555283 0.6828852765483866
2.0175640754746564 12.337308575961556 31.344891938171227 201.75255435268946 0.7014364686054604
2.02740528772036 12.282944118816285 29.005844361471773 212.82341790303485 0.7209438813209654
2.036222866385527 12.226498340808392 26.883555142430296 224.62869811256073 0.7414766307627367
2.0439743593820316 12.167925322035087 24.95347849778091 237.22985616805664 0.7631129435263942
2.0506423582217437 12.107242359810726 23.198548152602164 250.69341284727966 0.7859344214499095
2.0562169636406944 12.044495049933248 21.602999970416295 265.0925279012724 0.8100295691501216
2.0606792099476205 11.97968890102899 20.150976829433848 280.50908864439054 0.8354987276605652
2.0639988888310854 11.912828697474128 18.830593140962396 297.0322890861578 0.8624473098559422
2.0661625782500197 11.84393707826756 17.62650603192483 314.7625994130103 0.8909963193988228
2.0671650344461763 11.773069242526553 16.530313603916632 333.80950675327347 0.9212721345397694
