M[M_sun], R[km], Lambda[1], P_c[MeV/fm^3], rho_c[fm^-3]
0.24162668629717493 15.618656898711224 2160425.4255784233 3.5677272577965504 0.1711233750220791
0.25364768936692 15.277175756123166 1723051.8866771513 3.7848775976869073 0.17388889589148873
0.2660461972738282 14.98112450324625 1382767.079812605 4.011523397839701 0.17666813437309425
0.27882521039312647 14.723339326895525 1116370.9405978632 4.247918948257738 0.1794597264414596
0.2919829593887347 14.498221951629876 905691.9735206962 4.494690259294035 0.18227025335497385
0.30552342998310655 14.300973548239238 738446.2710038105 4.75199634785068 0.1850954881666487
0.3194429260977099 14.127899856743309 604924.6276621182 5.020514010131806 0.18794192890186115
0.33374567942259586 13.975708223612783 497518.65054403787 5.300474797165309 0.19080634496855534
0.3484311090589505 13.841773472634182 410849.17446919915 5.5925988272077705 0.19369486057457586
0.36349775637420806 13.723731623534182 340490.954128256 5.897064166185832 0.19660273759219626
0.3789561536996561 13.619771960972113 283163.35384910484 6.21473057210073 0.19953756530876723
0.3947943607824111 13.528218468351607 236289.47606113032 6.5458467009402685 0.202495365655054
0.41102457264106024 13.447640006650822 197763.3087155255 6.891132626871788 0.20548014771988315
0.42763721334661703 13.376855085790277 165987.37900945707 7.251285979848156 0.20849484528223547
0.4446394921242188 13.314720901010093 139720.94399259848 7.626553353036436 0.21153480577512832
0.4620237585712245 13.260368750907555 117904.40224612715 8.0179086767362 0.2146065745919311
0.4797963451045684 13.212986370361728 99738.41686296453 8.426046124946286 0.21771161690201976
0.4979599437359745 13.171816339558614 84584.3716313741 8.85138998674682 0.2208471587737533
0.5165045131641715 13.136251009427484 71886.17793085138 9.294846945917618 0.22401707707748264
0.5354296214842615 13.105709635350253 61233.25785427785 9.757287081500083 0.227224067005528
0.5547428482446825 13.079688378831152 52263.209715621844 10.239503101531014 0.23046925288959796
0.5744331411871019 13.057740141588402 44694.88498636988 10.741995520455918 0.23374970816858562
0.5944968000765531 13.039421324090457 38295.9604619081 11.266003936823923 0.23707153724878424
0.6149404563688784 13.024427705332922 32870.48685597603 11.812462132965576 0.2404362947901473
0.6357523357779127 13.012384533315489 28265.847356985414 12.382350217507275 0.24384561572358399
0.6569295890037948 13.002983230351902 24154.149212810895 12.976324890352856 0.24729708152188462
0.6784703365140663 12.995938157453207 21009.343238478607 13.595778228665049 0.25079620284846554
0.7003664574264533 12.99102073161732 18154.730474154505 14.241878435783589 0.25434526705750343
0.7226084090049174 12.98798191806391 15713.509730320973 14.915816639716711 0.2579462615223957
0.7452040105968881 12.98664102303557 13620.055171681113 15.618578779302519 0.2615986378129707
0.7681316887358802 12.986756222188415 11822.928859512695 16.351519660974056 0.2653051692995154
0.7913849437880413 12.988159572288835 10277.744469346144 17.116215093175498 0.26907012245815004
0.8149691536126908 12.990690816227476 8946.419950509982 17.914122019191886 0.2728959336052761
0.8388591659900514 12.99416804388135 7798.78586118727 18.746546355914294 0.27678314371785673
0.8630487530231125 12.99843502515312 6806.373753253043 19.614953241114307 0.2807333036812145
0.8875367880523937 13.003403759915846 5948.451967926264 20.521373501150045 0.28475225658470926
0.9123017815629171 13.008899482057549 5204.843238468438 21.467603780577623 0.28884302077589086
0.9373311693991155 13.014790858121573 4560.1641833953645 22.455052491060584 0.29300489984643174
0.9626224862309049 13.021004938039438 3999.4227138982 23.48589946682031 0.2972429213911011
0.9881509779924739 13.027397120637636 3512.1797915348398 24.562496743030163 0.3015625923751722
1.013902590551484 13.033855113848807 3087.8385520504876 25.68669689370865 0.30596486725429
1.039875767120244 13.040311424326342 2718.069797212755 26.860644836091765 0.31045235426602635
1.0660355745009245 13.046637991630801 2395.1839543094957 28.087353929608703 0.31503313797833554
1.0923750251472195 13.052763247016225 2112.8794017220534 29.368772634039335 0.3197069190277891
1.1188816366542091 13.058601559985794 1865.8411821192306 30.707875560860366 0.32447986883955715
1.1455207511580998 13.064064447025768 1649.7052002043504 32.107841450276645 0.32935854044237173
1.1722917725955049 13.069057298795581 1460.091742643981 33.57085180610577 0.3343421822749902
1.1991551474383932 13.073514058249009 1293.6360342958292 35.10132311832296 0.33944350839691095
1.2261089080926095 13.077372126529006 1147.384530925536 36.70119420254385 0.3446587550009272
1.253111273385062 13.080532659439466 1018.699501139243 38.37560081496283 0.35000286861159385
1.2801614077063146 13.082959695372528 905.378335504981 40.126958785476184 0.355473421320544
1.3072176068484747 13.084559574338364 805.5293419596709 41.96044745513436 0.36108325414113795
1.3342625882827128 13.085268743943592 717.4333900058986 43.87986900838613 0.36683606937340696
1.361268298814718 13.085024147199029 639.6279995019839 45.88959664503393 0.37273784777633523
1.3882118557260077 13.083765869939427 570.8859001806086 47.99513045446708 0.378799448400003
1.4150603893643856 13.081431268971938 510.06349579935915 50.20142428615712 0.3850274996562005
1.4417915752100745 13.077985761541397 456.1232840102313 52.5133389201139 0.3914270832502924
1.4683941371524034 13.073360740195174 408.36977343816864 54.93748209244199 0.3980108538189356
1.4948078488375345 13.067473537716534 365.9488161346036 57.503038621441796 0.39826152445100055
1.4978357614134414 13.053323266534555 357.89243034810715 61.957346839334 3.1253078483290246
