M[M_sun], R[km], Lambda[1], P_c[MeV/fm^3], rho_c[fm^-3]
0.24162668629717493 15.618656898711224 2160425.4255784233 3.5677272577965504 0.1711233750220791
0.25364147398848635 15.277383643687209 1723128.7609579538 3.784794589790682 0.1738878612381066
0.2660365910940355 14.981348087209152 1383024.8872898421 4.011348897403261 0.17666602563830297
0.2788107725502674 14.723597551821562 1116508.7642614834 4.24764705035051 0.17945657283547717
0.29196286448998976 14.498522111512036 905997.9155528189 4.49431382775438 0.18226606170241458
0.3054965723577231 14.301353220541618 738780.0929050319 4.751502599522216 0.18509015474236845
0.31941181230893945 14.128252475137037 605165.920937706 5.019899306526704 0.18793555111470442
0.333707298098995 13.97605864489011 497746.66420780163 5.299722953003264 0.19079877514537863
0.3483864684846491 13.84214583967767 411072.4752744296 5.591707963870356 0.19368624122671832
0.36344653522892056 13.724110965229878 340703.44880370866 5.89601426705069 0.19659287671733666
0.37889876788429855 13.62010536923329 283355.7113883311 6.213508929843648 0.1995264254023357
0.3947272465354354 13.528580504030442 236455.91975586247 6.544454582495854 0.20248315865695637
0.41095041050419223 13.448002617681844 197919.86045152775 6.889543154700817 0.20546661110787906
0.42755572069408826 13.377163757626883 166128.12273230284 7.249484236097932 0.20847993991793723
0.4445486470256012 13.315041216999523 139843.9083187059 7.6245443162095805 0.21151881255018012
0.46192448094108224 13.260705788828615 118017.7318381983 8.015657300798756 0.2145891583788957
0.4796888081754159 13.21324419142898 99842.21415821157 8.423534851098772 0.2176927356333829
0.497842400024919 13.17207956850133 84671.6162824798 8.848628073350543 0.22082716134068944
0.5163773146778775 13.136481071480544 71963.99409506768 9.291789691843585 0.22399555381820388
0.5352930594643472 13.105905972675501 61298.1821850601 9.753913754288574 0.22720097142183185
0.5545971797133653 13.079881734331924 52318.93873723487 10.235809439098194 0.23044476443049214
0.5742744106444092 13.057913324668835 44747.06931351316 10.737962187601752 0.23372381292229172
0.594329519506532 13.03956971484411 38343.59023647762 11.261588001557021 0.23704394640532456
0.6147632976168675 13.024532794510385 32914.91426941063 11.807637503580885 0.240406952993772
0.6355612793099813 13.012452692230767 28306.78801909161 12.377089174314209 0.24381446469645282
0.65672982082564 13.003039437182444 24381.918730359874 12.97065159318837 0.2472646552817374
0.6782584123801593 12.995991600271779 21037.778624759372 13.58961210577937 0.2507618715282413
0.7001419070212676 12.991066003587814 18181.40660527881 14.23518641964351 0.25430896254333957
0.7223714546500739 12.98801593143893 15736.657067338241 14.90856353789599 0.2579079116389921
0.7449563472832383 12.986655759893527 13641.233042979531 15.610797914232029 0.2615588671919821
0.767872006847936 12.986763740019377 11841.722582294817 16.343105650005178 0.26526322756514237
0.791112969026844 12.988119966922527 10294.136683661558 17.107125700564833 0.26902592381981094
0.8146822697544578 12.990666047072011 8961.030553255297 17.904312208703253 0.2728493867559426
0.8385631309122958 12.994103963349525 7811.414496350254 18.736059640838242 0.27673496268805436
0.8627383797056805 12.998385572166463 6818.322570216969 19.603653250099708 0.2806826077480634
0.8872091495834594 13.003325536821208 5958.916810478282 20.5092058376732 0.2846989359967277
0.9119660266163766 13.008822828487919 5214.25751837707 21.45451032275124 0.2887869583811733
0.9369812776289014 13.014713598423999 4568.010918457879 22.441087786143502 0.29294689841250343
0.9622558660440687 13.020912092986746 4006.8129495094736 23.470888242323042 0.29718195634814826
0.9877756566710274 13.027311920963625 3518.7039783798277 24.546368329366754 0.30149852184420495
1.0135165118890441 13.033752769660413 3094.085744321984 25.66951372800718 0.30589855410855715
1.0394732541237537 13.040224003554794 2723.2565590858753 26.842196818837582 0.3103826609787661
1.0656243321936572 13.046550172496223 2399.7542878102513 28.067554689992402 0.31495989198162566
1.0919490375618894 13.052672397254813 2117.1652710106687 29.34769235192538 0.319631042955538
1.1184434746636118 13.058505709700963 1869.8324966601372 30.685262519258686 0.32440009987001867
1.1450708285095714 13.063960411701393 1653.184634868927 32.08376946229833 0.3292758314626737
1.1718288575233484 13.06898218412997 1463.1405206508066 33.54503846430739 0.3342551886516627
1.1986804114823686 13.073444920499997 1296.3379211174783 35.07366399771162 0.33935209682283957
1.2256237517722117 13.077307568664331 1149.8543049645455 36.67173476537664 0.34456372341684866
1.2526147592617989 13.08047482815281 1020.9223411402443 38.344176396099925 0.34990374621619835
1.2796547078090006 13.082923244606125 907.4863426264081 40.09333790871655 0.3553694095598589
1.3066935625183136 13.084514484573758 807.3491386199343 41.92464802880752 0.3609750270517626
1.3337277511948542 13.085236093789268 719.1377787803151 43.841489590244834 0.3667219858943176
1.3607318209888744 13.085037553404351 641.0929056393022 45.84871766476807 0.3726189772547118
1.3876607504635667 13.083784932183738 572.2426506933406 47.95157727520781 0.37867548199255896
1.414513666732955 13.081504387932842 511.192697780338 50.15471924436377 0.38489662698209354
1.4412355145473752 13.078063096946225 457.213756595298 52.46355617068072 0.39129039847233327
1.4678284025216362 13.073470695081248 409.3315373977366 54.88440116239803 0.3978679695016543
1.4942351673741505 13.067616366296859 366.8213902395788 57.42343762400366 0.4046383902539821
1.520445022948947 13.060482210600695 329.0968783603103 60.08728649044587 0.41161142011056734
1.5464268946969488 13.052007494448631 295.5387442896731 62.883045608628606 0.4187975860285394
1.5721427635041627 13.042137778454485 265.679682828362 65.81833288853781 0.426208245683421
1.59756513948671 13.030825318067404 239.1147542670015 68.90133360655517 0.433855655933219
1.6226525629354327 13.018023440890039 215.40810142982838 72.14085229106476 0.44175304722997794
1.647403153727998 13.003695377159424 194.2536452600814 75.54636967437456 0.4499147046803241
1.6717531407795954 12.98777527313446 175.36906816955695 79.1279534247285 0.4583554224478027
1.695691284595578 12.970244467468813 158.49029449039045 82.8955058975571 0.4670872853195989
1.7191551160816418 12.951014354045846 143.40175223686876 86.86188586889891 0.4761323969061639
1.7421595207781098 12.930130029562175 129.89265653634325 91.03882265591866 0.48550573575941336
1.7646395972115307 12.907500205734161 117.76947619234416 95.44006359291198 0.49522789508299236
1.7865703654867349 12.883080200689047 106.91127526419767 100.07959910137012 0.5053177056594702
1.8079110092503454 12.856845246226172 97.16486572355127 104.97376850064101 0.5158001783228051
1.8286250831105668 12.828729954035595 88.4041524424685 110.13900765592604 0.5266975059203065
1.8487078395149434 12.798786677032261 80.53103291070325 115.59298613336236 0.5380332675753597
1.8680981574769209 12.766903846204228 73.44442249642172 121.35601395312584 0.5498372195249953
1.886773383954904 12.733077974391508 67.06242980994006 127.44938356179863 0.5621387387046123
1.9047002092542085 12.697285197393105 61.30782027600422 133.89571711218463 0.5749678273023596
1.921847444680797 12.659497341486729 56.11946573031191 140.7202390199342 0.5883592258157576
1.938168299044469 12.619631842418737 51.43389471749826 147.95080407662246 0.602351914411965
1.9536733093198562 12.577824541209376 47.20439434264179 155.6161216691133 0.6169824594654816
1.9682959458205618 12.533917873189248 43.375295299700845 163.74947241134475 0.632297289204655
1.9820217043962673 12.487950435380528 39.91315499387939 172.38457404675498 0.6483378857355685
1.994817896417183 12.439899077153777 36.773486684672704 181.5609196516698 0.6651582115969382
2.006658941136529 12.389756629989007 33.93346102606509 191.32028362669956 0.6828120384290429
2.01752036142176 12.337527864196595 31.35361313724973 201.7086315542565 0.7013585099708687
2.027366802245919 12.28317672557165 29.015217098504188 212.776123509787 0.720861142609512
2.036187172419012 12.226740179945171 26.891359583547448 224.57759452470722 0.741388296994528
2.043943834059971 12.168178297652437 24.962283259794955 237.1746944915535 0.7630188878007186
2.0506151984419114 12.107506271720185 23.204836736223566 250.63367496969505 0.7858337168913861
2.056194719646063 12.04477237098078 21.610221573767657 265.0278886002354 0.8099220055977319
2.060661149007908 11.979978614580036 20.157606194205876 280.4391809033091 0.8353840599931942
2.063986358496707 11.91312913855536 18.835746045806204 296.9564472100608 0.8623244324272331
2.066155876803214 11.844250337837913 17.631650908030522 314.6802129461952 0.8908644348696226
2.0671631306791682 11.77339336348465 16.5352339849565 333.7200324933988 0.9211308170934508
