M[M_sun], R[km], Lambda[1], P_c[MeV/fm^3], rho_c[fm^-3]
0.24162668629717493 15.618656898711224 2160425.4255784233 3.5677272577965504 0.1711233750220791
0.253644427993705 15.277295395531471 1723133.7268562114 3.784827834958956 0.17388827562309114
0.26604083624512875 14.981228533424936 1383004.5496363859 4.0114187852395355 0.17666687019155938
0.2788167452686448 14.723459687188232 1116445.0572395152 4.247755945122377 0.17945783585072989
0.2919710074826269 14.498396749082373 905845.1049520252 4.4944645867915485 0.1822677404392828
0.3055071559841735 14.301205277014716 738637.759466998 4.751700341613383 0.1850922907343495
0.3194237937781398 14.128129604153466 605088.4604797807 5.0201454881256575 0.18793810534381095
0.33372350982024995 13.975948926006888 497685.4257711687 5.300024055176414 0.1908018067446434
0.34840433985536917 13.841999475793529 410989.38485630165 5.592064738225224 0.1936896931167469
0.363467651100635 13.723991982059005 340655.7898217855 5.896434728746307 0.1965968257825611
0.3789218803370385 13.619991787628672 283289.1961426509 6.213998166793203 0.199530886654236
0.3947544271438175 13.528429586650587 236387.13224067874 6.545012086576966 0.20248804721459662
0.4109799473958088 13.447864696661055 197859.24874573067 6.8901796881160084 0.20547203209355372
0.4275894737104074 13.377014914981089 166066.50531269083 7.250205771657759 0.20848590899670996
0.44458508426697324 13.314898194726606 139798.46460397675 7.62534885950942 0.21152521723216647
0.46196638298600606 13.26054968992183 117974.3782115801 8.016558884475248 0.21459613285753246
0.47973165208656493 13.213141995162955 99803.33879865002 8.424540505144545 0.21770029674592856
0.4978906195377945 13.171954791570267 84636.5016105776 8.849734089636767 0.2208351693711661
0.5164282688246571 13.136400935615491 71931.39182324368 9.293013968462336 0.22400417280192464
0.5353480520709706 13.105826331247767 61270.50499924935 9.755264591640833 0.22721021996938529
0.5546554762094702 13.079810378104803 52300.66744264265 10.237295641929403 0.23045466196157838
0.5743389079824843 13.057853417063338 44726.13043771925 10.739577298301661 0.2337341824332838
0.5943964505753832 13.03950936104384 38322.51288448863 11.263356308031039 0.23705499481617404
0.6148342387120652 13.024504840046593 32898.82083995048 11.809569451471669 0.24041870246033184
0.6356384985927218 13.01242778423074 28289.093616503502 12.37919586091306 0.24382693854412701
0.6568101532069085 13.003012463743437 24368.356719186668 12.972923344301048 0.2472776396795221
0.6783427455152049 12.995983672667661 21025.931424909806 13.592081179303984 0.2507756186681219
0.7002310192050919 12.991057682123024 18033.7193974196 14.237866053483732 0.25432349968770235
0.722466402155596 12.988010471698152 15728.034308250582 14.911467820479624 0.2579232676757894
0.7450556738152841 12.986638219229958 13632.622735553095 15.613913503402731 0.2615747920171708
0.7679759672011889 12.986757252950952 11834.75427027937 16.346474735228522 0.265280021609985
0.7912228977970978 12.988130636174175 10287.799998266546 17.11076518944879 0.2690436214218193
0.8147986569972584 12.990668999434089 8955.225806138567 17.908240129762177 0.2728680244605074
0.8386809993661025 12.994135071344765 7806.40157041679 18.74025857265334 0.2767542546071591
0.862862537354416 12.998413406593528 6813.308175707565 19.60817778594989 0.28070290648694773
0.8873438893272534 13.003355551043558 5954.521999778737 20.514077752518094 0.28472028548298034
0.9120999231515377 13.008850292811218 5210.432661334337 21.45975288258385 0.2888094055041994
0.9371213619321033 13.014747018215566 4564.620269633505 22.44667915317334 0.2929701217679037
0.9624060158464237 13.020950472043811 4004.0143568545122 23.476898579903498 0.2972063661149078
0.9879265789234343 13.027336952952663 3516.1238496425394 24.552825925496997 0.3015241748080656
1.013670545044034 13.03379761524232 3091.5809583010996 25.676393587286086 0.30592510481050056
1.0396355154717758 13.040252097763762 2721.1150757724286 26.849583043339805 0.3104105648049014
1.0657869259219246 13.046583108863151 2397.8085063403278 28.07548185167143 0.31498921799967045
1.0921210672739585 13.05271020168644 2115.5559852985634 29.356132356920863 0.3196614217913323
1.1186194136678216 13.058543179615947 1868.3821461195225 30.694316125409696 0.32443203705237544
1.1452498261458297 13.063997660602617 1651.8778574807354 32.093407122132504 0.3293089455125926
1.172013745441939 13.069015658651024 1461.8085003132444 33.55537321781146 0.3342900178365291
1.198871423505689 13.073473174647939 1295.1825126202275 35.084744618399895 0.3393887374314926
1.225817329772242 13.077337356049531 1148.867910371818 36.68352910011423 0.3446017701149883
1.252814311718773 13.080499359536528 1020.0088730200443 38.356794828539066 0.34994365036321046
1.2798576868638183 13.082939803359825 906.5824449192884 40.106798091811456 0.35541105086959796
1.3069013183095248 13.084526052031006 806.6071207953559 41.93898029156552 0.36101835565340834
1.3339388201335896 13.085233513508541 718.4927406584051 43.85685460699823 0.3667676586703102
1.360774813900271 13.084973728252459 640.9605029294075 45.676275174342926 0.39068261918554176
1.3786594359401159 13.076562297298642 591.0275506226737 48.29728049482098 0.7272906871746374
1.3887140504757367 13.05552917253655 558.2694803313432 51.13585310886885 0.9645514768297704
1.3933919267202475 13.02312810592907 535.0059133620387 54.40577074942361 1.1849349469443569
1.394093979677567 12.980337854490195 517.304984803223 58.10286000719019 1.3898606525838628
