M[M_sun], R[km], Lambda[1], P_c[MeV/fm^3], rho_c[fm^-3]
0.24162668629717493 15.618656898711224 2160425.4255784233 3.5677272577965504 0.1711233750220791
0.25364369155232225 15.27727326678929 1723287.732551547 3.7848133284051952 0.1738880948058967
0.26603837147466924 14.981312772612009 1382951.6726014386 4.011388289523374 0.17666650166882691
0.2788144460696962 14.723535736956228 1116436.3665048843 4.247708428480051 0.17945728472928496
0.29196730511962105 14.49846661278738 905913.4080518486 4.494398802302435 0.18226700791372874
0.30550366909429616 14.301227264179602 738703.418281585 4.751614055535282 0.18509135868002655
0.31941873478139426 14.128168212730577 605156.6793205272 5.020038064805273 0.18793699078540035
0.3337157465415692 13.976015591837239 497724.4760586457 5.299892666392399 0.19080048387760176
0.3483965356673396 13.842064349475232 411028.36844433495 5.591909055883194 0.19368818684726105
0.3634581889447117 13.724036136008639 340667.499982311 5.896251255159505 0.1965951025598067
0.3789115633349781 13.620029148654513 283324.3039658921 6.213784681609138 0.19952893992641021
0.3947434662672506 13.528477240404847 236406.69239044207 6.5447688113990115 0.20248591401993463
0.41096717477551614 13.447901896187131 197886.13953954718 6.889901926452279 0.20546966655866725
0.42757393492283136 13.377093999049567 166102.30177660816 7.249890916959047 0.20848330428447787
0.44456871895637623 13.314956459704295 139820.2182860309 7.624997781956164 0.21152242242910044
0.461949240982344 13.260595855520902 117993.18223630628 8.016165460338893 0.214593089403768
0.4797132274769495 13.21317515653293 99829.55911630005 8.424101666486127 0.21769699729270245
0.4978688876427631 13.172009652657277 84649.73922270247 8.849251454484842 0.22083167488645203
0.5164061652852324 13.136426796161741 71944.20703205447 9.292479726152736 0.22400041170275892
0.5353241735621761 13.105862671399665 61283.40148304596 9.754675119782227 0.22720618413301566
0.5546293981736815 13.079844459901963 52306.80483977187 10.236647098014808 0.23045034291210498
0.5743109676476769 13.05785688186342 44734.933514818535 10.73887250023378 0.23372965741136892
0.5943666648458295 13.039551014178091 38331.51899080756 11.262584656496132 0.2370501735234199
0.6148028061572535 13.024514267315295 32906.86157404679 11.808726387808683 0.24041357522664022
0.6356037430765156 13.012439269378074 28298.185238819064 12.378276542052898 0.2438214951889398
0.6567745889816777 13.003025370980831 24374.227174788448 12.971931991908827 0.24727197351577132
0.6783058741961031 12.995980022696042 21031.234938202848 13.591003715720106 0.2507696196395567
0.7001918343510688 12.991064109981597 18174.99081567206 14.236696701379094 0.25431715589546444
0.7224249348508136 12.988005527052467 15732.252835009627 14.910200431314797 0.257916566511529
0.7450121863637545 12.986652768365206 13636.500752609312 15.612553899642151 0.2615678426246075
0.7679311156923485 12.986754123988025 11838.567772502696 16.34500450468728 0.26527269287948346
0.7911742760233292 12.988139023214691 10290.373070863954 17.109176953155096 0.269035898366545
0.8147486074686172 12.990665000259801 8957.870337762948 17.90652601951964 0.2728598911299713
0.8386292879215058 12.994119063442293 7808.764954805077 18.738426191283274 0.2767458357628632
0.8628086999972819 12.998396855549448 6815.887210243628 19.606203307647036 0.2806940482480412
0.8872773106673609 13.00335804282937 5956.1791829454205 20.51195167392666 0.284710968676939
0.9120406115632862 13.008842493973438 5212.085425458946 21.45746504957066 0.2887996096657636
0.9370624571361502 13.014722102264862 4566.148001831188 22.444239096106696 0.2929599871600067
0.9623369840865013 13.020930587798542 4005.1738589033707 23.474275677311063 0.29719571372813963
0.9878612415808277 13.027321728028612 3517.221841586103 24.550007831327324 0.30151297985774156
1.0136028672630688 13.033779192212421 3092.5039715754024 25.673391210115913 0.30591351805877565
1.0395650441727133 13.04023785980695 2721.9578025276383 26.846359677930284 0.3103983875108142
1.065714596892341 13.046563483900657 2398.7821418753424 28.072022409227053 0.31497642001778786
1.0920445320839718 13.052689925456574 2116.0760352124275 29.352449098452755 0.3196481643223793
1.1185421841042986 13.058527265890222 1868.9712361221382 30.690365075906072 0.3244180994692298
1.145170183618316 13.063991392200828 1652.4497511014342 32.08920117713951 0.32929449429986557
1.1719331262199053 13.068996993745182 1462.4269219774467 33.55086304142233 0.3342748180770791
1.1987880432062457 13.073457491796248 1295.7098421346227 35.07990892319001 0.3393727470983935
1.225732321775824 13.077321962294382 1149.3129369474912 36.67838191905259 0.34458516610565
1.2527269802892032 13.080492955707607 1020.4062674046249 38.351302245104236 0.3499263193437026
1.2797684176969715 13.08292902186229 906.9239265605951 40.10092387969117 0.3553928780197453
1.3068096144113168 13.084519239249813 806.9385733344675 41.93272547413282 0.36099944639270864
1.3338472164679576 13.085237969700287 718.7814638828185 43.85014905652626 0.3667477263064522
1.3608541291223806 13.085034047568861 640.7828851792665 45.85794101003973 0.3726457974898651
1.387783934401391 13.083776351677937 571.9522075642508 47.96140388858521 0.37870345170633085
1.4146397100242085 13.081490699521199 510.9309063251037 50.165256858963374 0.38492615453947077
1.4413626157358 13.078039222743243 456.99324097359386 52.47478806083637 0.3913212370344751
1.4679553048473564 13.073446651533958 409.121934076623 54.896377053070026 0.39790020644552637
1.4943643615369933 13.067584860338632 366.6344712184618 57.43621126751591 0.4046721197105132
1.5205755280347697 13.060443625102643 328.9139334368098 60.10091602702544 0.41164674351922226
1.546558287030875 13.051961387446235 295.35802926144703 62.897593962914655 0.41883461274684286
1.572274676064524 13.042085280168346 265.5353165572839 65.83386820606817 0.42624709365733743
1.597698023035756 13.030760281311458 238.98549708228364 68.91792973472086 0.43389645243496927
1.6227860071364326 13.017943844611699 215.29107700172273 72.15858930957766 0.4417959296706699
1.6475374866346935 13.003612227763076 194.14758619941261 75.5653344809195 0.4499598215056605
1.6718859705036246 12.987680322910146 175.2756430445695 79.14814137670103 0.4584025207087894
1.6958244360030026 12.970140630853054 158.40440663080426 82.91711391960844 0.46713694049134014
1.7192887902692653 12.950900545132269 143.3225439071247 86.8850251702517 0.47618479603897507
1.7422907918490687 12.930000430689141 129.80990814354416 91.06350286900259 0.4855606401490652
1.7647703000195587 12.907359807392663 117.70983368625498 95.46652241938551 0.49528595165624417
1.786698883831242 12.882930456315941 106.8486079244331 100.10785957808903 0.5053786905421837
1.8080372601717876 12.856682609559567 97.10772252986592 105.00397714278326 0.515864326437714
1.8287495883574592 12.828553939651906 88.351814873103 110.17140883543803 0.5267653861038113
1.8488296437045966 12.798596754849251 80.48579624065297 115.62771718296757 0.5381050099390803
1.8682169740881114 12.766696163621765 73.39871832727582 121.3932226147701 0.5499129627246496
1.8868883125549982 12.732856647328505 67.02672883460623 127.48927869327667 0.5622188079151599
1.9048136500191108 12.697049945063805 61.27240453048595 133.93838064233137 0.5750520583577778
1.9219577506112997 12.659242496422852 56.089973153695674 140.76606248329708 0.5884485073481709
1.9382726113525302 12.619365146532376 51.40451162690536 148.00006182113447 0.6024466641342594
1.9537726640503603 12.577531600850229 47.17263725245938 155.66895282408353 0.6170825797926234
1.9683921351263418 12.533612955488678 43.34950112814212 163.8062803177624 0.6324035331315913
1.9821102686709036 12.487624115551004 39.88902602870012 172.4457143415099 0.648450774604892
1.9949027343447248 12.439558745776177 36.75425218295947 181.62669718833607 0.665278026292033
2.0067423842159395 12.389409133356361 33.91028405272486 191.39112544980227 0.6829393916240545
2.017593995696543 12.337147990839757 31.336821223459115 201.7850087369659 0.7014940719361901
2.0274337980658013 12.28277427276658 28.998660127706017 212.8583637204953 0.7210050169378707
2.0362485395506984 12.226320185317848 26.876985882882895 224.6664587571673 0.7415419009358926
2.0439976659011756 12.167738836993363 24.949198417583915 237.27061557244812 0.7631824420551044
2.0506615324415782 12.107046459363453 23.193405696507323 250.73755391220396 0.786008833307774
2.0562383086919636 12.044314230849274 21.598516988614765 265.1402909711281 0.8101090496733373
2.0606913762627808 11.979476124970239 20.147061045847778 280.56074372208377 0.8355834540105962
2.0640015150354 11.912593783678938 18.825980775140227 297.08833060870177 0.8625381071640459
2.066168394094257 11.843706635550529 17.62272964871774 314.8234773077288 0.8910937729345068
2.067166551837619 11.772827760270845 16.52731581016303 333.8756224697011 0.9213765590325808
