M[M_sun], R[km], Lambda[1], P_c[MeV/fm^3], rho_c[fm^-3]
0.24162668629717493 15.618656898711224 2160425.4255784233 3.5677272577965504 0.1711233750220791
0.25364190898843003 15.277351492006007 1723231.2962116185 3.7848006392654745 0.17388793664189153
0.26603805402623115 14.9812755757329 1383032.374011947 4.011361614515866 0.17666617931710368
0.2788110218492286 14.723617928961323 1116572.5608688113 4.24766686524722 0.1794568026584186
0.29196484793517713 14.498514554240726 906010.8146392835 4.49434126029647 0.1822663671701375
0.3054990859041694 14.301295344901824 738705.4378412766 4.751538581059026 0.18509054341163778
0.31941364370574726 14.128231276931865 605150.9559893227 5.019944102004783 0.18793601588507897
0.3337098280019266 13.976073095580825 497744.58289994934 5.299777741630317 0.19079932677594227
0.34838972371289395 13.842117527816509 411066.23701115424 5.591772882334444 0.19368686933071683
0.3634510786929998 13.724070593244136 340704.03011520376 5.896090773673406 0.19659359528372775
0.37890300022553935 13.620077739810123 283350.6546480718 6.213597950305921 0.19952723716176402
0.39473288476291774 13.52854503645476 236443.72492340035 6.544556024266575 0.20248404816424448
0.4109557130082668 13.44795377114166 197903.68513736964 6.889658975889757 0.20546759748972657
0.42756263990059873 13.377145314945896 166118.59306859566 7.24961552336379 0.20848102602384164
0.44455572684154865 13.314988121702816 139833.78521617054 7.624690706591348 0.2115199779117477
0.46193418889804777 13.260638419796013 118010.08885640702 8.01582134740333 0.21459042741200807
0.47969681607120784 13.213219201311768 99840.41415800319 8.423717832902582 0.21769411140074368
0.497851175252028 13.172082914664403 84667.76808573697 8.848829315592125 0.2208286184205027
0.5163869522293567 13.136459302434808 71956.89848236491 9.292012450863513 0.22399712205559158
0.5353024845405632 13.105899515728789 61292.705967283684 9.75415954016799 0.2272026542020644
0.5546077130146714 13.0798689324041 52316.510547245445 10.23607985366454 0.23044656528601493
0.5742876034453708 13.057877613439663 44743.87108626283 10.738256055864996 0.23372569964757076
0.5943410657954762 13.039561768199777 38006.55134480479 11.261909742311298 0.2370459566473796
0.6147755964966851 13.024531082716672 32634.56792601048 11.807989017151248 0.24040909078276723
0.63557439041984 13.01245335202301 28303.553262078825 12.377472479566512 0.2438167342752941
0.6567437049365304 13.003039315375505 24379.525537760557 12.971064929948387 0.24726701774516094
0.6782728011277422 12.99599311296969 21035.472173807517 13.59006134272174 0.2507643727591786
0.7001584875523322 12.991076148775415 18179.497538588377 14.235673965029457 0.25431160750085297
0.7223895474159131 12.987993020779566 15734.91628633726 14.909091954702253 0.257910705577835
0.7449739563692306 12.986656922038437 13639.51876024229 15.611364775012 0.26156176460827574
0.7678913559539216 12.986761175048494 11840.602812014318 16.343718630104753 0.265266283117198
0.7911323512733472 12.988132609857173 10292.737071642574 17.10778787578437 0.2690291437536722
0.8147037032991763 12.990656284208152 8960.115282492474 17.90502685873899 0.27285277771926225
0.8385826126844614 12.994125079643116 7810.255422362805 18.736823596180923 0.2767384726675729
0.8627617030043849 12.998386352203035 6817.530746521473 19.604476442431256 0.28068630089289487
0.8872327442854612 13.003340278145581 5958.389045356284 20.510092228174575 0.28470282029734173
0.9119906025688636 13.008822221907662 5213.56601715969 21.45546414382104 0.28879104236678
0.9370067892256531 13.014725004741482 4567.36766260969 22.4421050649233 0.292951123609404
0.9622828907077208 13.020916184718567 4006.554354516168 23.471981742711012 0.29718639737813446
0.9878040594493375 13.027315093048372 3518.2293238239427 24.547543197253287 0.30150318903658213
1.013543846931775 13.03376162999456 3093.5803409529353 25.67076541618909 0.3059033846143127
1.0395032358676712 13.040222526815747 2722.8263522387892 26.843540626614544 0.3103877376425686
1.0656544985874001 13.046556940721155 2399.376038671767 28.068996906272663 0.31496522736677
1.0919805776838538 13.052678768525336 2116.8785380549903 29.34922786594677 0.3196365698632046
1.1184751889933249 13.05851427645917 1869.5519698774829 30.68690965987486 0.32440591026527427
1.1451026339836194 13.063968945126689 1652.9902199793064 32.08552285439145 0.3292818559452035
1.1718629614399831 13.068986917727491 1462.9227367298413 33.54691867070803 0.33426152514109025
1.1987136376996932 13.073444355005046 1296.0964147129491 35.07567989045296 0.3393587628336254
1.2256583925371565 13.07731152211512 1149.6578321377588 36.6738804954663 0.344570645209966
1.2526511655306132 13.080484522864836 1020.7542665494406 38.34647664587753 0.34991103290322895
1.2796896819559076 13.082930244137646 907.2010784205444 40.09578668294685 0.3553769852492449
1.3067310040816802 13.084518766250875 807.2150637719295 41.927255447479844 0.3609829096734313
1.3337665718518787 13.085228226441226 718.9517377639035 43.8442848800424 0.3667302949412134
1.3607711554061899 13.085036620100592 640.9989456490333 45.85169496976706 0.3726276348532126
1.3877008509849298 13.083784845892474 572.1533418510795 47.95474930939786 0.37868451062581876
1.4145550495685713 13.081497723366638 511.1298971012099 50.15812078155257 0.3849061584641537
1.4412769252640731 13.07805281180981 457.1269715404699 52.46718181216216 0.3913003531254308
1.4678697709383657 13.073461627181592 409.26191122829687 54.888266958203644 0.39787837552871486
1.4942766650790789 13.06760292723992 366.74796462968857 57.42756092404605 0.40464927803783257
1.5204868007332348 13.060468850136441 329.04019073710504 60.091686060882225 0.411622822392921
1.5464699000502433 13.051990367571799 295.48084247510076 62.88774175983204 0.41880953810671273
1.5721845544586979 13.042121246071556 265.6214135733355 65.82334761597049 0.4262207856266904
1.5976074338696775 13.030804597245899 239.06313020261072 68.90669074599359 0.4338688248209435
1.6226879861470238 13.017964257831624 215.3804769630566 72.14657768980277 0.44176688941386255
1.6474460072875057 13.003669040923345 194.21256431437965 75.55249138023709 0.4499292680734969
1.671795580428284 12.987745806351047 175.34553002133174 79.13446993952228 0.45837062540226275
1.6957335879096975 12.97021009065659 158.4605537701907 82.90248078183083 0.4671033135833458
1.7191970941856995 12.9509752551454 143.38373357192515 86.86935501707343 0.47614931085188833
1.742202116621834 12.930088284580004 129.86704933486223 91.04678917736301 0.4855234583372559
1.7646827582666473 12.907453459848302 117.75444892100742 95.4486042086762 0.4952466351010059
1.7866115687109352 12.88303207704154 106.88777663283922 100.08872124729162 0.5053373908546157
1.8079517923121562 12.856792560405248 97.14648104625245 104.9835194662814 0.5158208845187813
1.8286646138990632 12.8286751963163 88.38986209358178 110.14948026600146 0.5267194686428266
1.8487466944194308 12.798725316265717 80.51577280287299 115.60419681012706 0.5380564249650485
1.8681371573061853 12.766838146436763 73.42970540562848 121.36802433319599 0.5498616682575048
1.8868103941606136 12.733007019552304 67.05428950351478 127.4622610553662 0.5621645837314511
1.9047372148838075 12.697209033427661 61.29851522478703 133.90948816321819 0.5749950156329733
1.9218830529012725 12.659415681230913 56.111116194438935 140.73502999700244 0.5883880442638109
1.9382023410332039 12.619544952813 51.42662689786134 147.96670352603925 0.6023824977939651
1.9537055420974576 12.57773382465671 47.19643506119267 155.6331744961367 0.6170147762797029
1.9683268496397932 12.533820038681977 43.36735322503783 163.7678355018174 0.6323316728801474
1.9820511261030949 12.487846124273744 39.90424094639135 172.40430876564886 0.6483743237362566
1.9948453763127894 12.43978986305911 36.768339586301906 181.5821510982497 0.6651968849712742
2.006683018849533 12.389641746177935 33.9256405905794 191.34314962767044 0.6828531449132247
2.0175434456938444 12.337405367157086 31.346412367195185 201.73328414552728 0.7014022658885968
2.0273875250612194 12.283046886279205 29.008259889856777 212.80266844578867 0.7209075813869138
2.0362073614989775 12.226606472179752 26.886988416363234 224.6062774073009 0.7414378760399337
2.0439609243952885 12.1680358680012 24.95719091971405 237.20565501279356 0.7630716783335147
2.050630417266186 12.107357903839754 23.20138353989875 250.66720391772478 0.7858902391189176
2.0562074003121373 12.044616717374561 21.605742304636628 265.0641685054798 0.8099823774678766
2.0606722091292182 11.979815261762488 20.153432770319984 280.4784184824526 0.8354484214565693
2.0639928694425547 11.912961379397853 18.83269476733087 296.9990146202478 0.8623933992590122
2.0661597994734837 11.844074046959493 17.628947098325074 314.7264535301746 0.8909384569497508
2.0671640684986223 11.773212212770899 16.532644108055802 333.77025111964434 0.9212101334021701
