M[M_sun], R[km], Lambda[1], P_c[MeV/fm^3], rho_c[fm^-3]
0.24162668629717493 15.618656898711224 2160425.4255784233 3.5677272577965504 0.1711233750220791
0.25364573590805106 15.277249638005523 1723200.513343125 3.7848511571640473 0.1738885663231266
0.2660428033086873 14.981200673851188 1382881.6749773796 4.0114678135891815 0.17666746267023029
0.27882006754560634 14.723437465082288 1116280.6568103887 4.247832338754147 0.17945872190173567
0.2919776541482042 14.498261939196553 905751.7340375187 4.494570350779371 0.18226891814583374
0.30551383499700296 14.30110753964063 738525.514531986 4.751839067650563 0.18509378924031367
0.31943288727073477 14.12801360102292 605002.9319994393 5.02031819857023 0.18793989728133348
0.333734253805734 13.97577713491364 497587.0130222576 5.300235297623107 0.19080393360556697
0.3484168872081686 13.841893509338611 410923.57009901234 5.592315040573432 0.19369211486082163
0.36348282675426435 13.723830941296425 340597.53197627305 5.896729715095512 0.1965995963567786
0.3789372675066816 13.619889498445142 283236.9323020974 6.214341407578943 0.19953401659691314
0.39477266492014146 13.528318697847942 236341.86390221908 6.545403225904388 0.20249147697809475
0.41100078574684756 13.447767805379968 197811.7215515191 6.890626277829415 0.20547583543895717
0.427611423427988 13.376943144002011 166028.6941220176 7.2507120033124 0.20849009692145276
0.4446102147977034 13.31480886470564 139758.42317837308 7.625913334373144 0.21152971081503788
0.4619917714608427 13.260466315471135 117930.84706405533 8.017191449547987 0.214601026259777
0.4797622301513886 13.213076592419668 99776.60840652719 8.425246094042823 0.2177056017880484
0.49792234272015784 13.171898056390027 84608.85713372663 8.850510101106556 0.22084078802577156
0.5164651587512029 13.13631139373754 71912.06180205464 9.293872962375485 0.22401022017262523
0.535386708554005 13.10577303964152 61252.8400715657 9.756212393360588 0.22721670912165942
0.5546958626725773 13.079766298610217 52281.700569450084 10.238332200898414 0.23046152642477694
0.5743824967132612 13.057799009041316 44710.77714344204 10.740710543676983 0.23374145821962886
0.594442774169859 13.039476112834798 37977.85319702331 11.264597054514635 0.23706274702265645
0.6148835721988689 13.024495236041497 32887.94896139682 11.81092503029196 0.24042694664129252
0.6356917584500236 13.012419148174802 28278.34768808491 12.380674060738807 0.24383569107498207
0.6568661278413078 13.002998286339471 24359.37047776768 12.974517376906489 0.24728675051623095
0.6784013540168861 12.99596001337488 21017.164660778424 13.593813683535064 0.25078526478751495
0.7002940708120557 12.991055010784459 18163.12033125663 14.239746320676662 0.25433370022899043
0.7225340657127532 12.987998036790524 15720.848619008264 14.91350573903709 0.2579340429194019
0.7451247724824346 12.98663848065873 13626.728476515258 15.616099710578643 0.2615859664580856
0.7680490874910687 12.986760846874441 11829.324676557873 16.34883884134287 0.26529180608602676
0.7912993640392183 12.98813647266681 10284.288407573149 17.113319061984587 0.26905604003914707
0.8148762202078759 12.990685555016093 8950.964989297292 17.910996423106955 0.27288110287534395
0.8387654943796279 12.994151851249757 7803.301856111819 18.74320506058486 0.2767677921946506
0.8629491624364706 12.998418834938178 6810.004070831881 19.61135278619255 0.2807171507106687
0.8874355393092986 13.00338093896527 5951.612244923755 20.517496549590774 0.2847352671818457
0.9121949451256361 13.008881642324766 5207.949673843161 21.46343180779289 0.2888251575965756
0.9372198542191733 13.014771852078187 4562.700086454651 22.450602879883874 0.2929864186948281
0.9625078315046757 13.02098419463079 4001.929514283044 23.48111635661143 0.29722349575934226
0.988032194019171 13.027361994270947 3514.271354068098 24.557357609284136 0.3015421770364606
1.0137790142514922 13.033825523237661 3090.0405776918137 25.681221634527553 0.3059437371746348
1.0397478598327017 13.04028497896599 2719.5735783334817 26.85476648859118 0.3104301469276805
1.0659027946454585 13.04660982318123 2396.707170337214 28.081044963917197 0.31500979837089416
1.092240006508937 13.052732727088191 2114.2674493687073 29.36205541686379 0.3196827411703495
1.1187420398690435 13.058576266627163 1867.058093768007 30.700669861781254 0.32445445026913794
1.145377239349993 13.064024322380666 1650.82527517439 32.100170794678895 0.32933218482526705
1.1721443519128796 13.069030799745859 1461.0820071177677 33.562626179082905 0.3343144610638255
1.1990039308678189 13.073491113478969 1294.4196235828492 35.09252110866555 0.3394144521765899
1.225954027899101 13.077352136381432 1148.2187998629063 36.69180654905579 0.34462847188395224
1.2529539601989534 13.080510344928294 1019.399347966079 38.36560683486988 0.34997139852636955
1.2799997165142305 13.082944838931217 906.0012826562097 40.11624483401654 0.3554402759340278
1.3070532828274042 13.084553779568626 806.1155952648656 41.949039169498256 0.3610487651653123
1.3340874537706573 13.085235279554102 718.0028965010467 43.867638421477274 0.36679971374392006
1.3610980871702485 13.08503132705656 640.103441869794 45.8765693943143 0.3726999663008608
1.3880395221808473 13.083780798308192 571.3193972207833 47.98125087023071 0.378759942622839
1.414884626648595 13.08144865787586 510.404279509267 50.18654009759606 0.3849857925195809
1.4416180198373034 13.078002242335776 456.50499633244 52.497473765724806 0.39138352348049965
1.4611711085562666 13.070095705212964 419.3919061875583 55.2326409515356 0.9044360007288932
1.4619424082045553 13.044429160350962 410.37020675694924 59.14176497667165 1.5244075523185534
