M[M_sun], R[km], Lambda[1], P_c[MeV/fm^3], rho_c[fm^-3]
0.24162668629717493 15.618656898711224 2160425.4255784233 3.5677272577965504 0.1711233750220791
0.25364502969982594 15.27727123559719 1723165.068372461 3.7848398258669915 0.1738884250839752
0.26604190056265387 14.981254705749912 1382892.603251421 4.011443992683728 0.17666717480864602
0.2788180094324362 14.723466309690581 1116461.9578775126 4.247795222076886 0.1794582914042131
0.29197382730081856 14.498343181794057 905794.4096535014 4.494518964086315 0.18226834594308033
0.30551105532390077 14.301129566357268 738601.2404366134 4.75177166580866 0.18509306117178276
0.31942828939359263 14.128073590400579 605020.719810527 5.020234284793615 0.18793902664351336
0.33372634811943236 13.975896011270137 497656.34479641914 5.300132662321574 0.1908029002383833
0.3484108073454269 13.841944713601453 410955.60866859695 5.5921934271974925 0.19369093821795472
0.36347538492003756 13.723893285853663 340629.55507400644 5.896586390994265 0.19659825022648905
0.3789302844380084 13.619920743001174 283270.61662477994 6.214174637906171 0.1995324958583012
0.39476393079365285 13.52837873779267 236374.91243699225 6.5452131835166245 0.20248981056308876
0.4109905936975676 13.447789452539102 197833.4314551022 6.890409293398741 0.20547398750849158
0.42759997672005146 13.377000363933838 166063.44708054393 7.250466040180648 0.20848806213149873
0.4445969923921962 13.314885311691516 139776.3318459736 7.625639072086783 0.21152752751088835
0.461978932463922 13.260502645898649 117948.48533912266 8.016884103567508 0.21459864869013942
0.479746742748514 13.213139519494238 99786.15334912617 8.424903267129315 0.21770302420892207
0.49790601953842634 13.171936715337784 84623.1968181299 8.850133057093888 0.22083805806602133
0.5164467809415384 13.136352849319106 71924.39771437942 9.293455598530992 0.2240072819051404
0.5353673920271773 13.105803755924716 61260.62004149448 9.755751879127999 0.22721355619745873
0.5546769580978833 13.079778620759944 52291.16197784914 10.237830461283314 0.2304582155772315
0.5743613436823376 13.05780986616169 44718.61787837597 10.740159924855499 0.2337379230762346
0.5944197235603679 13.039524962872743 38318.72559892992 11.263994202151924 0.23705898039018483
0.6148607930071242 13.024470627038026 32892.29210046587 11.810266382098062 0.24042294096134337
0.6356662733358646 13.012411603419297 28283.451289976485 12.379955832142024 0.24383143839016583
0.6568389530333105 13.002997826715578 24362.848255172652 12.973742866187202 0.24728232373056258
0.6783712415075015 12.99597497368581 21020.85586714039 13.59297189046119 0.2507805779092095
0.7002644058301222 12.99104096453802 18166.661412110658 14.238832730491257 0.2543287439576468
0.7225008952974983 12.988002138887351 15724.149166052955 14.912515546851468 0.25792880740006074
0.7450908954746938 12.986639961092848 13629.604000480478 15.615037465667072 0.26158053696671246
0.7680139625471281 12.986763541484073 11832.289095894883 16.34769015588239 0.2652860801771065
0.7912624585764592 12.988145333772733 10217.986682490937 17.112078169392483 0.2690500059986731
0.8148392129460628 12.990675435911132 8953.270015313192 17.909657174417877 0.27287474823607516
0.8387239115460551 12.994146094199971 7804.86954606063 18.741773396501873 0.2767612144389522
0.8629082253390633 12.998408426980014 6811.754172298054 19.60981008772041 0.2807102295955532
0.8873917634830693 13.003367298558342 5953.134449520313 20.515835389694143 0.28472798772161173
0.9121503303450635 13.008867118659731 5209.260303615905 21.46164425076372 0.28881750379502996
0.9371719747915317 13.014765608922326 4563.375014755477 22.448696373017786 0.29297850015070676
0.9624594381277922 13.020963681736744 4002.9947956805427 23.479066969275156 0.2972151725884374
0.9879799198048694 13.027354727982605 3515.1158687865277 24.5551556924597 0.30153342986621606
1.013725527116795 13.033817083529609 3090.609182588832 25.67887571284585 0.3059346838110661
1.0396936520984499 13.04026673764115 2720.308020884993 26.85224787597856 0.31042063206275544
1.0658460563433034 13.046592846915855 2397.170118323289 28.07834186742589 0.3149997984415764
1.0921815851239907 13.05272887558681 2114.733780084991 29.35917741840396 0.31967238214299415
1.1186821294242744 13.058556430573029 1867.5715067730519 30.697582592552344 0.3244435597268829
1.145316053466785 13.06401878725486 1651.2088429873136 32.09688433275698 0.32932089286580685
1.1720809929641218 13.069025396646872 1461.3749195970584 33.55910196492395 0.33430258409874813
1.1989391321835035 13.073480375787327 1294.8449757029978 35.08874250380186 0.33940195735468776
1.225887584576787 13.077343438616783 1148.526439076445 36.68778452093623 0.34461549744383513
1.2528862819760556 13.08050089496541 1019.6879014976718 38.36132505684565 0.3499579156178505
1.2799303130030464 13.082942910959105 906.2914786519914 40.111654626082085 0.355426075364168
1.3069820136386177 13.084550945458851 806.4092833794972 41.944151513708555 0.36103398904138345
1.3340153926297273 13.085242981526232 718.2508196856504 43.8623985038839 0.36678413799894677
1.3610243866913356 13.085029473196451 640.310307564272 45.87098819685349 0.37268373693679313
1.3879578544853615 13.083765828191954 571.5204296180772 47.97530454739796 0.3787430174685423
1.4148086572863916 13.08146076783656 510.5749520788143 50.18016342703031 0.3849679243859321
1.4415407521992938 13.078014042734141 456.6587022201293 52.490676872762414 0.3913648617590006
1.4681366503888584 13.073410424811222 408.7994621253139 54.913318468232994 0.397945809688298
1.4945476786772698 13.067539811395095 366.34975605241374 57.45428134476551 0.40471983467018935
1.520760290415481 13.060386150179406 328.6834236072254 60.120197034999784 0.41169671373794386
1.5467438715471777 13.0518958782546 295.1346034126647 62.91817494128014 0.4188869929730434
1.5724602366732268 13.042007820052909 265.32453877438894 65.85584558335225 0.4263020507946996
1.5978752119484956 13.030665203413495 238.7905650240913 68.94140800910071 0.4339541665868647
1.6229730766717088 13.017842931248122 215.12894031855828 72.1836817997674 0.4418565952905199
1.6477257375919865 13.003493575383047 193.98296082656145 75.59216415518422 0.45002364866491823
1.6720731700702194 12.987553507986961 175.14589485786445 79.17670166075604 0.4584691515247389
1.6960109784243451 12.969991841710753 158.28141885510664 82.94768348789164 0.46720718927022187
1.7194896589978368 12.950774042749565 143.20103416437257 86.91776140034887 0.4762589274936135
1.7424726705721651 12.929819638342106 129.71706905728405 91.09841938661573 0.4856383165484463
1.7649542492738615 12.907163709539653 117.6103389374328 95.50395561824458 0.4953680884529681
1.7868797555276104 12.882722416670878 106.76239031380565 100.14784205328569 0.5054649709890674
1.8082167336358839 12.856450769698773 97.03280950596924 105.04671624098995 0.5159550830023405
1.8289295306327353 12.828314975771955 88.28718452149205 110.21713072270663 0.526860978407713
1.8490029136093964 12.798323668774954 80.41846142201702 115.67685557805906 0.5382065129069827
1.8683757894824258 12.766375318807933 73.34662807437796 121.44586692758931 0.5500201272535612
1.8870511883094179 12.732545201987655 66.97140750663154 127.54560609789031 0.562331671202769
1.9049721170697917 12.696715481165805 61.220285663495304 133.99874391293187 0.5751712341965723
1.9221133582884422 12.658882961032772 56.044186210046455 140.83089735944657 0.5885748303423675
1.9384220573298874 12.618982041520612 51.36207454099451 148.06975660125903 0.6025807255113605
1.953915217642808 12.577123279635009 47.13774103320745 155.74370440909814 0.6172242415289652
1.9685276641839162 12.533182678049338 43.317962968595445 163.88654174029307 0.6325534621358975
1.9822390509355519 12.487168027233718 39.85831007526989 172.5322246864395 0.648610506497959
1.9950224164798558 12.439075208246525 36.72524417487868 181.71977008752515 0.6654475598684347
2.0068552015429906 12.388899651956798 33.88435063566518 191.49136536339708 0.6831195941189209
2.017697466862427 12.33661081981629 31.31145531248156 201.89308245865112 0.7016858921315878
2.0275298549836664 12.282215954203751 28.976604671061565 212.97473503400101 0.7212086015885744
2.0363327706101426 12.225729143150337 26.8548971901461 224.79220489639337 0.7417592561311359
2.044072035509505 12.167120002797976 24.929450572133074 237.40634919467638 0.7634138803497066
2.0507256028118896 12.106395351524135 23.175628088168548 250.884269395379 0.7862557210483654
2.0562925071389295 12.043631811295123 21.58248277237538 265.2992979076088 0.8103735616013406
2.060732757964164 11.97876591366579 20.13185339342602 280.73276683585254 0.835865611955206
2.0640324782330994 11.911853277179963 18.81325956265059 297.27496377506105 0.8628404863346868
2.066186644194286 11.842935930287842 17.610376797606182 315.02621935960275 0.8914183230832644
2.0671717641821323 11.772029433509585 16.515766546800645 334.09581072849124 0.9217243287988257
