M[M_sun], R[km], Lambda[1], P_c[MeV/fm^3], rho_c[fm^-3]
0.24162668629717493 15.618656898711224 2160425.4255784233 3.5677272577965504 0.1711233750220791
0.25364169673629866 15.277353148990304 1723114.7569466706 3.784798793016415 0.17388791362928768
0.26603797580211314 14.981290990859263 1383049.3494232544 4.011357733356504 0.1766661324155833
0.2788112047970429 14.723606034691617 1116599.9989444532 4.247660817897274 0.17945673251827238
0.2919644643384813 14.49852379335681 905997.2674221629 4.49433288809512 0.1822662739437324
0.3054985148559713 14.301299435241049 738732.8935539358 4.751527599761834 0.18509042479267
0.31941298843583044 14.128243256174255 605176.5524812237 5.019930430748598 0.18793587404051942
0.333709834582827 13.976028526053712 497732.04824353027 5.299761020525023 0.19079915842215728
0.3483888154117613 13.842128825851143 411069.8651133395 5.5917530696603 0.19368667763764422
0.36344945738488516 13.724090918594344 340706.8489531115 5.896067424355247 0.19659337598199036
0.37890164308823954 13.620083445532668 283341.0496791992 6.213570781826894 0.19952698941794825
0.3947311641087466 13.528539683516177 236451.65804265757 6.544525064863097 0.2024837766921001
0.4109541589179124 13.447985800968842 197912.23848460233 6.889623627951792 0.20546729645185366
0.4275602475158225 13.377136176993165 166116.57844558416 7.249575455243359 0.20848069455054988
0.44455294077712953 13.315025158655596 139836.85856834563 7.6246460290588605 0.21151962224986154
0.46193182073528377 13.260650673443413 118013.16906816613 8.01577128125547 0.21459004010987762
0.4796942813333459 13.21322735254428 99844.45278604885 8.423661987795137 0.21769369152360574
0.49784843094744285 13.172056425916665 84665.26640016247 8.848767897456167 0.2208281737269564
0.5163843611547142 13.136463156356358 71962.35200407862 9.291944465867802 0.22399664343698342
0.5353003235818087 13.105925823528237 61293.88752440798 9.754084527433978 0.2272021406251808
0.5546046613658497 13.079870856391006 52317.202824292246 10.235997324312242 0.23044601567272344
0.5742845845046279 13.057883717022463 44744.831023569524 10.738166368494925 0.23372512382687322
0.5943383147095843 13.039559250858904 38342.602219573564 11.26181154830828 0.23704534312947179
0.6147717793156259 13.024541003205815 32913.739980737504 11.807881736532076 0.24040843833760892
0.6355708443392916 13.012450683772117 28305.09083865386 12.37735549616862 0.24381604160791465
0.656739340987115 13.003040440997136 24379.943873119933 12.970938780971448 0.24726629672933859
0.6782690005478035 12.995992801318982 21036.80571739796 13.589924237041089 0.25076360939148157
0.7001535201404507 12.991074359264921 18179.78106559072 14.235525167636549 0.2543108002677344
0.7223831667851709 12.988003204400485 15734.915591474763 14.908930683368254 0.2579098528755005
0.7449685509420252 12.986643970626602 13640.197919273756 15.611191770590517 0.2615608803244315
0.7678858823595542 12.986760624627825 11840.903394077854 16.343531550065187 0.26526535057012207
0.7911272548372136 12.988119662825149 10224.730216139822 17.10758578138035 0.2690281610370204
0.8146984077885869 12.99065510061786 8960.422625856252 17.904808748993595 0.27285174280411595
0.83857744828408 12.994118749472305 7810.693832030863 18.736590438429584 0.2767374014283445
0.8627546105619589 12.998386359685055 6817.8876312848115 19.604225205493947 0.280685173751204
0.8872241781531864 13.003331827212254 5958.542350958216 20.50982170307971 0.28470163481443045
0.9119828457082614 13.008820573018165 5213.825582710187 21.455173038818852 0.28878979593946086
0.9369993747616583 13.014713963513012 4567.61144506469 22.441794592537896 0.2929498340838712
0.9622739084913845 13.02091577701751 4006.434066127614 23.471648007346424 0.2971850419796564
0.9877956528437042 13.027305610395775 3518.422446243901 24.547184628353868 0.3015017646125654
1.0135351717352845 13.033758891545475 3093.7704147320865 25.670383401574895 0.3059019103463447
1.039494230850827 13.040221554902308 2722.938816720178 26.8431304968609 0.3103861882462112
1.065644932748081 13.046558765330753 2399.4747245717394 28.068556741963302 0.3149635990075916
1.0919706704687209 13.052681657292087 2116.8528671653335 29.348759226907305 0.3196348830504084
1.1184654226229223 13.058512352073766 1869.6414474964708 30.686406952028467 0.32440413693077147
1.145092017720075 13.063968952938724 1652.8972765806593 32.08498771824995 0.32928001727013007
1.1718522070956465 13.068984409706962 1462.963534022905 33.54634483035893 0.3342595912399484
1.1987041093071253 13.073449289281973 1296.1659348201717 35.075064638081315 0.3393567283608277
1.2256478659943104 13.077316065016854 1149.7177240975784 36.67322561621918 0.34456853267088794
1.2526404348881237 13.080484069163417 1020.7725532983626 38.34577460651702 0.34990880899643717
1.2796791535060639 13.08292122746264 907.2624077452309 40.095039313258454 0.3553746731371091
1.306720529620017 13.084516849664515 807.2733977131753 41.92645965876106 0.3609805038835729
1.3337543810743901 13.085226390710766 718.9878724941583 43.843431752058684 0.36672775900364046
1.3607597099322868 13.08503936912587 641.0330166273634 45.850786289791586 0.37262499253527875
1.38768926594928 13.083782971645231 572.1773153948066 47.95378119700686 0.3786817550654405
1.414542825687193 13.081500464893548 511.157220402531 50.15708262344631 0.38490324943073256
1.4412643210977052 13.078056912222017 457.1519745568989 52.46607525607353 0.39129731493700215
1.4678570438637968 13.073466060152997 409.2810679783725 54.88708710550317 0.39787519957743706
1.494263691491951 13.067607058430903 366.7713501310636 57.42630247936213 0.404645955050525
1.5204742741558497 13.060472856337219 329.05566175038166 60.09034329658436 0.411619342376433
1.5464564399059995 13.05199678368951 295.4950399859413 62.88630847697191 0.4188058902878827
1.5721715164147183 13.042127837604674 265.63997480343846 65.82181710128452 0.4262169583863084
1.5975944813660545 13.030810013738222 239.07882404080593 68.90505572452487 0.4338648056210709
1.6226753805007659 13.017975600044435 215.37688412896998 72.1448302726466 0.4417626647177836
1.6474332842828459 13.003676022479997 194.2349979159742 75.55062300684969 0.44992482325748556
1.6717825739890004 12.987754950011235 175.34735815758276 79.13248106720033 0.45836598538588985
1.6957203918258321 12.97022165383885 158.47105924263136 82.90035201105671 0.4670984216743068
1.719183208053503 12.950983216613775 143.39011425849162 86.86707539238441 0.47614414862356436
1.7421887974460222 12.930102300833038 129.8737956348605 91.04435774977398 0.48551804930584663
1.764670458111266 12.907466439723521 117.76303058497632 95.44599756181773 0.4952409155357625
1.7865996798928407 12.883047775875012 106.8966464667844 100.08593711168068 0.5053313828107536
1.8079390038186631 12.856807954796519 97.15389000337781 104.9805434084664 0.5158145648537731
1.8286526797854559 12.828692014098257 88.39062491894872 110.14628395442453 0.5267127654710532
1.8487348420094853 12.798743025216979 80.52270631898594 115.60077523250983 0.5380493571663869
1.8681247884894323 12.766858029730002 73.4343609436444 121.36435867707732 0.5498542063249603
1.8867985454214 12.733028650727206 67.05444052146288 127.45833074606719 0.5621566956320485
1.9047259703066652 12.697231721787398 61.29996752236776 133.90528512970496 0.5749867175397878
1.9218729769293343 12.659440871211912 56.114606270034976 140.73051566937494 0.5883792486368804
1.9381913046723735 12.61957107693643 51.42818266114131 147.96185087840755 0.6023731634848113
1.953694914903184 12.577760937624893 47.19771893593091 155.6279698227299 0.617004912902602
1.9668296764253728 12.53519039381477 43.63661135256815 164.03575035596467 0.8908863312076224
1.9740356391623635 12.490785579384267 41.095115199959416 173.82349928051957 1.228459779859814
1.9758240300575054 12.441282235813992 39.25791220921972 185.07977175979707 1.5598272978679733
