M[M_sun], R[km], Lambda[1], P_c[MeV/fm^3], rho_c[fm^-3]
0.24162668629717493 15.618656898711224 2160425.4255784233 3.5677272577965504 0.1711233750220791
0.25364208500826385 15.277344819475001 1723169.4536762964 3.7848059718019305 0.17388800310938596
0.26603833083421136 14.981313598794499 1383002.2427327263 4.011372824515681 0.17666631478333575
0.278811863893664 14.723608523851514 1116461.1991909957 4.247684331904419 0.1794570052453204
0.29196562689026007 14.498482474067202 905938.4287222846 4.494365441889671 0.18226663643779006
0.30550034336071835 14.30128480145973 738675.5076112547 4.7515702985956105 0.18509088602156673
0.31941536611473137 14.128218714477484 605176.9973277613 5.019983589060566 0.18793642557852333
0.33371271604773967 13.976002473370471 497735.5122094557 5.299826037707535 0.19079981303730217
0.34839303394690047 13.842047490936691 411036.0784891535 5.591830107950906 0.1936874230042983
0.36345307354077266 13.724082096029287 340670.64660248416 5.896158214380814 0.1965942287011237
0.37890664551660824 13.620056676558558 279419.5947383386 6.213676422133499 0.1995279527303453
0.3947367883546918 13.528534557829035 236434.80176859148 6.544645445675336 0.20248483226919692
0.41096043753261907 13.447930278711546 197893.6638531195 6.8897610730175325 0.2054684669917101
0.427567242604101 13.377109654253333 166099.66493314496 7.24973125415565 0.20848198343502344
0.44456086904599335 13.314974477154607 139827.0884758542 7.624819751119425 0.21152100518916653
0.46193956820120896 13.260640366679903 117993.77744153186 8.015965956328364 0.2145915460789545
0.4797035050968812 13.213203590857786 99829.19295833529 8.423879133714786 0.21769532415735707
0.49785837900091556 13.172033439333505 84656.79694472792 8.849006713501357 0.2208299028571618
0.5163952888503917 13.136445439989174 71953.05878746726 9.292208816475972 0.22399850448174527
0.535312140533281 13.105879856964188 61290.20108297126 9.75437620471415 0.22720413760223462
0.5546169276358812 13.079838755183752 52311.277008477075 10.236318229258075 0.23044815277447725
0.5742971035243759 13.057869048123793 44740.263666234365 10.738515106740108 0.23372736283443288
0.5943523315694956 13.039546578422813 38337.71410991208 11.262193363862947 0.2370477287199668
0.6147865594452186 13.024526365257405 32908.88371957497 11.808298884647858 0.24041097529414912
0.6355866172921174 13.012448054108106 28300.825731974393 12.377810372782355 0.24381873496609777
0.6567572008326598 13.00303575981683 24377.369990200146 12.971429297239673 0.2472691003191821
0.6782873774066318 12.995987927714992 21033.32224101746 13.590457357676405 0.25076657766434746
0.7001730586056139 12.991072302290899 18177.98126366361 14.236103750714008 0.2543139391091674
0.7224050030982152 12.987994110313178 15734.414374094566 14.909557770581698 0.2579131685219803
0.7449905865794285 12.98665393726183 13638.30065757945 15.611864481187306 0.2615643187747757
0.7679081380280072 12.986753505234253 11839.488350542586 16.344258992918316 0.265268976690296
0.7911503645805464 12.988134603581045 10293.120168396172 17.108371606811435 0.2690319822399889
0.8147227715868511 12.990655803511086 8959.05834767558 17.90565684931247 0.27285576697948694
0.8386017125142543 12.994119617168701 7809.492789550145 18.737497052200894 0.27674156684952916
0.8627811521688893 12.99839537270324 6816.803662010676 19.605202119441387 0.2806895565479788
0.8872540374975935 13.003329057362066 5957.140297701074 20.510873618316413 0.28470624447009973
0.9120132491066667 13.008822488502437 5213.159201347833 21.456304978347386 0.2887946425767271
0.9370301528222806 13.014723109327893 4566.909834734823 22.44300184148935 0.2929548483087122
0.9623058352088724 13.02091544319435 4006.2446165006186 23.47294571379286 0.29719031235112153
0.9878291959197595 13.02731633468786 3517.824639538259 24.54857889946098 0.3015073033897824
1.0135682060526225 13.033773746167371 3093.388277558258 25.671868840814664 0.3059076429424504
1.039529105701922 13.040226601661244 2722.473788667669 26.84472526141491 0.3103922129795278
1.0656773197515284 13.046552224440012 2399.1238224003723 28.07026829557792 0.31496993078865265
1.0920073983596934 13.0526803507091 2116.5089166013076 29.35058150418522 0.31964144212972495
1.1185033134331794 13.058519829154479 1869.3054617308749 30.688361705767765 0.32441103245125175
1.1451312196302366 13.063977749393139 1652.754842066134 32.08706856928482 0.3292871668693303
1.1718914890921717 13.068992077440667 1462.7307803158958 33.54857618289675 0.3342671111280629
1.198745732989122 13.0734455882771 1295.929700625246 35.07745702165395 0.3393646393247257
1.2256894326983137 13.077318658993638 1149.5566734149656 36.67577208921304 0.34457674719858056
1.2526832843599938 13.08048800603409 1020.5854729917268 38.34850446242966 0.34991745658152446
1.279722060705253 13.082933487884706 907.076976698003 40.09794543687664 0.3553836637127106
1.3067647924091526 13.084518643844184 807.1097713238222 41.929554060733246 0.36098985872953465
1.3337999004241938 13.085229008343044 718.8342377381041 43.84674911945127 0.3667376199351473
1.3608061696293643 13.08503520653705 640.8887010730668 45.854319672670755 0.3726352671327176
1.3877361422156824 13.083780324558631 572.0530841109004 47.957545684745554 0.3786924700127479
1.414590648700819 13.081496952440208 511.05425920437096 50.16111948690702 0.38491456116702105
1.4413124384250666 13.078050275670272 457.0521774746391 52.470378087904805 0.3913091289010791
1.4679049759820533 13.073457809619763 409.1882036458344 54.891674954537706 0.39788754924193137
1.494313707451707 13.067594732547676 366.7053613227708 57.43119593723475 0.4046588764753669
1.520524306588861 13.060457121242479 328.9812273606563 60.09556463584546 0.4116328744212952
1.546506596555968 13.051978635659925 295.4243460445303 62.89188180298011 0.4188200748456726
1.5722231252220376 13.0421049101975 265.58491680824 65.82776851941374 0.42623184063997316
1.5976456517778097 13.030787196132067 239.03221797472202 68.91141352440505 0.4338804343262333
1.6227312448380158 13.017944731172822 215.23695683450495 72.1516251313724 0.44177909251403963
1.6474849507624452 13.003644293981235 194.19461190358828 75.55788821332771 0.44994210701152365
1.6718324809610143 12.987719550923986 175.31178804629732 79.14021484302059 0.45838402819639834
1.6957716125869824 12.970180905032334 158.4420855273014 82.90862979428707 0.46711744399606137
1.7192361084903507 12.950945525134113 143.34994973181404 86.87593978511767 0.47616422211174103
1.7422387780292206 12.930052468740769 129.84056466158557 91.05381244211263 0.48553908251615296
1.7647199625173533 12.90741380077093 117.73411722355304 95.45613361244935 0.4952631562941184
1.7866479041544159 12.882990377703948 106.87338243978085 100.09676334568093 0.5053547453540433
1.8079877559979578 12.856744907309304 97.13160124942112 104.99211595284112 0.5158391391760098
1.8287009624612736 12.828623463817243 88.37612291121468 110.15871298201958 0.5267388311110701
1.8487813351480182 12.798671715144321 80.50213879978895 115.61408023429966 0.5380768407088816
1.8681702360300745 12.766779148437061 73.41573106762554 121.37861280902673 0.5498832225140527
1.8868435824113816 12.7329427052208 67.040876130552 127.47361401702287 0.5621873690349092
1.9047691565790974 12.697141983828578 61.28842180889042 133.92162892507815 0.5750189852665579
1.9219147802305365 12.659343258852147 56.10020019906504 140.74806997696888 0.5884134511036392
1.9382323775443768 12.619469094872052 51.41702522497666 147.98072079454056 0.6024094607073299
1.9537439205932456 12.577678417728137 47.18603846000083 155.64820864490554 0.6170432674965595
1.9683535826712804 12.53373385102206 43.35953231448798 163.78400729587744 0.6323619269416085
1.9820756606331036 12.487754255052627 39.89754641833504 172.42170743244287 0.6484064484721608
1.9948708190859081 12.43969346850437 36.76441600740182 181.6008693765489 0.6652309805747397
2.0067049045710927 12.389538462144754 33.92141179003425 191.3633090401013 0.6828893857307274
2.017564238919042 12.3372978281576 31.343070747208323 201.75501874372216 0.7014408426564513
2.0274070448415733 12.282931402662435 29.004381767494404 212.82607147332484 0.7209485235834298
2.036224699704761 12.226484861443518 26.883007519160987 224.63156541711783 0.7414815869669245
2.0439761040970694 12.167911524528641 24.953287480764995 237.23295117285184 0.7631182207938821
2.0506439020366143 12.107227434051559 23.198466195508786 250.69676462542435 0.7859400717902292
2.0562184503695535 12.044480127591278 21.603238837875626 265.0961547019177 0.8100356043571081
2.0606794060806424 11.97967362069341 20.15094703388994 280.51301096861715 0.8355051611852099
2.0639994591945316 11.912811974705027 18.82984169311867 297.03654447554095 0.8624542043492284
2.066163285503791 11.843919657522049 17.626755892796318 314.76722202957274 0.8910037192987406
2.067165681434547 11.773050796598293 16.530289031167094 333.8145270783126 0.921280063742148
