M[M_sun], R[km], Lambda[1], P_c[MeV/fm^3], rho_c[fm^-3]
0.24162668629717493 15.618656898711224 2160425.4255784233 3.5677272577965504 0.1711233750220791
0.2536415576466285 15.277349148328852 1723118.1973918697 3.7847919304924114 0.17388782809123657
0.26604171754384986 14.981134300200598 1382871.5086304164 4.011343307076569 0.17666595808250407
0.2788104123416198 14.723621530917296 1116477.2510046884 4.247638339916411 0.17945647180756796
0.2919628276621612 14.498497983879657 905975.0746529755 4.4943017686966575 0.1822659274220081
0.3054960690624169 14.30134360156763 738724.1084085718 4.751486782440751 0.18508998388770126
0.3194100233657034 14.1282624654318 605222.3985706866 5.019879614964177 0.18793534680714297
0.33370720281886385 13.976104568570804 497765.43120438384 5.299698868607163 0.1907985326554731
0.3483851321058814 13.842161426261736 411085.3467146185 5.591679426564859 0.1936859651204373
0.36344392078681104 13.724179205525056 340728.031377558 5.89598063579253 0.1965925608454429
0.37889693723304047 13.620114259674793 283373.2465267241 6.2134697977315545 0.1995260685645915
0.3947256726889387 13.528572159538035 236468.59802679866 6.544409990215598 0.20248276764289977
0.410948040510577 13.448013458959068 197924.69593036332 6.889492241517635 0.2054661775098462
0.42755248127725765 13.377186486046874 166137.40299268923 7.249426524352064 0.20847946248345392
0.44454568082769214 13.315049505251798 139848.57358554713 7.624479965462427 0.21151830027685536
0.4619234675249049 13.260676523777912 118027.18830244266 8.015585188775145 0.214588600534093
0.47968557702225234 13.21324846332091 99844.51869662167 8.423454415605182 0.21769213087091788
0.49783860788489404 13.172079188979879 84675.31839812806 8.848539611007816 0.22082652083553103
0.5163737710072623 13.13648194026235 71962.5542547428 9.291691771261528 0.22399486445120156
0.5352887935569928 13.105914603960002 61299.61466317413 9.753805711691209 0.22720023170502002
0.5545924405994291 13.079900434576722 52321.85218915162 10.235690570382474 0.23044397281121629
0.5742695201431769 13.057904633919355 44749.435418077424 10.73783300927323 0.23372298355740817
0.594324091201139 13.039575386650487 38346.69007215044 11.261446571258977 0.23704306274626302
0.6147585782550348 13.024532859897263 32917.61396464132 11.807482986005772 0.2404060132691084
0.6355539750347916 13.01246473057415 28307.82531240064 12.376920682050068 0.2438134670412542
0.6567233873554527 13.00305563186881 24383.234203976997 12.970469899965462 0.24726361679778208
0.6782505556114371 12.996014188907974 21038.243601782757 13.589414631939649 0.25076077204680813
0.7001347482412933 12.991082156218729 18181.97831387642 14.234972106617363 0.25430779988471314
0.7223649466891011 12.988004364714088 15737.395337121863 14.908331259109271 0.25790668349348855
0.7449480087404017 12.986650566295047 13641.854092402242 15.610548736718393 0.2615575935618184
0.767864221826033 12.986751170439693 11842.250569806309 16.342836199983843 0.26526188442436643
0.7911040655038567 12.98812091920246 10294.709861099846 17.106834626052613 0.2690245084230241
0.814674838217843 12.990653840378931 8961.8884169407 17.90399806809599 0.2728478961812233
0.8385520293777681 12.994107275477567 7811.636737165737 18.735723827342742 0.2767334197987971
0.8627289001672991 12.99838526388215 6818.796958474673 19.603291398171677 0.28068098434667044
0.8871996090979747 13.003332681923288 5959.387261989356 20.508816206167122 0.28469722857105473
0.9119548561220351 13.008819852784457 5214.483455458531 21.45409105131066 0.28878516318228026
0.9369700577002814 13.014704037871875 4568.211827783326 22.440640621081627 0.2929450411434136
0.9622446027487118 13.020905025201525 4007.25905340784 23.47040757321786 0.29718000420809143
0.9877627979842576 13.027303035239878 3518.8873657665877 24.54585189434633 0.301496470293032
1.0135021787769716 13.033756848005092 3094.238259371176 25.668963525829177 0.3058964307723893
1.0394613939307338 13.040211134729672 2723.4101670732634 26.841606124674783 0.3103804294425851
1.0656110370153302 13.046545062033974 2399.8783112287806 28.066920739574574 0.31495754672336734
1.091935721795411 13.052669846164617 2117.3390986765544 29.34701739171017 0.31962861351319094
1.1184288218223797 13.058503635227249 1869.965375701468 30.68453849282423 0.3243975458198554
1.145056168526534 13.063969169692948 1653.1513838143817 32.08299873228968 0.32927318331027783
1.171814677686561 13.068980330110103 1463.2351762517537 33.544211992398765 0.33425240335611783
1.198665257136238 13.073435002220167 1296.392630526137 35.07277788426335 0.33934916668589205
1.2256084879470026 13.077306727719206 1149.8991972516526 36.670791581307476 0.34456068085104324
1.2525983025561531 13.0804733880977 1020.9481728022864 38.343165292438016 0.34990054326145337
1.279636507146391 13.082921173048048 907.4644454964359 40.09226152064882 0.3553660795747754
1.3066766178436569 13.084515211859577 807.4093140321536 41.92350190816844 0.3609715621554342
1.333711055362872 13.085234315528863 719.2084989087148 43.8402608907086 0.3667183335638593
1.3607153930726767 13.085042150477658 641.1464745253091 45.847408960268424 0.3726151717198009
1.3876425743496954 13.083787570323391 572.2797732910326 47.95018297744023 0.37867151337102334
1.4144966169783277 13.081506363403708 511.24553547672093 50.153224068918696 0.3848924373357247
1.4412248816879463 13.078080664211988 457.24692776939486 52.46196249050663 0.39128602282367553
1.4678110254595027 13.073475186431216 409.36662645927714 54.88270192291408 0.3978633954545651
1.4942164743098632 13.067616675020936 366.8501042644284 57.421625199299775 0.40463360445420565
1.520426121534813 13.06048827005066 329.1129394072734 60.08535263214042 0.41160640816707206
1.5464081815027466 13.052014445269498 295.5487682244452 62.880981389623386 0.41879233242705843
1.5721229808722423 13.042147206790478 265.6911092049884 65.81612864110376 0.42620273369136447
1.5975461006903404 13.030834121453228 239.12899259423182 68.89897885411017 0.43384986749501914
1.6226336613801688 13.018032595041252 215.4287024774773 72.13833567292855 0.44174696285182313
1.6473851523536835 13.003704593370923 194.2746628187199 75.54367886269702 0.4499083033031109
1.6717336572588783 12.987789178366103 175.382582379397 79.12508907792146 0.4583487399594721
1.6956726926023478 12.970259107910637 158.5077825253304 82.89244007902762 0.4670802400775473
1.7191446865524351 12.951059695754662 143.41663848708495 86.85860280210598 0.4761249623751775
1.742141506929707 12.930147771804618 129.90249146903543 91.03532097410432 0.4854979458062992
1.7646261866957913 12.907525495685839 117.7821896829655 95.43630957536243 0.4952196579302573
1.7865521327692702 12.883103572511155 106.91725270749909 100.07558947973399 0.505309053069932
1.8078935507103582 12.85686804989601 97.17453902321965 104.96948249002716 0.5157910769702828
1.8286073815860022 12.828755128960962 88.41025082688893 110.13440445803037 0.5266878522850276
1.8486896918774403 12.798814520849913 80.53812268013425 115.58805853012339 0.5380230888474532
1.8680810807545427 12.766932001447781 73.44878310739297 121.35073485402984 0.5498264732138098
1.8867562035798302 12.73311050031326 67.0700875048615 127.44372333882262 0.5621273786822631
1.9046843483595406 12.697318995752903 61.31272968122025 133.8896641424412 0.5749558768606556
1.921832016444626 12.659533390075712 56.1253089936727 140.71373776262448 0.588346558894215
1.9381594760394474 12.619701189620319 51.43877994180894 147.9438156143821 0.6023384717571479
1.9536596192580373 12.5778640462994 47.20855303144311 155.60862626513787 0.6169682549246477
1.968282315338593 12.533960884362282 43.378685684983395 163.74140111274212 0.6322821762304871
1.9820080976793903 12.487996125786298 39.9155809238194 172.37589988260524 0.6483218698398795
1.9948061111646807 12.439948019265916 36.776523860278054 181.5515876396076 0.6651412132075712
2.006645938546058 12.389806283295032 33.93436597114979 191.31023319074808 0.6827939706397961
2.0175096131520927 12.337582047320845 31.3551448546974 201.69779587363195 0.7013392777066119
2.0273575416743466 12.283232904518208 29.017604446322323 212.7644561042632 0.7208407311815868
2.036180288367896 12.22679866734275 26.894529654944435 224.56498745188262 0.7413665053690188
2.043936275954853 12.168240675312882 24.964086192144805 237.1610863558615 0.762995684679299
2.0506090631299068 12.10757188889559 23.207412627018755 250.61893797030518 0.7858088736415499
2.056189475104798 12.044839701501507 21.611405524092824 265.01194251463613 0.8098954703848465
2.060656816526119 11.98004929186801 20.15855341594437 280.4219045230172 0.8353556722003879
2.063983039286381 11.913206420826848 18.837317461833674 296.93773768673753 0.8622941196470563
2.066153841640403 11.844327832690048 17.633156259665807 314.65988902687775 0.8908319002722027
2.067163197978368 11.773472334920298 16.536602811935936 333.6979601899983 0.9210959556533529
